t(s),Total solute volume 1,Total retention volume 1,Total 1 volume 1,Total 2 volume 1,Total 3 volume 1,Total 4 volume 1,Total 5 volume 1,Total 6 volume 1
0.1,1038034012882719.0,1307672365282961.0,121693262551923.95,147945089848319.12,0.0,0.0,0.0,0.0
0.202,1441201750030830.0,2088318071641436.5,168958378702214.94,205406300818035.53,267041881021.09372,589672910779.0492,10535273485777.705,261359653812779.97
0.30604000000000003,1684405568108560.0,2765909499488134.0,197470225194787.3,240068760732830.16,630400161385.24,1392093452537.2341,24871984105013.723,617070467733021.5
0.41216080000000005,1851332594090246.5,3404542793056107.0,217039809989874.12,263859922372666.56,1049648417156.7974,2318016272682.905,41415476757408.2,1027527325156071.1
0.5204040160000001,1973991708246653.0,4026516589633735.5,231419674022879.28,281341829825251.12,1507146306713.1172,3328503016579.4307,59470038775838.07,1475457689439823.0
0.6308120963200001,2068183882442819.8,4642224929973070.0,242462234278731.9,294766505917235.1,1993584400368.3938,4403008059586.26,78668586748767.84,1951747128125563.8
0.7434283382464002,2142838076963810.2,5257378236824715.0,251214271791742.56,305406544667921.75,2503541913140.3384,5529571093700.464,98797432299733.88,2451088798094665.0
0.8582969050113283,2203450984984575.0,5875476973385846.0,258320187923633.53,314045358550282.6,3033666803547.884,6700799304338.496,119724495164213.83,2970201480655260.5
0.9754628431115548,2253616125810619.5,6498848174513226.0,264201266646570.7,321195111470767.56,3581804963466.8193,7911944892767.724,141364954265525.12,3506976966463496.5
1.094972099973786,2295791259577622.0,7129141689906900.0,269145641922007.25,327206094029599.56,4146539720217.792,9159888452171.555,163663083705781.94,4060029182499505.5
1.2168715419732616,2331718003627428.0,7767591599631238.0,273357491162137.8,332326529060410.94,4726930327036.232,10442561651315.434,186581937853951.4,4628438145948954.0
1.3412089728127268,2362666517920450.0,8415164267479848.0,276985720770049.28,336737445252813.75,5322355185433.356,11758601134620.74,210097167570701.03,5211596459645778.0
1.4680331522689813,2389585559374313.0,9072647111223580.0,280141557665567.12,340574063545328.2,5932413720981.501,13107131911255.178,234193150013025.06,5809113234993119.0
1.597393815314361,2413198332883676.0,9740704346516280.0,282909786319172.3,343939458227038.4,6556862764657.828,14487626922241.264,258860479514424.72,6420751799885092.0
1.729341691620648,2434065824709378.5,1.0419913361577816e+16,285356173601981.94,346913583485981.06,7195574068721.954,15899813266600.516,284094292126306.3,7046388100318864.0
1.863928525453061,2452629864313511.0,1.1110789236877624e+16,287532517112850.1,349559410768023.6,7848505212670.353,17343607989269.473,309893118344045.25,7685982213137259.0
2.001207095962122,2469243131752091.5,1.1813801742446798e+16,289480163076146.2,351927205560200.3,8515679241453.496,18819073147858.48,336258080292399.25,8339558409376654.0
2.1412312378813647,2484190520443759.5,1.2529387412158558e+16,291232510792496.44,354057572104854.2,9197170143008.316,20326383771585.996,363192319259319.5,9007190935643547.0
2.284055862638992,2497704634785260.0,1.325795830858459e+16,292816829491962.25,355983662186807.6,9893092317534.592,21865804633576.87,390700580701617.7,9688993704467820.0
2.4297369798917723,2509977222482976.0,1.3999908510299224e+16,294255598596233.9,357732804518674.3,10603592829374.34,23437673167160.883,418788909028588.3,1.0385112709676208e+16
2.578331719489608,2521167735169984.0,1.4755618998930304e+16,295567511317178.25,359327724837024.06,11328845632844.934,25042386740967.0,447464420267042.7,1.1095720374965282e+16
2.7298983538794,2531409825708232.5,1.5525461400914994e+16,296768236363967.8,360787471925978.56,12069047220649.955,26680393075583.066,476735130859225.0,1.1821011295761358e+16
2.884496320956988,2540816340149650.0,1.6309800895938494e+16,297871003172502.06,362128129093101.3,12824413312301.719,28352182957233.867,506609827503896.6,1.2561198999749808e+16
3.0421862473761276,2549483196098520.5,1.7108998509994098e+16,298887056582774.25,363363366930373.2,13595176312895.152,30058284653188.5,537097967404411.6,1.3316513462011936e+16
3.2030299723236504,2557492426791268.0,1.7923412947882738e+16,299826013709648.44,364504877169602.94,14381583349403.531,31799259603228.44,568209601318250.1,1.4087199185941332e+16
3.3670905717701234,2564914592872652.0,1.8753402076821804e+16,300696146685923.6,365562716419208.5,15183894744780.613,33575699078769.844,599955313897620.0,1.487351371312286e+16
3.5344323832055258,2571810709819556.0,1.959932414283992e+16,301504608622655.1,366545580868990.2,16002382827406.973,35388221583475.93,632346177280226.6,1.5675726461837594e+16
3.7051210308696363,2578233800680732.0,2.0461538780463596e+16,302257615643609.7,367461027593309.8,16837330999894.738,37237470827651.09,665393714933709.8,1.649411781978471e+16
3.879223451487029,2584230156318863.5,2.134040786105201e+16,302960594628958.25,368315654166245.9,17689033010315.613,39124114150768.234,699109873508792.8,1.732897843526805e+16
4.0568079205167695,2589840365374602.0,2.223629621414841e+16,303618303962462.2,369115245456525.25,18557792382781.27,41048841297087.72,733507001003049.1,1.818060866467189e+16
4.237944078927105,2595100161502412.5,2.3149572248159332e+16,304234932856626.8,369864894379229.3,19443921974500.027,43012363471838.875,768597829939411.1,1.9049318144035332e+16
4.422702960505647,2600041124537651.0,2.408060849069092e+16,304814183553591.7,370569101829175.9,20347743634006.703,45015412622156.91,804395464562347.6,1.993542545995198e+16
4.61115701971576,2604691264091837.5,2.5029782064391896e+16,305359339742547.75,371231859857426.1,21269587940940.582,47058740899497.78,840913371278530.0,2.0839257900581144e+16
4.803380160110075,2609075507898533.5,2.599747511076084e+16,305873323810666.4,371856721272464.44,22209794012035.51,49143120269735.48,878165371738192.9,2.1761151271759176e+16
4.9994477633122765,2613216112523002.5,2.6984075171785756e+16,306358744992378.6,372446858176304.25,23168709361258.934,51269342244366.984,916165638082436.4,2.2701449766406012e+16
5.199436718578522,2617133010427221.5,2.7989975537291304e+16,306817940057332.94,373005111429707.1,24146689804549.484,53438217711800.86,954928689980909.1,2.366050587787977e+16
5.403425452950093,2620844104577166.0,2.9015575564320656e+16,307253007848488.56,373534032640878.75,25144099401544.496,55650576851997.78,994469393160981.0,2.463868034983959e+16
5.611493962009095,2624365519590339.0,3.0061280973671424e+16,307665838725238.75,374035919960104.0,26161310428204.242,57907269121075.96,1034802959189291.5,2.5636342156657132e+16
5.823723841249277,2627711816703038.0,3.112750412775051e+16,308058139764968.06,374512848717813.5,27198703375424.8,60209163295114.05,1075944946313413.1,2.6653868509580772e+16
6.040198318074262,2630896178478464.0,3.2214664293161024e+16,308431456417184.3,374966697749981.94,28256666969667.65,62557147564458.56,1117911261208316.6,2.769164488477302e+16
6.261002284435747,2633930568096629.0,3.3323187890830172e+16,308787191177775.6,375399172100813.4,29335598212375.86,64952129671473.96,1160718161501658.8,2.8750065070069416e+16
6.486222330124463,2636825867203471.0,3.445350873600609e+16,309126619749663.4,375811822669595.8,30435902435538.727,67395037085993.48,1204382258975291.8,2.9829531227886516e+16
6.715946776726952,2639591995602350.0,3.560606827006255e+16,309450905074758.25,376206063269647.25,31557993371240.93,69886817213770.75,1248920523359222.5,3.0930453972171548e+16
6.950265712261491,2642238015510044.5,3.678131578573344e+16,309761109556345.6,376583185487335.25,32702293233414.19,72428437634084.47,1294350286649300.2,3.2053252457662944e+16
7.18927102650672,2644772222643703.5,3.797970864714307e+16,310058205737613.9,376944371664187.06,33869232810319.336,75020886363331.33,1340689247892231.0,3.319835448003167e+16
7.433056447036854,2647202226033776.0,3.920171250578724e+16,310343085658463.25,377290706272162.94,35059251566537.746,77665172142003.6,1387955478391529.2,3.436619658572276e+16
7.681717575977592,2649535018152993.0,4.044780151344673e+16,310616569077039.06,377623185908749.3,36272797753455.586,80362324742901.12,1436167427296073.2,3.5557224190515604e+16
7.935351927497144,2651777036701137.5,4.171845853287276e+16,310879410713028.5,377942728102794.0,37510328527395.19,83113395298805.69,1485343927539803.5,3.67718917059898e+16
8.194058966047088,2653934219177974.0,4.301417534696176e+16,311132306645485.5,378250179092469.6,38772310074681.92,85919456648154.95,1535504202106436.2,3.80106626732166e+16
8.45794014536803,2656012051204928.5,4.433545286704475e+16,311375899977789.6,378546320712293.4,40059217743055.336,88781603697507.73,1586667870597860.2,3.927400990311127e+16
8.72709894827539,2658015609413035.0,4.568280134082477e+16,311610785865588.5,378831876505701.9,41371536178921.31,91700953799805.84,1638854956088570.2,4.056241562297312e+16
9.0016409272409,2659949599594957.0,4.705674056043529e+16,311837515989528.94,379107517162638.56,42709759470026.56,94678647147619.53,1692085892251688.8,4.1876371628818904e+16
9.281673745785717,2661818390718672.5,4.845780007102843e+16,312056602542825.44,379373865367340.2,44074391293199.45,97715847180708.53,1746381530744828.0,4.321637944318099e+16
9.567307220701432,2663626045316038.0,4.988651938025303e+16,312268521793846.75,379631500129435.06,45465945066855.89,100813741007356.25,1801763148846387.8,4.458295047809312e+16
9.85865336511546,2665376346688047.0,5.1343448168943976e+16,312473717275506.8,379880960661363.9,46884944108017.27,103973539839049.61,1858252457334557.0,4.59766062030374e+16
10.155826432417769,2667072823308461.5,5.282914650330565e+16,312672602646210.7,380122749856484.3,48331921793623.36,107196479438151.31,1915871608603190.2,4.739787831765948e+16
10.458942961066125,2668718770756130.0,5.434418504884159e+16,312865564261072.2,380357337414965.25,49807421725958.64,110483820578306.62,1974643205009873.8,4.88473089290953e+16
10.768121820287448,2670317271462708.5,5.588914528625965e+16,313052963487031.1,380585162658312.9,51311997902034.2,113836849517378.05,2034590307452860.0,5.032545073377938e+16
11.083484256693197,2671871212525253.5,5.746461972955578e+16,313235138791093.75,380806637068100.6,52846214886794.2,117256878482765.88,2095736444174441.8,5.183286720362745e+16
11.405153941827061,2673383301801130.0,5.907121214646391e+16,313412407627219.56,381022146579886.56,54410647990034.98,120745246169019.88,2158105619789269.8,5.337013277650735e+16
11.733257020663602,2674856082475507.5,6.070953778143901e+16,313585068144121.4,381232053659433.5,56005883446937.2,124303318247685.75,2221722324536936.2,5.49378330509285e+16
12.067922161076874,2676291946267805.5,6.2380223581331224e+16,313753400733524.56,381436699184948.6,57632518602131.695,127932487889376.0,2286611543758691.5,5.65365649848948e+16
12.409280604298411,2677693145423374.5,6.408390842388953e+16,313917669435995.75,381636404156193.94,59291162097226.805,131634176298074.89,2352798767598858.0,5.816693709887984e+16
12.75746621638438,2679061803618986.0,6.5821243349230376e+16,314078123219446.8,381831471248778.3,60982434061737.945,135409833257730.2,2420310000932030.0,5.982956968289163e+16
13.112615540712067,2680399925895381.0,6.7592891794389784e+16,314234997143569.5,382022186229789.44,62706966307365.07,139260937691193.5,2489171773517421.5,6.1525095007605064e+16
13.474867851526309,2681709407717051.0,6.939952983107571e+16,314388513421950.6,382208819249034.2,64465402525575.414,143188998231609.12,2559411150382510.0,6.325415753954793e+16
13.844365208556836,2682992043247646.0,7.124184640672416e+16,314538882392241.94,382391626018487.25,66258398488449.64,147195553806359.97,2631055742437993.5,6.501741416033289e+16
14.221252512727972,2684249532919641.5,7.312054358896075e+16,314686303403573.0,382570848891147.6,68086622252759.03,151282174233702.66,2704133717326953.5,6.681553438993299e+16
14.605677562982532,2685483490367744.0,7.503633681356096e+16,314830965629394.56,382746717849218.5,69950754367240.95,155450460832241.2,2778673810510908.0,6.864920061400414e+16
14.997791114242183,2686695448788140.5,7.698995513599816e+16,314973048812998.7,382919451410461.94,71851488083046.47,159702047043395.66,2854705336596184.5,7.051910831526405e+16
15.397746936527026,2687886866778703.0,7.898214148666432e+16,315112723952192.4,383089257460563.06,73789529567334.34,164038599067051.38,2932258200903876.0,7.242596630893462e+16
15.805701875257567,2689059133709446.5,8.10136529298413e+16,315250153928893.2,383256334018551.3,75765598119988.94,168461816510565.8,3011362911287255.5,7.437049698226642e+16
16.221815912762718,2690213574667207.5,8.308526092650192e+16,315385494088824.6,383420869941540.06,77780426393437.47,172973433051347.1,3092050590200416.0,7.635343653815926e+16
16.64625223101797,2691351455013993.0,8.519775160101355e+16,315518892775907.0,383583045574403.8,79834760615549.33,177575217113203.4,3174352987022510.0,7.837553524289805e+16
17.079177275638333,2692473984594317.5,8.735192601181008e+16,315650491825501.0,383743033349417.2,81929360815593.52,182268972556693.12,3258302490641583.0,8.043755767802693e+16
17.5207608211511,2693582321623151.0,8.954860042610334e+16,315780427020210.6,383900998340396.3,84065001053233.53,187056539383704.78,3343932142302951.5,8.254028299637994e+16
17.97117603757412,2694677576283093.5,9.178860659869886e+16,315908828511595.3,384057098775371.6,86242469650540.34,191939794456508.9,3431275648726439.5,8.468450518229538e+16
18.430599558325603,2695760814056400.5,9.407279205497061e+16,316035821210797.7,384211486511487.1,88462569426999.33,196920652231534.1,3520367395497693.5,8.687103331603558e+16
18.899211549492115,2696833058814927.0,9.640202037806251e+16,316161525150791.06,384364307475393.0,90726117937488.75,202001065508119.53,3611242460738396.0,8.910069184243738e+16
19.37719578048196,2697895295688942.5,9.87771715003674e+16,316286055822703.8,384515702072119.06,93033947713205.12,207183026192522.84,3703936629060768.0,9.137432084381731e+16
19.864739696091597,2698948473733697.0,1.0119914199934043e+17,316409524488431.44,384665805565131.1,95386906505510.0,212468566077447.78,3798486405811713.5,9.369277631715851e+16
20.36203449001343,2699993508410752.0,1.0366884539769746e+17,316532038471534.06,384814748429971.6,97785857532668.05,217859757637380.06,3894929031612101.0,9.605693045560312e+16
20.869275179813698,2701031283899600.0,1.0618721246805184e+17,316653701428239.6,384962656683731.9,100231679729449.11,223358714840026.22,3993302497197001.0,9.846767193427378e+16
21.38666068340997,2702062655253605.5,1.0875519154203282e+17,316774613600189.6,385109652192317.4,102725267999558.48,228967593974149.56,4093645558562667.5,1.0092590620045005e+17
21.91439389707817,2703088450412967.5,1.1137374882393402e+17,316894872050437.44,385255852957351.4,105267533470862.53,234688594494111.56,4195997752426389.0,1.034325557681219e+17
22.452681775019734,2704109472086437.0,1.1404386870893837e+17,317014570884034.5,385401373384359.6,107859403753369.08,240523959881435.88,4300399412005276.5,1.0598856051694341e+17
23.00173541052013,2705126499512118.0,1.167665541059528e+17,317133801454471.25,385546324533729.3,110501823199923.25,246475978523710.53,4406891683120476.0,1.0859487799560832e+17
23.561770118730532,2706140290107194.5,1.1954282676510126e+17,317252652557075.7,385690814355837.1,113195753169571.92,252546984611169.66,4515516540633188.0,1.1125248372966718e+17
24.133005521105144,2707151581015238.5,1.2237372760990682e+17,317371210610410.25,385834947911574.5,115942172293550.3,258739359051275.94,4626316805219268.0,1.139623715338054e+17
24.715665631527248,2708161090559095.0,1.2526031707419824e+17,317489559826602.3,385978827579422.75,118742076743836.6,265055530401661.75,4739336160489076.0,1.1672555382859869e+17
25.309978944157795,2709169519606773.5,1.282036754437771e+17,317607782371471.44,386122553250125.0,121596480504219.58,271497975821776.0,4854619170459766.0,1.1954306196176314e+17
25.91617852304095,2710177552856953.5,1.3120490320286958e+17,317725958515239.5,386266222509900.3,124506415643817.19,278069222043591.84,4972211297386979.0,1.22415946533913e+17
26.53450209350177,2711185860050324.0,1.3426512138539432e+17,317844166774532.4,386409930813091.3,127472932592982.95,284771846361753.0,5092158919963362.0,1.2534527772883829e+17
27.165192135371807,2712195097112315.0,1.3738547193106843e+17,317962484046355.3,386553771645028.25,130497100421526.73,291608477643519.8,5214509351891266.0,1.2833214564830835e+17
27.808495978079243,2713205907232465.5,1.4056711804637538e+17,318080985734631.75,386697836675867.25,133580007119179.9,298581797358911.0,5339310860837400.0,1.31377660651417e+17
28.464665897640828,2714218921885154.5,1.4381124457041083e+17,318199745869859.9,386842215906069.25,136722759878218.69,305694540631420.06,5466612687777185.0,1.3448295369846309e+17
29.133959215593645,2715234761796024.5,1.4711905834562515e+17,318318837222423.4,386986997804142.3,139926485378163.92,312949497309712.25,5596465066736785.0,1.3764917669937795e+17
29.816638399905518,2716254037858270.5,1.5049178859347222e+17,318438331409998.9,387132269437222.4,143192330072464.62,320349513060699.5,5728919244940896.0,1.4087750286669248e+17
30.51297116790363,2717277352002230.5,1.5393068729497587e+17,318558298999512.94,387278116595031.6,146521460477066.1,327897490484418.94,5864027503374913.0,1.441691270730425e+17
31.223230591261704,2718305298022081.0,1.5743702957622166e+17,318678809604050.44,387424623907681.3,149915063460762.12,335596390251122.75,6001843177769463.0,1.4752526621320627e+17
31.947695203086937,2719338462362388.5,1.6101211409876832e+17,318799931975073.6,387571874957792.0,153374346537214.72,343449232261015.4,6142420680016704.0,1.509471595706579e+17
32.686649107148675,2720377424867807.5,1.646572634549875e+17,318921734090303.8,387719952387330.44,156900538158530.03,351459096827084.1,6285815520026456.0,1.5443606918862998e+17
33.44038208929165,2721422759498339.0,1.6837382456832016e+17,319044283237581.2,387868937999558.94,160494888010262.75,359629125881447.56,6432084328032028.0,1.579932802456608e+17
34.20918973107749,2722475035012846.5,1.7216316909843866e+17,319167646094992.4,388018912856450.9,164158667307715.62,367962524205705.56,6581284877354368.0,1.6162010143560672e+17
34.993373525699035,2723534815623018.5,1.7602669385130755e+17,319291888807541.5,388169957371899.8,167893169093397.53,376462560685718.06,6733476107634368.0,1.653178653520914e+17
35.793240996213015,2724602661620075.0,1.7996582119411242e+17,319417077060614.8,388322151401032.06,171699708535490.47,385132569591319.94,6888718148542810.0,1.6908792887736118e+17
36.60910581613728,2725679129976045.0,1.8398199947505046e+17,319543276150479.3,388475574325909.9,175579623227166.03,393975951881424.94,7047072343977829.0,1.7293167357551142e+17
37.44128793246003,2726764774921586.0,1.880767034479341e+17,319670551052017.25,388630305137885.6,179534273486594.28,402996176535021.25,7208601276760005.0,1.7685050609004093e+17
38.29011369110923,2727860148502087.0,1.9225143470159155e+17,319798966483921.94,388786422516855.94,183565042657460.72,412196781908543.1,7373368793835186.0,1.8084585854568742e+17
39.15591596493141,2728965801113568.0,1.9650772209401558e+17,319928586971523.94,388944004907641.7,187673337409817.47,421581377120141.5,7541440031995774.0,1.849191889544973e+17
40.03903428423004,2730082282019971.5,2.0084712219121744e+17,320059476907436.2,389103130593715.0,191860588041070.66,431153643461352.6,7712881444130870.0,1.8907198162606314e+17
40.93981496991464,2731210139853193.5,2.0527121971073418e+17,320191700610174.9,389263877768466.94,196128248776897.84,440917335836694.2,7887760826016393.0,1.9330574758187267e+17
41.85861126931294,2732349923097199.5,2.0978162796973808e+17,320325322380910.25,389426324604204.8,200477798071890.6,450876284231723.7,8066147343656126.0,1.976220249736956e+17
42.7957834946992,2733502180557425.5,2.143799893376728e+17,320460406558501.7,389590549319052.2,204910738909691.47,461034395210095.56,8248111561185285.0,2.0202237950593283e+17
