t(s),Total solute volume 1,Total retention volume 1,Total 1 volume 1,Total 2 volume 1,Total 3 volume 1,Total 4 volume 1,Total 5 volume 1,Total 6 volume 1
0.1,941999071437344.5,1111941895936827.4,80338108873842.89,89604715625638.98,0.0,0.0,0.0,0.0
0.202,1356014160725882.5,1730911739662460.5,115647262150771.08,128986607395054.47,201259181190.9728,389246915857.7367,5700883509303.168,123972319784399.39
0.30604000000000003,1631940843106451.5,2243012686812065.5,139179586793898.84,155233270594561.3,489215247531.5509,946228709698.6852,13858517866864.826,301365024493058.75
0.41216080000000005,1837675313953175.0,2709400471884356.0,156725589652536.34,174803119064972.06,834531920511.7212,1614233033289.9585,23642293425168.996,514105390834700.75
0.5204040160000001,1999778754030975.5,3152176009504373.5,170550533095750.53,190222702127228.78,1222912608286.2183,2365627533309.2515,34647520264111.832,753387959844713.0
0.6308120963200001,2131908378986380.2,3581993580294880.5,181819168677718.8,202791119728905.78,1645908890539.3618,3184087143982.2734,46635114095689.63,1014009802771665.8
0.7434283382464002,2242165395194279.2,4004867792457347.0,191222405361919.9,213278973800212.53,2098036784754.9922,4059018412416.103,59449934851841.64,1292594028051923.8
0.8582969050113283,2335797019041148.5,4424559357428721.5,199207750428833.1,222185389395276.84,2575534992725.938,4983158690078.611,72985624848260.66,1586824880032401.2
0.9754628431115548,2416410877508661.5,4843598233287117.0,206082879266800.75,229853530751927.1,3075730880535.735,5951350367102.885,87166656536864.94,1895057207975225.2
1.094972099973786,2486597012757822.5,5263784767727608.0,212068682847034.28,236529767533324.78,3596680345472.9883,6959844644963.954,101938135780816.72,2216094643818177.8
1.2168715419732616,2548277182993010.5,5686459598996633.0,217329057743360.94,242396900980645.78,4136947759680.6606,8005876128832.975,117259571488270.89,2549054061902830.0
1.3412089728127268,2602914887297121.0,6112659789944205.0,221988818037479.94,247594141868882.5,4695464151552.615,9087388678861.13,133100860541419.33,2893278229368880.5
1.4680331522689813,2651648477347356.5,6543214349009916.0,226145047711834.4,252229772342630.78,5271432012611.553,10202851402138.047,149439592898032.22,3248277175295317.5
1.597393815314361,2695379127438328.5,6978805365866259.0,229874603146720.22,256389513789494.5,5864259307907.412,11351131102947.46,166259183563028.44,3613687547517821.0
1.729341691620648,2734830985495846.5,7420008623616986.0,233239243081510.78,260142248517204.28,6473512513792.325,12531401517872.412,183547543298954.16,3989243689191811.0
1.863928525453061,2770593481888457.5,7867321435213642.0,236289236908988.9,263544044247031.72,7098882457615.155,13743077300337.684,201296111808767.44,4374756600602446.5
2.001207095962122,2803151807497235.0,8321182240397890.0,239065963988421.44,266641053244890.3,7740159004247.34,14985765108505.102,219499141409065.38,4770098350145514.0
2.1412312378813647,2832909322906807.5,8781984725618390.0,241603824806706.5,269471643925562.44,8397211996522.987,16259226783896.31,238153157780678.06,5175190337418204.0
2.284055862638992,2860204329766446.5,9250088206754778.0,243931671318893.53,272067996175995.0,9069976703864.309,17563351245948.074,257256548370650.22,5589994333172967.0
2.4297369798917723,2885322819428963.0,9725825402889590.0,246073894212037.94,274457314029710.3,9758442576566.82,18898132777844.98,276809244399611.22,6014505555464850.0
2.578331719489608,2908508298021060.0,1.0209508351722524e+16,248051260833387.6,276662760245911.22,10462644460753.908,20263654070164.805,296812472551455.7,6448747261539788.0
2.7298983538794,2929969451935193.0,1.0701432977398722e+16,249881568939562.47,278704185465425.0,11182655669757.365,21660072854286.473,317268559238543.1,6892766483295969.0
2.884496320956988,2949886194790277.0,1.1201882665393672e+16,251580162409793.88,280598703408939.44,11918582473068.465,23087611277231.984,338180775018177.75,7346630636016194.0
3.0421862473761276,2968414485465546.0,1.17111310951793e+16,253160342150499.1,282361149177409.1,12670559679652.178,24546547393187.2,359553210010438.44,7810424801302549.0
3.2030299723236504,2985690201989283.5,1.222944451083691e+16,254633696478722.4,284004447743609.56,13438747074581.996,26037208305780.734,381390673493756.0,8284249535751168.0
3.3670905717701234,3001832282277763.0,1.2757083561007864e+16,256010368979121.75,285539912705115.6,14223326527167.63,27559964609674.81,403698612531086.25,8768219093377947.0
3.5344323832055258,3016945289983127.0,1.3294304805300164e+16,257299277331531.62,286977490352553.56,15024499631978.732,29115225863595.527,426483045703589.3,9262459976433818.0
3.7051210308696363,3031121525491011.0,1.3841361959827482e+16,258508293346768.44,288325960471654.44,15842485776107.904,30703436888672.363,449750508932969.06,9767109748920296.0
3.879223451487029,3044442774061509.5,1.4398506936886296e+16,259644392056309.44,289593102629699.0,16677520549865.39,32325074732068.2,473508011048917.44,1.0282316061807916e+16
4.0568079205167695,3056981762283048.5,1.4965990720839772e+16,260713775925525.03,290785834716135.8,17529854436092.41,33980646170662.2,497762997267568.3,1.0808235850040754e+16
4.237944078927105,3068803378382364.5,1.5544064112696536e+16,261721978927451.28,291910329020761.2,18399751726974.062,35670685656025.59,522523319134606.06,1.1345034669848324e+16
4.422702960505647,3079965700092025.5,1.6132978368699564e+16,262673954204163.44,292972110006394.3,19287489627750.344,37395753622265.625,547797209784489.06,1.1892886151362466e+16
4.61115701971576,3090520864719590.5,1.6732985752819618e+16,263574148270365.9,293976137071495.25,20193357514863.316,39156435094043.76,573593263597705.9,1.245197154655155e+16
4.803380160110075,3100515809077589.0,1.734434001890656e+16,264426564118097.8,294926874933686.4,21117656322424.51,40953338544353.07,599920419517717.9,1.3022479356392682e+16
4.9994477633122765,3109992901501910.5,1.7967296835070112e+16,265234815118233.03,295828353748527.56,22060698035871.06,42787094961268.04,626787947430350.2,1.3604605024273956e+16
5.199436718578522,3118990483932991.0,1.8602114160387356e+16,266002171251710.38,296684220673292.6,23022805275616.46,44658357090501.25,654205437119952.2,1.419855068504328e+16
5.403425452950093,3127543338678782.5,1.924905258210262e+16,266731598917278.2,297497784266341.8,24004310956634.855,46567798826657.445,682182789405393.2,1.4804524961051548e+16
5.611493962009095,3135683091815605.0,1.99083756199639e+16,267425795335412.12,298272052859366.3,25005558012424.062,48516114730922.95,710730209129877.0,1.5422742798080234e+16
5.823723841249277,3143438563055154.0,2.058035000313105e+16,268087218386617.12,299009767837389.4,26026899173804.36,50504019656821.914,739858199735717.6,1.6053425335285576e+16
6.040198318074262,3150836070196948.5,2.1265245924132304e+16,268718112576569.6,299713432598860.3,27068696794644.066,52532248468830.04,769577559201354.0,1.6696799804295082e+16
6.261002284435747,3157899694904741.0,2.1963337273567076e+16,269320531702770.97,300385337836796.1,28131322717921.14,54601555841192.336,799899377155375.8,1.7353099453408314e+16
6.486222330124463,3164651515423930.0,2.267490185863539e+16,269896358701787.84,301027583675310.5,29215158176615.297,56712716126385.09,830835033013070.8,1.8022563493518296e+16
6.715946776726952,3171111810942237.0,2.340022160806196e+16,270447323078091.66,301642099108773.7,30320593724807.63,58866523284380.64,862396195005990.6,1.8705437062917676e+16
6.950265712261491,3177299241545477.5,2.413958276557484e+16,270975016251530.3,302230659119546.6,31448029195094.902,61063790865282.24,894594819995882.4,1.9401971208602036e+16
7.18927102650672,3183231007102339.5,2.4893276073756924e+16,271480905107769.25,302794899791399.3,32597873679030.605,63305352039069.125,927443153981369.6,2.0112422882055904e+16
7.433056447036854,3188922987901106.5,2.566159694980953e+16,271966343992455.28,303336331687140.0,33770545527802.363,65592059667161.83,960953733220008.8,2.0837054947813836e+16
7.681717575977592,3194389869436873.5,2.6444845654539696e+16,272432585353652.72,303856351718606.8,34966472370773.473,67924786411328.14,995139385900247.0,2.1576136203348252e+16
7.935351927497144,3199645253393726.5,2.7243327455686416e+16,272880789206928.72,304356253703503.2,36186091149866.016,70304424876124.65,1030013234307698.6,2.232994140904858e+16
8.194058966047088,3204701756570631.5,2.8057352786545636e+16,273312031572218.38,304837237775415.75,37429848168052.57,72731887781643.8,1065588697438486.6,2.3098751327239216e+16
8.45794014536803,3209571099250827.0,2.8887237400717068e+16,273727312010377.38,305300418789665.44,38698199150470.22,75208108163807.66,1101879494019459.9,2.3882852769332468e+16
8.72709894827539,3214264184305124.0,2.973330252368407e+16,274127560369488.72,305746833847779.5,39991609316880.625,77734039599862.97,1138899645901027.8,2.46825386503439e+16
9.0016409272409,3218791168142441.0,3.0595875001843988e+16,274513642835856.97,306177449046425.1,41310553464369.62,80310656457069.36,1176663481793338.5,2.5498108050104476e+16
9.281673745785717,3223161524470628.5,3.1475287449523816e+16,274886367371826.4,306593165542464.3,42655516059335.39,82938954162870.9,1215185641320927.0,2.632986628059574e+16
9.567307220701432,3227384101702754.5,3.237187839445022e+16,275246488611665.8,306994825013547.0,44026991337934.78,85619949495084.67,1254481079374494.2,2.717812495891468e+16
9.85865336511546,3231467174735303.5,3.3285992422082656e+16,275594712277452.9,307383214583350.8,45425483414270.32,88354680890859.98,1294565070741742.2,2.804320208543968e+16
10.155826432417769,3235418491731236.5,3.4217980319170348e+16,275931699168951.56,307759071271670.5,46851506395688.23,91144208773342.06,1335453215001814.0,2.892542212682763e+16
10.458942961066125,3239245316460907.5,3.51681992168499e+16,276258068774650.2,308123086021970.7,48305584504641.62,93989615895131.5,1377161441670149.2,2.9825116103522404e+16
10.768121820287448,3242954466685198.5,3.613701273356428e+16,276574402545250.1,308475907352455.1,49788252206634.87,96892007697769.97,1419706015582773.8,3.0742621681494276e+16
11.083484256693197,3246552349005712.0,3.712479111805331e+16,276881246865856.66,308818144671086.1,51300054343829.15,99852512686601.66,1463103542510567.8,3.167828326796961e+16
11.405153941827061,3250044990555756.5,3.813191139263455e+16,277179115758736.75,309150371290094.06,52841546273935.46,102872282820457.33,1507370974995661.2,3.263245211093986e+16
11.733257020663602,3253438067861373.0,3.915875749697637e+16,277468493344718.44,309473127171282.44,54413294014064.766,105952493915704.0,1552525618403494.5,3.3605486402265732e+16
12.067922161076874,3256736933163038.5,4.0205720432537576e+16,277749836088034.4,309786921429810.5,56015874389245.24,109094346064278.23,1598585137185090.2,3.459775138421812e+16
12.409280604298411,3259946638455336.5,4.127319840783343e+16,278023574846533.88,310092234620877.2,57649875185343.31,112299064065390.86,1645567561345234.0,3.560961945931472e+16
12.75746621638438,3263071957472269.0,4.236159698467236e+16,278290116746698.12,310389520831019.0,59315895306158.42,115567897870651.83,1693491293113089.2,3.664147030333244e+16
13.112615540712067,3266117405820787.0,4.3471329225491944e+16,278549846900717.5,310679209593240.5,61014544934480.484,118902123042412.48,1742375113812505.5,3.769369098138772e+16
13.474867851526309,3269087259442194.5,4.460281584191204e+16,278803129980971.47,310961707643101.25,62746445696923.484,122303041225181.19,1792238190930201.8,3.8766676066993496e+16
13.844365208556836,3271985571561943.0,4.5756485344611576e+16,279050311665581.38,311237400531009.25,64512230832362.5,125771980629995.67,1843100085380301.0,3.9860827764010376e+16
14.221252512727972,3274816188270650.0,4.693277419462491e+16,279291719967238.94,311506654104322.2,66312545363820.71,129310296531684.45,1894980758964560.0,4.097655603142264e+16
14.605677562982532,3277582762864339.5,4.813212695614796e+16,279527666456205.03,311769815871409.9,68148046273661.74,132919371778977.6,1947900582027909.5,4.2114278710875496e+16
14.997791114242183,3280288769058151.5,4.935499645093317e+16,279758447387239.4,312027216258576.8,70019402681957.14,136600617317457.14,2001880341309563.5,4.3274421656920184e+16
15.397746936527026,3282937513176273.0,5.060184391434766e+16,279984344739212.25,312279169769578.44,71927296027906.03,140355472725368.58,2056941247990172.8,4.44574188699192e+16
15.805701875257567,3285532145409943.0,5.187313915316339e+16,280205627175245.72,312525976056519.5,73872420254192.4,144185406762332.38,2113104945936027.8,4.5663712631569096e+16
16.221815912762718,3288075670226594.0,5.3169360705138744e+16,280422550930446.94,312767920909979.4,75855481994173.39,148091917931026.0,2170393520141559.5,4.6893753643005e+16
16.64625223101797,3290570956004427.0,5.449099600045197e+16,280635360633594.7,313005277175471.7,77877200761795.0,152076535051916.2,2228829505371742.5,4.8148001165453064e+16
17.079177275638333,3293020743959708.5,5.583854152503574e+16,280844290068501.06,313238305602633.0,79938309144135.34,156140817851151.8,2288435895006270.5,4.942692316340337e+16
17.5207608211511,3295427656427517.0,5.721250298586255e+16,281049562880229.88,313467255632894.0,82039552996485.98,160286357561732.0,2349236150087625.0,5.0730996450276024e+16
17.97117603757412,3297794204550632.5,5.861339547822444e+16,281251393230844.75,313692366130869.1,84181691639871.8,164514777538094.75,2411254208575431.0,5.206070683655866e+16
18.430599558325603,3300122795426266.5,6.0041743655047976e+16,281449986408912.12,313913866064160.56,86365498060926.11,168827733884267.16,2474514494809771.5,5.341654928039379e+16
18.899211549492115,3302415738755590.5,6.149808189827994e+16,281645539396607.9,314131975135878.25,88591759114023.39,173226916095754.78,2539041929186142.5,5.4799028040595944e+16
19.37719578048196,3304675253036865.0,6.298295449237846e+16,281838241397894.0,314346904373736.56,90861275725589.72,177714047715339.03,2604861938045287.0,5.620865683208382e+16
19.864739696091597,3306903471339094.0,6.4496915799940296e+16,282028274330924.25,314558856679263.56,93174863100492.75,182290887002975.6,2672000463780906.0,5.764595898370659e+16
20.36203449001343,3309102446690147.5,6.604053043948989e+16,282215813287567.2,314768027340322.6,95533350930425.8,186959227619999.0,2740483975168905.5,5.911146759845252e+16
20.869275179813698,3311274157109715.5,6.761437346545732e+16,282401026962643.75,314974604509856.44,97937583604195.42,191720899327840.22,2810339477921497.5,6.0605725716021496e+16
21.38666068340997,3313420510315294.0,6.92190305503648e+16,282584078055268.25,315178769653531.25,100388420419814.58,196577768701485.5,2881594525470156.5,6.212928647774917e+16
21.91439389707817,3315543348126543.0,7.0855098169241304e+16,282765123644483.5,315380697968690.4,102886735798309.62,201531739857903.7,2954277229981209.0,6.368271329386418e+16
22.452681775019734,3317644450591387.5,7.25231837862826e+16,282944315541143.8,315580558776831.06,105433419499143.17,206584755199692.1,3028416273608121.5,6.526658001306634e+16
23.00173541052013,3319725539855114.0,7.422390604376944e+16,283121800617897.0,315778515891645.4,108029376837149.14,211738796174180.62,3104040919984886.5,6.688147109440867e+16
23.561770118730532,3321788283791950.5,7.595789495325475e+16,283297721118899.0,315974727964458.5,110675528900876.56,216995884048265.62,3181181025964654.5,6.852798178146554e+16
24.133005521105144,3323834299417025.0,7.772579208902872e+16,283472214950800.4,316169348808780.5,113372812772235.34,222358080699239.03,3259867053608325.5,7.0206718278772424e+16
24.715665631527248,3325865156094902.5,7.95282507838697e+16,283645415956393.8,316362527705515.94,116122181747326.38,227827489421883.75,3340130082427758.5,7.1918297930516056e+16
25.309978944157795,3327882378560043.0,8.136593632707811e+16,283817454172198.75,316554409690266.2,118924605558348.9,233406255752129.72,3422001821888328.0,7.36633494014567e+16
25.91617852304095,3329887449762585.5,8.323952616480024e+16,283988456071177.8,316745135824030.7,121781070596446.33,239096568307561.1,3505514624175879.5,7.54425128600625e+16
26.53450209350177,3331881813552494.0,8.514971010263718e+16,284158544791642.06,316934843448526.25,124692580135383.17,244900659645069.8,3590701497233219.0,7.72564401638306e+16
27.165192135371807,3333866877213488.5,8.709719051053134e+16,284327840353364.25,317123666427219.75,127660154555903.94,250820807135975.1,3677596118071262.0,7.910579504677406e+16
27.808495978079243,3335844013857684.5,8.908268252992706e+16,284496459861803.6,317311735373113.44,130684831570644.02,256859333858921.9,3766232846360418.5,8.099125330904418e+16
28.464665897640828,3337814564690848.0,9.110691428319e+16,284664517701291.56,317499177864214.06,133767666449443.56,263018609510873.94,3856646738307550.0,8.291350300866568e+16
29.133959215593645,3339779841157286.5,9.31706270852751e+16,284832125717963.1,317686118647562.9,136909732244915.48,269301051336552.25,3948873560824358.0,8.487324465534642e+16
29.816638399905518,3341741126972982.5,9.527457565762254e+16,284999393393154.8,317872679832635.5,140112120018108.2,275709125076639.16,4042949805992866.5,8.687119140633626e+16
30.51297116790363,3343699680054777.0,9.741952834426546e+16,285166428007927.5,318058981074837.75,143375939064096.03,282245345935108.56,4138912705834097.0,8.890806926429464e+16
31.223230591261704,3345656734352696.5,9.960626733012059e+16,285333334799341.94,318245139749813.9,146702317137324.7,288912279566028.94,4236800247385872.0,9.09846172771293e+16
31.947695203086937,3347613501592341.0,1.0183558886143995e+17,285500217109054.94,318431271119174.75,150092400676534.4,295712543080210.06,4336651188096193.5,9.310158773976626e+16
32.686649107148675,3349571172933355.0,1.0410830346839037e+17,285667176524758.75,318617488488259.3,153547355029065.66,302648806072043.44,4438505071538399.5,9.525974639780443e+16
33.44038208929165,3351530920549812.0,1.0642523618972736e+17,285834313014970.75,318803903356463.9,157068364674353.6,309723791666948.0,4542402243454742.0,9.745987265301027e+16
34.20918973107749,3353493899137890.0,1.0878722679952358e+17,286001725057610.6,318990625560653.7,160656633446403.16,316940277589759.7,4648383868135028.0,9.970275977059622e+16
34.993373525699035,3355461247355813.5,1.1119513003591267e+17,286169509762803.3,319177763412137.8,164313384755034.44,324301097254496.0,4756491945137151.0,1.0198921508823526e+17
35.793240996213015,3357434089200568.0,1.1364981583180176e+17,286337762990295.6,319365423827613.3,168039861805657.88,331809140875873.7,4866769326356530.0,1.0432006022674523e+17
36.60910581613728,3359413535325817.5,1.1615216954749912e+17,286506579461856.56,319553712454543.44,171837327817368.5,339467356602985.7,4979259733451552.0,1.0669613130238502e+17
37.44128793246003,3361400684305060.5,1.1870309220520867e+17,286676052868996.2,319742733791297.8,175707066239089.7,347278751675559.44,5094007775632168.0,1.0911827914069634e+17
38.29011369110923,3363396623843517.0,1.213035007253245e+17,286846275976332.4,319932591302437.7,179650380963526.53,355246393603207.06,5211058967819476.0,1.1158736949181614e+17
39.15591596493141,3365402431942595.0,1.2395432816446802e+17,287017340720889.6,320123387529476.5,183668596538656.25,363373411368104.56,5330459749183275.0,1.1410428324718509e+17
40.03903428423004,3367419178019829.0,1.2665652395519491e+17,287189338307624.3,320315224197417.06,187763058376480.28,371662996651525.06,5452257502065997.0,1.1666991665757616e+17
40.93981496991464,3369447923987631.5,1.2941105414729912e+17,287362359301421.1,320508202317360.25,191935132958745.0,380118405084675.6,5576500571300266.0,1.19285181552349e+17
41.85861126931294,3371489725293547.0,1.3221890165063429e+17,287536493715806.1,320702422285453.1,196186208039333.38,388742957524283.7,5703238283928772.0,1.2195100555984717e+17
42.7957834946992,3373545631924616.0,1.350810664793691e+17,287711831098613.75,320897983978433.0,200517692843018.06,397540041353385.9,5832520969334091.0,1.2466833232883712e+17
43.751699164593184,3375616689378585.5,1.3799856599758411e+17,287888460614802.94,321094986846006.0,204931018260235.56,406513111807792.06,5964399979787351.0,1.2743812175088931e+17
