t(s),Total solute volume 1,Total retention volume 1,Total 1 volume 1,Total 2 volume 1,Total 3 volume 1,Total 4 volume 1,Total 5 volume 1,Total 6 volume 1
0.1,964857416365797.9,1154672529873703.2,88762465329957.31,101052648177948.16,0.0,0.0,0.0,0.0
0.202,1453135209171752.8,1739835792752352.2,133681787346063.31,152191567320623.94,1146636375.3829744,2288494399.4789195,35141111076.33815,788652672062.6265
0.30604000000000003,1824743669323886.5,2185821420317230.8,167868064640508.7,191111327766998.47,2908467815.8275256,5804818131.261569,89136649381.45285,2000508650505.9011
0.41216080000000005,2138809608679156.0,2563301044483835.5,196760693406799.22,224004473132957.62,5164788045.002434,10308062028.059998,158287108973.7251,3552509305873.5327
0.5204040160000001,2417484824768509.0,2898745559045730.5,222397537631088.1,253191033144886.9,7861829142.311305,15690915052.210964,240944628845.24387,5407666128208.007
0.6308120963200001,2671807447393283.0,3205343680640381.0,245794054730657.9,279827066982981.22,10970584097.549198,21895484834.19199,336220222843.6107,7546025241684.255
0.7434283382464002,2908193067946566.0,3490761049571195.5,267540449746933.75,304584500364635.8,14474308126.102583,28888352378.264915,443600715367.9171,9956068137186.182
0.8582969050113283,3130751278721901.5,3759908792213554.5,288014786359392.0,327893744233037.1,18363381915.77139,36650319967.97612,562791310515.4065,12631177886824.686
0.9754628431115548,3342297707858759.5,4016152825336600.5,307476089468306.44,350049688464051.0,22632779721.10004,45171357912.33326,693637994876.7794,15567897412976.865
1.094972099973786,3544859200343702.0,4261917408409001.5,326110819534497.6,371264611112993.5,27280666420.574677,54447804512.381775,836084540651.2217,18764964406225.914
1.2168715419732616,3739951181584233.5,4499016463797783.0,344058388758526.1,391697227602307.94,32307553837.959557,64480682224.865845,990146648956.2443,22222730967695.5
1.3412089728127268,3928741259467193.5,4728848975233816.0,361426211721190.5,411469825296333.7,37715761873.5878,75274622175.18175,1155895434859.5112,25942792930190.312
1.4680331522689813,4112151289124832.5,4952520871650769.0,378299094874808.9,430678953075618.0,43509058165.15268,86837144985.11945,1333446383920.2834,29927741988437.62
1.597393815314361,4290923984810348.0,5170924563359935.0,394745364530847.94,449402397814894.6,49692408383.36393,99178162409.17561,1522951699426.6245,34180993933630.184
1.729341691620648,4465668037206578.5,5384792806833467.0,410821017445804.2,467703909665297.75,56271798281.96395,112309622180.54051,1724594848732.402,38706666246592.88
1.863928525453061,4636889636908975.0,5594736336232211.0,426572620837333.75,485636503611071.3,63254104070.03863,126245249300.33629,1938586590557.2227,43509488930908.41
2.001207095962122,4805015089738514.0,5801270858507936.0,442039392889520.3,503244828044705.9,70646996375.50395,141000354369.30252,2165162031776.257,48594738452680.516
2.1412312378813647,4970407414593818.0,6004836864550505.0,457254729679286.7,520566903113869.3,78458868203.61214,156591689809.6479,2404578419601.1953,53968188185910.99
2.284055862638992,5133378768517046.0,6205814459305817.0,472247348225588.06,537635422038895.25,86698780446.86108,173037341116.7165,2657113471671.466,59636070931058.28
2.4297369798917723,5294199911144840.0,6404534658300143.0,487042157175575.44,554478742355460.7,95376420504.77301,190356644275.9315,2923064107933.888,65605050451545.13
2.578331719489608,5453107525792093.0,6601288126334245.0,501660930310777.5,571121652675439.8,104502070881.34737,208570123093.7062,3202745488316.7983,71882199873655.27
2.7298983538794,5610309960789941.0,6796332031223973.0,516122834723932.7,587585973995890.4,114086585506.57623,227699441944.50992,3496490287131.356,78474985399620.16
2.884496320956988,5765991787704449.0,6989895486049692.0,530444850154224.7,603891037096071.6,124141372131.50038,247767370639.93915,3804648153615.918,85391254198545.48
3.0421862473761276,5920317460633959.0,7182183919137332.0,544642105625901.6,620054065787544.9,134678379568.70282,268797758968.72766,4127585320985.2886,92639225630401.95
3.2030299723236504,6073434283567506.0,7373382618803476.0,558728152431657.44,636090487695258.9,145710088851.4324,290815519057.95685,4465684335580.791,100227485165558.95
3.3670905717701234,6225474838789275.0,7563659635434975.0,572715187534736.0,652014188592222.9,157249507602.97827,313846614141.6831,4819343884411.465,108164980512589.02
3.5344323832055258,6376558990932050.0,7753168177656857.0,586614237932657.2,667837722290528.6,169310167068.6272,337918052643.94055,5188978704301.916,116461019577621.28
3.7051210308696363,6526795553589536.0,7942048606287167.0,600435313977949.2,683572485191076.1,181906121382.39465,363057886722.3006,5575019559535.749,125125269960972.31
3.879223451487029,6676283685143680.0,8130430105604631.0,614187537787842.8,699228862473099.2,195051948731.2072,389295214598.7785,5977913277657.044,134167759759015.56
4.0568079205167695,6825114065461047.0,8318432093551689.0,627879251494966.0,714816351333379.1,208762754148.30475,416660186142.7416,6398122835209.098,143598879486796.6
4.237944078927105,6973369893873357.0,8506165419083744.0,641518109056990.4,730343665508018.2,223054173720.94455,445184011276.9216,6836127486824.659,153429384973550.34
4.422702960505647,7121127740345595.0,8693733384718920.0,655111154560191.6,745818824418018.1,237942380039.01974,474898970860.4749,7292422932353.399,163670401111859.72
4.61115701971576,7268458275224366.0,8881232624575382.0,668664889352958.2,761249229598184.1,253444088743.83942,505838429768.2042,7767521517713.819,174333426363643.1
4.803380160110075,7415426897933976.0,9068753862187354.0,682185329882956.8,776641730542531.9,269576566062.18762,538036851936.6851,8261952465948.799,185430337943944.6
4.9994477633122765,7562094236970489.0,9256382569790940.0,695678053698114.9,792002677086352.6,286357635631.9549,571529814910.9299,8776262416104.427,196973452169354.78
5.199436718578522,7708516799918137.0,9444199534458222.0,709148259229793.0,807337987419861.6,303805694100.05334,606354037345.8058,9311014589166.602,208975313569831.75
5.403425452950093,7854747119118088.0,9632281365851226.0,722600779216820.9,822653163442154.9,321939711622.831,642547385451.6133,9866790763443.11,221449026213648.6
5.611493962009095,8000834291998468.0,9820700934011506.0,736040130397844.6,837953347286267.6,340779248845.26025,680148903284.518,10444190494099.148,234408045682695.44
5.823723841249277,8146824253646421.0,1.0009527757640638e+16,749470538590603.2,853243349882991.5,360344466669.12885,719198833152.5916,11043831736625.697,247866240484174.47
6.040198318074262,8292760056854658.0,1.0198828347867864e+16,762895964454957.4,868527680291077.1,380656138204.0734,759738639480.6191,11666351213318.314,261837900276169.56
6.261002284435747,8438682119809593.0,1.0388666513712164e+16,776320126279036.1,883810571638399.8,401735661303.0893,801811033842.0787,12312404797677.584,276337744492318.38
6.486222330124463,8584628445789760.0,1.0579103634451672e+16,789746520190509.8,899096004131694.9,423605071656.9241,845460001107.1772,12982667915948.088,291380931351012.9
6.715946776726952,8730634818565136.0,1.0770198903301618e+16,803178438132412.4,914387725521365.1,446287056426.04205,890730826664.4648,13677835965143.818,306983067234476.5
6.950265712261491,8876734976625875.0,1.0962009546131924e+16,816618983891403.8,929689269349011.4,469804968392.4482,937670124680.7423,14398624747018.408,323160216425546.75
7.18927102650672,9022960768904204.0,1.1154591018401908e+16,830071087423457.8,945003971256706.6,494182840616.657,986325867369.8824,15145770917528.291,339928911192034.06
7.433056447036854,9169342294265430.0,1.134799718302671e+16,843537517686406.5,960334983596337.8,519445401587.63715,1036747415246.324,15920032451417.904,357306162210300.7
7.681717575977592,9315908026721246.0,1.1542280471505772e+16,857020894158987.4,975685288543591.0,545618090855.6969,1088985548343.2639,16722189121619.227,375309469321158.1
7.935351927497144,9462684928045388.0,1.1737492030318164e+16,870523697200968.6,991057709892564.8,572727075140.1364,1143092498379.2607,17553042993215.633,393956832612468.5
8.194058966047088,9609698549243794.0,1.1933681854317184e+16,884048277387935.6,1006454923683064.5,600799264904.9924,1199121981859.9917,18413418931767.027,413266763823865.94
8.45794014536803,9756973122136850.0,1.2130898908626862e+16,897596863936441.6,1021879467792313.2,629862331397.6029,1257129234104.5708,19304165125833.86,433258298069956.6
8.72709894827539,9904531642147044.0,1.2329191240343738e+16,911171572320102.8,1037333750605578.6,659944724145.7102,1317171044188.176,20226153623571.918,453951005879115.4
9.0016409272409,1.0052395943245522e+16,1.2528606081184044e+16,924774411164320.4,1052820058865548.9,691075688909.973,1379305790794.4514,21180280883299.746,475365005545649.7
9.281673745785717,1.0200586765890026e+16,1.2729189942070696e+16,938407288496263.8,1068340564787699.9,723285286089.3574,1443593478972.9832,22167468337964.26,497520975793666.9
9.567307220701432,1.0349123818685356e+16,1.2930988700533228e+16,952072017417365.5,1083897332518208.5,756604409577.7256,1510095777798.3643,23188662973453.45,520440168751481.6
9.85865336511546,1.0498025834408038e+16,1.313404768168841e+16,965770321257321.9,1099492324001595.0,791064806070.4891,1578876058928.6758,24244837920720.6,544144423235739.1
10.155826432417769,1.064731062096161e+16,1.3338411733478192e+16,979503838261735.6,1115127404317410.4,826699094820.59,1649999436062.0535,25336993061701.71,568656178344850.8
10.458942961066125,1.0796995107761592e+16,1.3544125296762972e+16,993274125859357.5,1130804346538324.2,863540787843.6633,1723532805290.945,26466155649018.418,593998487361552.2
10.768121820287448,1.0947095387993782e+16,1.3751232470800408e+16,1007082664549604.1,1146524836155936.8,901624310572.4004,1799544886354.3223,27633380939471.36,620195031964665.4
11.083484256693197,1.109762675713826e+16,1.3959777074579846e+16,1020930861446635.8,1162290475115552.8,940985022960.4958,1878106264788.5474,28839752841335.527,647270136750328.0
11.405153941827061,1.1248603748109052e+16,1.4169802704432124e+16,1034820053512023.2,1178102785496450.8,981659241036.8136,1959289434978.296,30086384575476.945,675248784063110.8
11.733257020663602,1.1400040163321384e+16,1.4381352788287494e+16,1048751510504793.8,1193963212870411.2,1023684258910.4617,2043168844108.9758,31374419350315.973,704156629137550.6
12.067922161076874,1.155194910396512e+16,1.4594470636916782e+16,1062726437674437.5,1209873129367587.2,1067098371227.7605,2129820937022.6323,32705031050664.465,734020015550729.9
12.409280604298411,1.170434299673356e+16,1.4809199492454462e+16,1076745978219866.0,1225833836475928.0,1111940896082.0083,2219324201979.2544,34079424940469.742,764865990986583.8
12.75746621638438,1.1857233618232546e+16,1.5025582574472988e+16,1090811215534918.9,1241846567597619.5,1158252198377.1255,2311759217325.734,35498838379496.734,796722323312679.9
13.112615540712067,1.2010632117270692e+16,1.5243663123850096e+16,1104923175258944.5,1257912490383594.2,1206073713646.2288,2407208699074.582,36964541553983.92,829617516970176.1
13.474867851526309,1.2164549035212164e+16,1.5463484444647276e+16,1119082827149214.0,1274032708865171.2,1255447972326.1897,2505757549394.6675,38477838221304.62,863580829677715.0
13.844365208556836,1.2318994324557166e+16,1.5685089944196508e+16,1133291086790181.0,1290208265400012.8,1306418624489.1729,2607492906016.0537,40040066468667.92,898642289449972.0
14.221252512727972,1.2473977365896904e+16,1.5908523171573128e+16,1147548817153308.8,1306440142447924.2,1359030465032.1216,2712504192550.8364,41652599485889.54,934832711931501.9
14.605677562982532,1.2629506983379462e+16,1.6133827854617726e+16,1161856830019826.8,1322729264190596.2,1413329459325.1057,2820883169732.038,43316846352259.33,972183718046507.8
14.997791114242183,1.2785591458807388e+16,1.6361047935652694e+16,1176215887277667.0,1339076498008115.2,1469362769319.2046,2932723987571.979,45034252837533.86,1010727751965091.4
15.397746936527026,1.2942238544479568e+16,1.6590227606028414e+16,1190626702102844.0,1355482655823927.8,1527178780114.678,3048123238441.6167,46806302217072.66,1050498099386437.0
15.805701875257567,1.3099455474878328e+16,1.6821411339620298e+16,1205089940034632.5,1371948495328899.5,1586827126989.873,3167180011072.0293,48634516101136.48,1091528906139258.4
16.221815912762718,1.3257248977295414e+16,1.705464392538919e+16,1219606219953072.2,1388474721094133.8,1648358722891.2234,3289995945478.648,50520455278360.81,1133855197099827.5
16.64625223101797,1.3415625281481194e+16,1.7289970499105806e+16,1234176114966696.0,1405061985581650.2,1711825786384.5237,3416675288809.0073,52465720573410.516,1177512895427649.5
17.079177275638333,1.357459012839647e+16,1.7527436574334938e+16,1248800153217612.2,1421710890060929.8,1777281870067.4878,3547324952113.807,54471953718819.195,1222538842118894.5
17.5207608211511,1.3734148778138048e+16,1.776708807276348e+16,1263478818610657.8,1438421985439004.8,1844781889443.3455,3682054568041.2153,56540838241006.6,1268970815877297.0
17.97117603757412,1.3894306017104918e+16,1.8008971353953222e+16,1278212551472642.2,1455195773011021.0,1914382152255.12,3820976549453.674,58674100360465.086,1316847553302463.5
18.430599558325603,1.4055066164466866e+16,1.8253133244590268e+16,1293001749147415.2,1472032705137668.0,1986140388279.847,3964206148965.8833,60873509906098.29,1366208769394966.8
18.899211549492115,1.4216433077991654e+16,1.849962106729954e+16,1307846766531966.5,1488933185855515.2,2060115779581.9734,4111861519402.6294,63140881243684.664,1417095178377764.5
19.37719578048196,1.4378410159284624e+16,1.8748482669086804e+16,1322747916558413.0,1505897571425768.5,2136368991224.7363,4264063775174.164,65478074218436.82,1469548514833140.2
19.864739696091597,1.4541000358489448e+16,1.8999766449465372e+16,1337705470626478.8,1522926170826567.8,2214962202438.201,4420937054566.668,67886995111616.8,1523611555154258.0
20.36203449001343,1.4704206178496262e+16,1.9253521388323216e+16,1352719658990604.0,1540019246193754.2,2295959138242.3003,4582608582944.666,70369597611158.14,1579328139310235.5
20.869275179813698,1.4868029678700108e+16,1.950979707357838e+16,1367790671105717.8,1557177013214489.0,2379425101523.0605,4749208736861.928,72927883796243.31,1636743192923439.2
21.38666068340997,1.5032472478350598e+16,1.9768643728672044e+16,1382918655935372.8,1574399641478065.5,2465427005559.7686,4920871109076.403,75563905135769.61,1695902749657582.5
21.91439389707817,1.519753575952989e+16,2.003011223994046e+16,1398103722225734.8,1591687254787820.0,2554033407000.721,5097732574465.034,78279763500634.66,1756853973914898.8
22.452681775019734,1.5363220269795818e+16,2.0294254183908972e+16,1413345938748692.8,1609039931437931.8,2645314539284.86,5279933356832.814,81077612189760.34,1819645183840620.5
23.00173541052013,1.552952632452325e+16,2.056112185454484e+16,1428645334517309.2,1626457704458670.2,2739342346506.245,5467617096610.425,83959656969768.56,1884325874632683.8
23.561770118730532,1.5696453934692134e+16,2.0830768286566964e+16,1444001910539373.5,1643940574990260.0,2836190540218.6294,5660930961558.707,86928156813573.4,1950946588029867.2
24.133005521105144,1.5864002305604882e+16,2.110324729481626e+16,1459415593711002.0,1661488459821054.0,2935934544673.2637,5860025548662.555,89985426219014.8,2019559549366966.0
24.715665631527248,1.6032170593761622e+16,2.13786134891555e+16,1474886306431743.5,1679101270598785.2,3038651665542.698,6065055204485.092,93133834421825.34,2090217777071501.8
25.309978944157795,1.620095740425343e+16,2.1656922306219336e+16,1490413920376370.2,1696778861230152.8,3144421036922.0747,6276177930473.16,96375807725552.14,2162975713666420.0
25.91617852304095,1.637036091825049e+16,2.1938230036945056e+16,1505998268220877.2,1714521041223233.8,3253323679404.816,6493555496279.969,99713830300936.22,2237889099773859.0
26.53450209350177,1.6540378894154458e+16,2.222259385426468e+16,1521639143748473.5,1732327575808177.0,3365442536525.973,6717353512642.624,103150445305157.73,2315014999199298.5
27.165192135371807,1.6711008668644554e+16,2.2510071840972324e+16,1537336301945859.5,1750198186046797.0,3480862511619.8633,6947741505092.537,106688256013880.38,2394411824304515.5
27.808495978079243,1.6882247157641948e+16,2.2800723017789676e+16,1553089459091896.8,1768132548933523.5,3599670505086.7983,7184892988489.145,110329926965942.39,2476139361662790.0
28.464665897640828,1.705409085721328e+16,2.3094607371651344e+16,1568898292840765.5,1786130297490070.0,3721955452063.5312,7428985542365.969,114078185120528.34,2560258797992279.5
29.133959215593645,1.7226535844435468e+16,2.3391785884231012e+16,1584762442301507.8,1804191020856000.0,3847808360491.445,7680200887077.766,117935821026648.34,2646832746363795.5
29.816638399905518,1.7399577778241832e+16,2.36923205607288e+16,1600681508115863.2,1822314264377324.8,3977322349576.6426,7938724960737.109,121905690004746.78,2735925272678719.0
30.51297116790363,1.7573211900269102e+16,2.3996274458939104e+16,1616655052536204.2,1840499529695246.5,4110592688635.4487,8204747996927.968,125990713340247.12,2827601922412726.0
31.223230591261704,1.7747433035724936e+16,2.4303711718616376e+16,1632682599505322.0,1858746274836984.8,4247716836318.829,8478464603183.5205,130193879488839.33,2921929747620819.0
31.947695203086937,1.7922235594293176e+16,2.461469759115612e+16,1648763634739732.5,1877053914310598.2,4388794480208.868,8760073840214.885,134518245293304.7,3018977334198904.0
32.686649107148675,1.80976135710947e+16,2.4929298469605532e+16,1664897605818037.2,1895421819205625.2,4533927576780.028,9049779301876.379,138966937211659.5,3118814829396877.5
33.44038208929165,1.827356054772009e+16,2.5247581919019496e+16,1681083922275967.0,1913849317301232.0,4683220391717.701,9347789195853.27,143543152556393.53,3221513969578249.5
34.20918973107749,1.8450069693349496e+16,2.556961670717321e+16,1697321955709361.0,1932335693183494.5,4836779540586.1875,9654316425056.018,148250160744572.0,3327148108220616.0
34.993373525699035,1.8627133765974164e+16,2.589547283564372e+16,1713611039886568.2,1950880188373336.2,4994714029837.929,9969578669705.324,153091304558545.12,3435792244151531.0
35.793240996213015,1.880474511373333e+16,2.6225221571270164e+16,1729950470871428.0,1969482001466543.5,5157135298155.1,10293798470090.975,158070001417017.1,3547523050013629.0
36.60910581613728,1.898289567637839e+16,2.6558935478000584e+16,1746339507157961.8,1988140288287127.5,5324157258114.656,10627203309986.467,163189744656187.2,3662418900952840.0
37.44128793246003,1.9161576986875828e+16,2.6896688449131424e+16,1762777369817858.8,2006854162055186.8,5495896338167.062,10970025700700.814,168454104820687.94,3780559903522971.5
38.29011369110923,1.9340780173158856e+16,2.723855573994498e+16,1779263242661569.2,2025622693570349.5,5672471524918.353,11322503265747.357,173866730963996.44,3902027924799526.0
39.15591596493141,1.9520495960035588e+16,2.7584614000746412e+16,1795796272413902.5,2044444911411656.8,5854004405704.767,11684878826107.986,179431351958008.4,4026906621695471.5
40.03903428423004,1.9700714671261548e+16,2.7934941310300364e+16,1812375568904658.2,2063319802154599.5,6040619211448.206,12057400486070.354,185151777811408.4,4155281470470668.0
40.93981496991464,1.98814262317818e+16,2.8289617209665016e+16,1829000205274890.5,2082246310605950.0,6232442859779.785,12440321719613.25,191031900996471.3,4287239796426553.5
41.85861126931294,2.00626201701463e+16,2.8648722736418444e+16,1845669218199137.2,2101223340056726.5,6429604998418.422,12833901457313.918,197075697783881.66,4422870803776648.0
42.7957834946992,2.0244285621101084e+16,2.9012340459269124e+16,1862381608123745.2,2120249752553574.0,6632238048789.407,13238404173748.242,203287229585137.78,4562265605683066.0
43.751699164593184,2.04264113283552e+16,2.9380554513040544e+16,1879136339521473.5,2139324369188559.5,6840477249867.468,13654099975353.684,209670644302063.16,4705517254448029.0
