t(s),Total solute volume 1,Total retention volume 1,Total 1 volume 1,Total 2 volume 1,Total 3 volume 1,Total 4 volume 1,Total 5 volume 1,Total 6 volume 1
0.1,919935341976466.9,1072551036543860.6,72903600131805.52,79712094435588.67,0.0,0.0,0.0,0.0
0.202,1385979777407529.5,1615928517448483.5,109836975566751.3,120094692122275.38,29304076.158391427,54962061.744451806,768876938.756952,16219208852.21141
0.30604000000000003,1740926617505744.0,2029786675178719.0,137966020503091.2,150850719242470.38,74352181.37427321,139453288.25870723,1950849628.1709158,41153272319.25822
0.41216080000000005,2041156397828569.2,2379857688900581.5,161758814308481.3,176865531064347.16,132070828.84888077,247709108.50078565,3465273395.301235,73100645854.05232
0.5204040160000001,2307779654905517.0,2690753502340890.0,182888337741007.9,199968348677293.75,201096174.54881954,377171526.32759905,5276363309.87974,111306386059.50732
0.6308120963200001,2551313933333151.5,2974736076570890.0,202188091628816.44,221070513872844.56,280696817.0227069,526468741.6238761,7364928718.683173,155365641802.55002
0.7434283382464002,2777872020676425.5,3238932056581463.0,220142505911339.44,240701697687531.72,370454743.4846921,694816739.3314313,9720001736.02165,205047032944.8707
0.8582969050113283,2991369797749610.5,3487906823771440.5,237061908713751.1,259201209908202.94,470134254.37211686,881773447.1404927,12335398043.979416,260220094130.20615
0.9754628431115548,3194490627275624.0,3724788837407478.0,253158952811301.97,276801563033504.8,579617386.7462573,1087117617.015512,15208022516.321545,320819529528.71564
1.094972099973786,3389166686507474.5,3951830798667330.5,268586760572256.16,293670179587710.75,698868154.8054132,1310781755.4809952,18336930954.205307,386825419028.0425
1.2168715419732616,3576843206367319.5,4170717714080853.5,283459864543313.75,309932288355427.94,827911064.4329281,1552811825.9792628,21722766347.341797,458251325558.74744
1.3412089728127268,3758634315788893.0,4382748586195965.5,297866557897671.75,325684428242708.5,966817407.0892999,1813341541.997307,25367399251.123554,535136708494.1557
1.4680331522689813,3935420257506024.0,4588949751968995.0,311876598651478.5,341002871993212.06,1115696110.3203998,2092575206.4835901,29273687721.03858,617541859242.9164
1.597393815314361,4107910829802156.5,4790148845706324.0,325546237334515.0,355949123394966.94,1274687412.4378898,2390775848.2206855,33445311348.161297,705544400079.4901
1.729341691620648,4276688353326899.0,4987024891384324.0,338921622050835.9,370573640340908.5,1443958369.4305966,2708256794.6902995,37886653368.9873,799236797149.1846
1.863928525453061,4442237690014987.5,5180143299756949.0,352041177436477.7,384918435958354.56,1623699596.4051166,3045375560.394397,42602715167.01569,898724556806.799
2.001207095962122,4604967777808910.0,5369980974253780.0,364937311256358.44,399018944585635.4,1814122867.8795888,3402529346.0226398,47599053309.03361,1004124897344.6194
2.1412312378813647,4765227434772743.0,5556944735928921.0,377637666858395.9,412905391193374.44,2015459332.2753859,3780151689.5960984,52881732696.80307,1115565760688.5457
2.284055862638992,4923317189651325.0,5741385115911610.0,390166060728913.9,426603816498550.3,2227958176.3842244,4178709961.5751715,58457291525.25866,1233185073162.2449
2.4297369798917723,5079498293393420.0,5923606861343702.0,402543196643358.44,440136857810020.7,2451885626.6662183,4598703491.720363,64332715078.51611,1357130192692.0076
2.578331719489608,5233999689967444.0,6103877062209594.0,414787218093778.94,453524353047405.6,2687524207.637754,5040662178.145265,70515416271.43391,1487557498314.3403
2.7298983538794,5387023483217357.0,6282431524818666.0,426914141529577.0,466783814442372.7,2935172200.02229,5505145471.040885,77013221432.58116,1624632090254.9885
2.884496320956988,5538749277450315.0,6459479832264977.0,438938200343058.5,479930804649108.3,3195143256.723962,5992741652.408733,83834360228.17741,1768527577364.796
3.0421862473761276,5689337662370669.0,6635209407356096.0,450872121045626.56,492979238712721.25,3467766145.4616895,6504067353.356438,90987458909.36845,1919425934663.8535
3.2030299723236504,5838933039438559.0,6809788807769726.0,462727347252769.8,505941628972272.6,3753384594.591273,7039767264.930075,98481536266.96106,2077517418001.3044
3.3670905717701234,5987665935308885.0,6983370423248277.0,474514223020906.0,518829285519516.3,4052357224.218162,7600514008.916565,106326001824.02792,2243000525924.6426
3.5344323832055258,6135654910956514.0,7156092702056764.0,486242144146073.94,531652481636291.25,4365057549.610029,8187008157.355245,114530659881.51842,2416082592298.3955
3.7051210308696363,6283008152243336.0,7328082003025405.0,497919684201370.75,544420591566921.25,4691874041.379136,8799978293.208693,123105695336.39697,2596977466111.521
3.879223451487029,6429824797801111.0,7499454147431104.0,509554699789184.2,557142205654025.94,5033210245.994188,9440181314.41579,132061700394.3743,2785909094819.269
4.0568079205167695,6576196063550974.0,7670315727749907.0,521154419644785.56,569825227727188.5,5389484944.041244,10108402678.91027,141409663080.23218,2983109276268.0747
4.237944078927105,6722206194675065.0,7840765218279131.0,532725520082046.0,582476957603754.6,5761132352.87764,10805456797.629974,151160976451.78006,3188818352654.6865
4.422702960505647,6867933278484161.0,8010893922996775.0,544274189412070.06,595104161523534.8,6148602364.7071495,11532187481.052946,161327444846.61224,3403285342323.598
4.61115701971576,7013449941832199.0,8180786788834057.0,555806183212327.25,607713132579552.4,6552360817.49505,12289468447.327547,171921290990.50922,3626768089720.4346
4.803380160110075,7158823952461568.0,8350523106958025.0,567326871982436.6,620309742824415.0,6972889796.018798,13078203886.925125,182955163896.54663,3859533432025.6167
4.9994477633122765,7304118739937547.0,8520177120319945.0,578841282427499.2,632899488409100.2,7410687960.885786,13899329079.74703,194442147498.0119,4101857381268.3555
5.199436718578522,7449393848907262.0,8689818552316131.0,590354133378234.0,645487528857718.5,7866270903.783411,14753811061.433338,206395769969.6137,4354025320960.22
5.403425452950093,7594705335106141.0,8859513068712438.0,601869867173946.4,658078721381314.4,8340171527.578793,15642649336.279108,218830013700.70526,4616332216483.546
5.611493962009095,7740106112693177.0,9029322682837528.0,613392677188368.4,670677650974377.2,8832940450.176336,16566876634.711061,231759325891.87888,4889082838629.877
5.823723841249277,7885646260020684.0,9199306112327556.0,624926532061482.1,683288656909676.2,9345146431.280628,17527559713.725574,245198629752.55484,5172591999816.916
6.040198318074262,8031373289751525.0,9369519094317226.0,636475197105940.2,695915856143830.0,9877376821.412338,18525800199.064415,259163336282.46194,5467184802622.665
6.261002284435747,8177332388271226.0,9540014664844174.0,648042253280140.4,708563164062295.4,10430238032.693243,19562735468.22047,273669356624.29498,5773196900368.988
6.486222330124463,8323566628552132.0,9710843407313674.0,659631114057415.1,721234312923967.9,11004356031.057415,20639539573.63139,288733114978.5814,6090974769564.919
6.715946776726952,8470117159979674.0,9882053674115980.0,671245040469508.1,733932868309574.9,11600376849.669004,21757424205.647068,304371562074.9557,6420875994087.9
6.950265712261491,8617023378116704.0,1.0053691784865604e+16,682887154560142.2,746662243831685.2,12218967123.428978,22917639695.0537,320602189196.7996,6763269561038.129
7.18927102650672,8764323076938496.0,1.0225802204215514e+16,694560451449462.4,759425714325839.1,12860814644.54526,24121476055.1029,337443042758.53656,7118536168251.682
7.433056447036854,8912052585703804.0,1.0398427701770964e+16,706267810180844.2,772226427710365.0,13526628939.218714,25370264063.147053,354912739436.99347,7487068543501.433
7.681717575977592,9060246892318002.0,1.0571609496266598e+16,718012003497278.1,785067415675766.6,14217141865.567007,26665376382.107845,373030481860.0027,7869271775453.483
7.935351927497144,9208939754786404.0,1.0745387385870688e+16,729795706673878.8,797951603342108.1,14933108232.97011,28008228722.124916,391816074857.0822,8265563656480.636
8.194058966047088,9358163802137920.0,1.0919799866225112e+16,741621505515942.2,810881818004024.0,15675306443.076206,29400281042.829853,411289942278.46564,8676375037465.216
8.45794014536803,9507950626013960.0,1.109488423761515e+16,753491903617247.6,823860797066857.4,16444539152.757113,30843038796.790222,431473144390.05005,9102150194751.229
8.72709894827539,9658330863961954.0,1.1270676702480382e+16,765409328960943.6,836891195264021.8,17241633959.347103,32338054214.747734,452387395853.02466,9543347209430.45
9.0016409272409,9809334275338388.0,1.1447212454322322e+16,777376139934771.1,849975591233984.2,18067444108.540962,33886927633.357746,474055084298.0688,10000438359171.016
9.281673745785717,9960989810612926.0,1.1624525758932066e+16,789394630823310.5,863116493525418.9,18922849225.365963,35491308866.20597,496499289504.96844,10473910522817.312
9.567307220701432,1.0113325674766718e+16,1.1802650028745472e+16,801467036832208.1,876316346090676.6,19808756068.67821,37152898618.948296,519743803199.48065,10964265598011.244
9.85865336511546,1.0266369385394326e+16,1.1981617891038132e+16,813595538692676.2,889577533320285.8,20726099309.667774,38873449949.482666,543813149480.1722,11472020932102.451
10.155826432417769,1.042014782604579e+16,1.216146125058419e+16,825782266888779.9,902902384665013.2,21675842334.88977,40654769774.12175,568732605888.7819,11997709766633.975
10.458942961066125,1.057468729528222e+16,1.2342211347333102e+16,838029305545024.0,916293178886546.4,22658978074.36842,42498720420.79359,594528225138.4697,12541881695706.223
10.768121820287448,1.0730013551864954e+16,1.2523898809592682e+16,850338696007524.9,929752147973084.8,23676529855.35159,44407221230.35391,621226857515.1061,13105103138538.7
11.083484256693197,1.0886151856449082e+16,1.2706553703152352e+16,862712440148176.2,943281480752091.6,24729552282.321274,46382250207.14327,648856173967.5037,13687957826564.928
11.405153941827061,1.1043127010112544e+16,1.2890205576732568e+16,875152503418016.4,956883326228819.4,25819132143.894688,48425845719.98279,677444689903.1842,14291047305411.186
11.733257020663602,1.1200963390014718e+16,1.307488350410339e+16,887660817673120.0,970559796676114.0,26946389347.27532,50540108254.842804,707021789707.102,14914991452125.436
12.067922161076874,1.1359684982447108e+16,1.3260616123179344e+16,900239283793834.0,984312970498259.0,28112477880.944122,52727202220.47951,737617752001.2714,15560429008036.307
12.409280604298411,1.1519315413511376e+16,1.3447431672364454e+16,912889774115956.6,998144894889192.6,29318586806.303055,54989357808.37749,769263775664.1575,16228018127638.82
12.75746621638438,1.1679877977634404e+16,1.3635358024392978e+16,925614134690517.9,1012057588303352.4,30565941279.01407,57328872908.387535,801992006629.1807,16918436943916.06
13.112615540712067,1.1841395664109524e+16,1.382442271788681e+16,938414187387139.4,1026053042755453.1,31855803600.799053,59748115081.50036,835835565482.5308,17632384150521.73
13.474867851526309,1.2003891181833794e+16,1.4014652986827218e+16,951291731854421.5,1040133225963952.9,33189474302.494785,62249523591.24346,870828575881.06,18370579601262.91
13.844365208556836,1.2167386982393262e+16,1.4206075788120044e+16,964248547349431.5,1054300083351414.5,34568293259.18274,64835611495.23782,907006193811.7952,19133764927336.33
14.221252512727972,1.233190528163508e+16,1.439871782741514e+16,977286394447245.9,1068555539913683.6,35993640838.23886,67508967798.50231,944404637715.2456,19922704172786.598
14.605677562982532,1.2497468079849894e+16,1.4592605583325926e+16,990407016640399.4,1082901501968722.6,37466939081.176834,70272259670.14186,983061219495.4166,20738184448669.184
14.997791114242183,1.2664097180677902e+16,1.4787765330180358e+16,1003612141837148.9,1097339858794791.0,38989652920.18295,73128234725.10504,1023014376440.1075,21581016606416.16
15.397746936527026,1.2831814208840192e+16,1.4984223159423492e+16,1016903483766647.6,1111872484166857.0,40563291430.27032,76079723372.75107,1064303704075.804,22452035930916.598
15.805701875257567,1.3000640626787628e+16,1.5182004999779404e+16,1030282743298375.5,1126501237799239.0,42189409118.0025,79129641234.01051,1106969989982.1873,23352102853840.105
16.221815912762718,1.317059775035204e+16,1.5381136636271492e+16,1043751609682443.5,1141227966701759.0,43869607247.77293,82280991628.98332,1151055248591.9805,24282103687746.23
16.64625223101797,1.3341706763475692e+16,1.5581643728190534e+16,1057311761716899.9,1156054506456050.8,45605535206.642914,85536868136.8643,1196602757002.6482,25242951381537.26
17.079177275638333,1.3513988732088604e+16,1.5783551826092928e+16,1070964868847498.6,1170982682418034.8,47398891908.780975,88900457230.14299,1243657091827.0864,26235586297829.89
17.5207608211511,1.3687464617197848e+16,1.598688638790308e+16,1084712592204981.9,1186014310852080.5,49251427240.565,92375040985.07713,1292264167111.393,27260977012834.402
17.97117603757412,1.386215528724619e+16,1.6191672794188684e+16,1098556585584502.8,1201151200001896.2,51164943547.44573,95963999870.49321,1342471273348.3328,28320121139348.605
18.430599558325603,1.4038081529793352e+16,1.63979363626713e+16,1112498496371345.1,1216395151102699.5,53141297163.694534,99670815617.02466,1394327117616.1006,29414046173486.965
18.899211549492115,1.4215264062568474e+16,1.6605702362029028e+16,1126539966416816.8,1231747959338908.0,55182399986.190186,103499074168.9542,1447881864872.6025,30543810365786.652
19.37719578048196,1.4393723543937994e+16,1.681499602504462e+16,1140682632867813.2,1247211414751194.0,57290221093.43171,107452468720.88092,1503187180436.4585,31710503617343.336
19.864739696091597,1.457348058282984e+16,1.7025842561146116e+16,1154928128953299.2,1262787303096378.0,59466788410.990715,111534802841.49803,1560296273686.5427,32915248401652.523
20.36203449001343,1.4754555748151082e+16,1.7238267168385194e+16,1169278084730634.5,1278477406663504.5,61714190424.65391,115749993686.81706,1619263943012.8281,34159200712843.434
20.869275179813698,1.4936969577733268e+16,1.7452295044893032e+16,1183734127794499.2,1294283505048925.0,64034577942.5322,120102075305.24121,1680146622052.1484,35443551041016.13
21.38666068340997,1.5120742586837042e+16,1.7667951399851722e+16,1198297883950848.8,1310207375893230.5,66430165907.4518,124595202036.94711,1743002427243.2139,36769525375405.65
21.91439389707817,1.5305895276244398e+16,1.7885261464015214e+16,1212970977858226.8,1326250795582441.8,68903235260.96573,129233652010.09506,1807891206736.2305,38138386236116.125
22.452681775019734,1.5492448139965136e+16,1.8104250499810844e+16,1227755033638493.5,1342415539915762.2,71456134860.3696,134021830736.45369,1874874590693.165,39551433735188.08
23.00173541052013,1.5680421672581166e+16,1.832494381105107e+16,1242651675458853.8,1358703384741988.5,74091283450.12427,138964274809.07733,1944016043015.6729,41010006667775.69
23.561770118730532,1.5869836376251262e+16,1.854736675228082e+16,1257662528086955.2,1375116106566425.8,76811171689.13312,144065655704.74905,2015380914538.5767,42515483634233.82
24.133005521105144,1.6060712767394544e+16,1.877154473778478e+16,1272789217420565.5,1391655483130042.0,79618364235.34557,149330783693.9462,2089036497727.491,44069284193928.65
24.715665631527248,1.6253071383071564e+16,1.8997503250275484e+16,1288033370993251.5,1408323293962380.0,82515501889.19566,154764611861.1677,2165052082920.2234,45672870051604.79
25.309978944157795,1.6446932787077694e+16,1.9225267849281828e+16,1303396618457285.0,1425121320909541.0,85505303797.4114,160372240238.4968,2243499016152.255,47327746277160.17
25.91617852304095,1.6642317575762478e+16,1.9454864179253788e+16,1318880592044810.0,1442051348638432.2,88590569718.7691,166158920055.34503,2324450758607.4546,49035462559693.5
26.53450209350177,1.6839246383586302e+16,1.96863179773976e+16,1334486927008188.8,1459115165118251.0,91774182353.37991,172130058107.3804,2407982947735.982,50797614496709.98
27.165192135371807,1.7037739888422482e+16,1.991965508125305e+16,1350217262040212.0,1476314562079907.5,95059109737.14441,178291221247.6733,2494173460081.8535,52615844919376.164
27.808495978079243,1.7237818816611958e+16,2.015490143601993e+16,1366073239674646.8,1493651335454006.5,98448407703.00992,184648141003.156,2583102475863.476,54491845254740.945
28.464665897640828,1.7439503947773428e+16,2.0392083101640496e+16,1382056506667468.8,1511127285787665.5,101945222410.70699,191206718319.52298,2674852545350.879,56427356925837.09
29.133959215593645,1.7642816119370012e+16,2.0631226259638016e+16,1398168714358714.2,1528744218640175.5,105552792946.64021,197973028437.72516,2769508657083.6396,58424172790595.43
29.816638399905518,1.7847776231028884e+16,2.087235721970951e+16,1414411519014862.0,1546503944957336.2,109274453995.63123,204953325905.2306,2867158307974.0796,60484138620504.89
30.51297116790363,1.805440524860801e+16,2.1115502426066492e+16,1430786582151074.5,1564408281423808.8,113113638586.20244,212154049725.23282,2967891575339.994,62609154619954.4
31.223230591261704,1.826272420799821e+16,2.136068846351095e+16,1447295570832508.8,1582459050792573.8,117073880911.09576,219581828646.9758,3071801190911.3755,64801176987186.54
31.947695203086937,1.847275421864586e+16,2.1607942063230028e+16,1463940157953522.0,1600658082190171.5,121158819224.69693,227243486600.33167,3178982616854.967,67062219517791.05
32.686649107148675,1.868451646677455e+16,2.1857290108285924e+16,1480722022492929.5,1619007211395847.0,125372198819.01451,235146048277.72614,3289534123859.775,69394355251642.63
33.44038208929165,1.88980322182791e+16,2.2108759638770276e+16,1497642849743393.2,1637508281092335.2,129717875079.81595,243296744866.4156,3403556871325.868,71799718164171.25
34.20918973107749,1.9113322821258776e+16,2.2362377856585364e+16,1514704331512163.5,1656163141085338.5,134199816624.4777,251703019934.03708,3521154989696.9277,74280504902819.72
34.993373525699035,1.9330409708149076e+16,2.261817212980579e+16,1531908166290008.5,1674973648488259.2,138822108523.01614,260372535470.18805,3642435664975.339,76838976569502.86
35.793240996213015,1.9549314397403156e+16,2.2876169996564548e+16,1549256059384486.5,1693941667867902.0,143588955603.69275,269313178086.63464,3767509225456.16,79477460549828.23
36.60910581613728,1.9770058494667256e+16,2.313639916839831e+16,1566749723013059.8,1713069071346278.8,148504685844.44708,278533065378.5208,3896489230712.9717,82198352389778.3
37.44128793246003,1.9992663693381896e+16,2.3398887532975092e+16,1584390876350784.0,1732357738652763.0,153573753851.28845,288040552448.6872,4029492562865.258,85004117720470.03
38.29011369110923,2.0217151774735092e+16,2.366366315611638e+16,1602181245526576.5,1751809557119992.2,158800744424.59445,297844238596.8778,4166639520152.099,87897294231515.61
39.15591596493141,2.0443544606879804e+16,2.39307542830137e+16,1620122563561191.0,1771426421616083.5,164190376214.0715,307952974175.26105,4308053912832.054,90880493693401.4
40.03903428423004,2.0671864143318764e+16,2.4200189338526336e+16,1638216570239234.2,1791210234404645.5,169747505462.89447,318375867611.2202,4453863161422.784,93956404029163.92
40.93981496991464,2.0902132420348556e+16,2.4471996926433704e+16,1656465011906606.2,1811162904923349.0,175477129841.26544,329122292597.89453,4604198397286.807,97127791435499.1
41.85861126931294,2.1134371553442388e+16,2.474620582750334e+16,1674869641183835.2,1831286349470454.5,181384392369.35596,340201895452.35364,4759194565562.038,100397502553272.02
42.7957834946992,2.136860373244064e+16,2.5022844996219416e+16,1693432216584947.0,1851582490788108.0,187474585429.1964,351624602640.6502,4918990530426.297,103768466687196.08
43.751699164593184,2.160485121540566e+16,2.5301943556006164e+16,1712154502030449.0,1872053257529836.5,193753154864.7402,363400628468.24927,5083729182675.039,107243698074242.27
44.72673314788505,2.1843136320986236e+16,2.5583530792764212e+16,1731038266242245.8,1892700583598941.0,200225704168.86618,375540482933.5513,5253557549579.919,110826298200092.83
