t(s),Total solute volume 1,Total retention volume 1,Total 1 volume 1,Total 2 volume 1,Total 3 volume 1,Total 4 volume 1,Total 5 volume 1,Total 6 volume 1
0.1,964857416365797.9,1154672529873703.2,88762465329957.31,101052648177948.16,0.0,0.0,0.0,0.0
0.202,1453407007772708.5,1739601695057424.0,133706791572936.92,152220033669413.28,371288295.35071015,741029048.751777,11378915052.10697,255370809968.2225
0.30604000000000003,1825433225273918.5,2185227864877997.8,167931500630924.4,191183547197986.16,941960712.8818274,1879995871.187107,28868522897.683308,647901295686.0565
0.41216080000000005,2140034023034449.2,2562247122334427.5,196873333921835.16,224132710019666.03,1673037292.9235027,3339102922.0876136,51274130241.122116,1150769088017.0554
0.5204040160000001,2419348332373473.5,2897141264604294.0,222568971799235.03,253386204340718.28,2547199381.170976,5083785129.149568,78064957923.86859,1752060148436.3467
0.6308120963200001,2674407307967685.5,3203104876895176.0,246033230000870.94,280099358813899.06,3555142142.199873,7095471674.464836,108955835138.42561,2445373663767.202
0.7434283382464002,2911622479542363.5,3487806971627693.5,267855939913324.7,304943673764958.06,4691531095.5098715,9363515909.068613,143783273777.31778,3227040086266.319
0.8582969050113283,3135101068383728.0,3756160595245768.0,288414947094253.4,328349311813790.0,5953340710.980661,11881879466.550325,182454549778.08252,4094978184041.695
0.9754628431115548,3347657419598664.5,4011532647497039.5,307969158410803.7,350611028460097.1,7339035757.952853,14647498372.989347,224922613286.2958,5048131880060.677
1.094972099973786,3551317849060732.5,4256347719082228.5,326704985647825.56,371941046343470.75,8848117880.826519,17659378088.13282,271172192244.39066,6086158341990.784
1.2168715419732616,3747597805969354.5,4492419583411034.5,344761843194625.8,392498083378161.75,10480853089.540302,20918049622.447224,321211440620.6086,7209240525560.551
1.3412089728127268,3937665346390554.0,4721146704594386.0,362247186862437.7,412404473867769.44,12238097849.965038,24425222443.105297,375066608499.99585,8417967544836.309
1.4680331522689813,4122443111959723.5,4943634194471491.0,379245895458263.1,431756849065863.7,14121182926.666319,28183552644.036316,432778482150.9404,9713254769931.574
1.597393815314361,4302674881996577.0,5160773399449224.0,395826393274818.8,450633107395052.7,16131833018.482527,32196482552.446262,494399921057.03937,11096288546140.045
1.729341691620648,4478970648106690.5,5373295801338285.0,412044796747533.06,469097135256329.06,18272109612.905663,36468126676.1887,559994106550.0255,12568486884897.041
1.863928525453061,4651838106435744.0,5581810675091224.0,427947811597792.44,487202105315095.7,20544369482.22736,41003188869.48946,629633269825.4108,14131470914403.602
2.001207095962122,4821705249727368.0,5786832103269242.0,443574811198837.8,504992842640723.0,22951234058.66441,45806901211.306244,703397753372.7672,15787043813661.6
2.1412312378813647,4988936947609750.0,5988798801661630.0,458959361886244.6,522507561213793.25,25495566586.453487,50884978405.23374,781375310751.5494,17537175096100.34
2.284055862638992,5153847358252256.0,6188088960294665.0,474130364773508.7,539779163839185.5,28180454968.465572,56243583544.733734,863660580890.3628,19383988810319.22
2.4297369798917723,5316709382505200.0,6385031548168703.0,489112925489635.2,556836232308828.8,31009198872.35955,61889302379.71463,950354692931.0278,21329754670853.746
2.578331719489608,5477761977024664.0,6579915058124690.0,503929026953134.0,573703793328995.1,33985300084.720062,67829124065.56632,1041564970615.8258,23376881423142.543
2.7298983538794,5637215889466324.0,6772994365174291.0,518598056983617.2,590403919185784.8,37112455385.75181,74070426942.82954,1137404713923.999,25527911942312.68
2.884496320956988,5795258211981045.0,6964496172091971.0,533137227202532.5,606956204647480.1,40394551412.135315,80620968284.92981,1237993041640.961,27785519699565.82
3.0421862473761276,5952056036916810.0,7154623381740906.0,547561909341015.56,623378149838092.4,43835661112.26708,87488877224.07297,1343454782730.6584,30152506323920.246
3.2030299723236504,6107759421487618.0,7343558643353448.0,561885907975854.9,639685470736747.4,47440041495.56062,94682650259.90111,1453920407368.1912,32631800054099.234
3.3670905717701234,6262503814224649.0,7531467255480310.0,576121683751890.4,655892353307797.2,51212132448.14286,102211148896.52924,1569525990655.3972,35226454923964.0
3.5344323832055258,6416412057680725.0,7718499562472745.0,590280537621660.8,672011663250566.4,55156556439.28683,110083599057.37599,1690413203635.849,37939650560658.836
3.7051210308696363,6569596054195283.0,7904792948283471.0,604372764088151.0,688055120460314.6,59278118981.71595,118309592004.63554,1816729327414.7766,40774692501324.15
3.879223451487029,6722158161293743.0,8090473507179599.0,618407779575152.4,704033445172944.2,63581809738.21801,126899086548.71176,1948627287087.423,43735012954389.85
4.0568079205167695,6874192368310536.0,8275657453044561.0,632394230671187.9,719956481196555.2,68072804189.39668,135862412377.6348,2086265702865.559,46824171946861.39
4.237944078927105,7025785294598047.0,8460452315522712.0,646340085960168.4,735833300457100.9,72756465794.68085,145210274370.97714,2229808956321.8423,50045858810906.95
4.422702960505647,7177017041181874.0,8644957961095444.0,660252714369781.1,751672292195013.1,77638348592.18939,154953757789.70166,2379427270084.805,53403893972324.086
4.61115701971576,7327961921220202.0,8829267469404047.0,674138952370406.4,767481239468582.2,82724200193.67075,165104334254.55948,2535296799642.627,56902231010770.57
4.803380160110075,7478689074815413.0,9013467889828200.0,688005160539065.2,783267383562430.0,88019964988.3943,175673868443.3431,2697599840346.4336,60544977237507.14
4.9994477633122765,7629263073572876.0,9197640894403240.0,701857279159583.1,799037487235497.9,93531788427.84601,186674625442.14572,2866524525620.2515,64336323495806.61
5.199436718578522,7779744305238019.0,9381863350353056.0,715700863632308.0,814797875110061.8,99266020126.3945,198119278728.684,3042265568690.55,68280655505144.32
5.403425452950093,7930189447641656.0,9566207817798894.0,729541128058223.6,830554483239326.4,105229218736.34962,210020918712.8875,3225023982841.657,72382484739379.2
5.611493962009095,8080651816470891.0,9750742987293622.0,743382977236486.6,846312895548274.1,111428156357.41356,222393061835.0049,3415007323393.7314,76646469496392.53
5.823723841249277,8231181684458407.0,9935534065283054.0,757231036028382.6,862078377263388.8,117869823355.43465,235249660184.3822,3612429835408.5903,81077418213931.45
6.040198318074262,8381826563107933.0,1.0120643114913478e+16,771089675274763.2,877855904418692.0,124561433433.36778,248605111621.67157,3817512609125.1904,85680292957916.9
6.261002284435747,8532631452145963.0,1.0306129358393296e+16,784963034744476.0,893650189981612.9,131510428946.81808,262474270389.2577,4030483742892.426,90460213079002.78
6.486222330124463,8683639061061670.0,1.0492049446123694e+16,798855043515017.9,909465707055595.1,138724486458.28955,276872458198.18115,4251578513418.6387,95422459033341.67
6.715946776726952,8834890006417675.0,1.0678457697003038e+16,812769438124226.6,925306709545096.1,146211522525.72086,291815475782.7355,4481039553203.054,100572476364521.48
6.950265712261491,8986422988053783.0,1.086540631363813e+16,826709778780216.2,941177250609965.8,153979699722.1428,307319614916.4313,4719117035051.628,105915879844492.83
7.18927102650672,9138274946840764.0,1.1052945575641694e+16,840679463873994.4,957081199187515.2,162037432884.35022,323401670885.1207,4966068863613.295,111458457772039.22
7.433056447036854,9290481206255234.0,1.1241124013731966e+16,854681743003713.9,973022254820122.8,170393395589.4046,340078955414.93036,5222160873900.117,117206176427980.28
7.681717575977592,9443075599723084.0,1.1429988566965626e+16,868719728689688.9,989003960992314.2,179056526858.5736,357369310054.2213,5487667036779.389,123165184686832.83
7.935351927497144,9596090585407280.0,1.1619584725109148e+16,882796406934326.9,1005029717152864.1,188036038089.01352,375291120010.1735,5762869671447.262,129341818785140.12
8.194058966047088,9749557349887206.0,1.180995665788151e+16,896914646760173.1,1021102789573472.1,197341420214.08542,393863328441.81165,6048059664911.165,135742607247090.9
8.45794014536803,9903505901983298.0,1.200114733256922e+16,911077208841344.6,1037226321175321.5,206982451093.76135,413105451212.35614,6343536698525.792,142374275968423.22
8.72709894827539,1.0057965157815984e+16,1.2193198621318916e+16,925286753328557.1,1053403340437575.8,216969203137.02246,433037592104.7052,6649609481640.924,149243753459920.0
9.0016409272409,1.0212963018048068e+16,1.238615139924459e+16,939545846955067.8,1069636769487222.9,227312051158.57947,453680458504.7199,6966595992432.989,156358176252112.0
9.281673745785717,1.0368526438139936e+16,1.2580045634343986e+16,953856969499843.8,1085929431457139.5,238021680472.63647,475055377557.7309,7294823726003.124,163724894463047.56
9.567307220701432,1.0524681492344118e+16,1.2774920470096414e+16,968222519674766.1,1102284057188439.4,249109095226.7393,497184312804.35864,7634629949836.005,171351477531230.72
9.85865336511546,1.0681453432077682e+16,1.2970814301507368e+16,982644820494612.6,1118703291344009.2,260585626979.07812,520089881302.3612,7986361966721.913,179245720116042.38
10.155826432417769,1.083886673923428e+16,1.3167764845276018e+16,997126124181533.9,1135189697992046.5,272462943522.87527,543795371241.7869,8350377385254.024,187415648168145.4
10.458942961066125,1.0996945174932018e+16,1.3365809204681856e+16,1011668616649631.6,1151745765711594.0,284753057961.7712,568324760061.219,8727044398020.84,195869525172562.34
10.768121820287448,1.1155711824136248e+16,1.3564983929718322e+16,1026274421610038.9,1168373912266016.0,297468338040.32874,593702733073.3806,9116742067619.924,204615858567271.28
11.083484256693197,1.1315189136545734e+16,1.3765325072942478e+16,1040945604332289.6,1185076488885144.8,310621515734.02563,619954702608.795,9519860620627.398,213663406340309.47
11.405153941827061,1.1475398964088906e+16,1.3966868241458036e+16,1055684175093759.5,1201855784192388.8,324225697103.28345,647106827686.5981,9936801749662.324,223021183808536.28
11.733257020663602,1.163636259533669e+16,1.416964864540278e+16,1070492092345539.1,1218714027808897.0,338294372416.2887,675186034222.0266,10367978923692.355,232698470581305.1
12.067922161076874,1.1798100787107796e+16,1.437370114327289e+16,1085371265619922.5,1235653393663672.0,352841426545.52856,704220035780.3755,10813817706730.885,242704817712455.06
12.409280604298411,1.1960633793510402e+16,1.4579060284381504e+16,1100323558202159.8,1252676003035233.0,367881149643.13416,734237354887.6329,11274756085083.2,253050055044105.22
12.75746621638438,1.212398139264104e+16,1.4785760348717648e+16,1115350789586594.0,1269783927347836.2,383428248100.28326,765267344908.2639,11751244803301.154,263744298745879.8
13.112615540712067,1.2288162911136978e+16,1.4993835384445908e+16,1130454737735386.8,1286979190742946.5,399497855796.0545,797340212500.9271,12243747709013.35,274797959053274.4
13.474867851526309,1.245319724675923e+16,1.5203319243261778e+16,1145637141156047.0,1304263772444428.8,416105545641.2796,830487040663.2086,12752742106799.879,286221748208970.1
13.844365208556836,1.261910288916531e+16,1.5414245613798018e+16,1160899700812436.0,1321639608934150.5,433267341423.0535,864739812376.6565,13278719121285.902,298026688610999.1
14.221252512727972,1.2785897939015794e+16,1.562664805325752e+16,1176244081882460.8,1339108595953056.5,450999729955.7045,900131434863.7375,13822184069631.889,310224121171752.7
14.605677562982532,1.2953600125543076e+16,1.5840560017432182e+16,1191671915374359.8,1356672590341225.5,469319673544.12976,936695764468.515,14383656843601.604,322825713891901.2
14.997791114242183,1.3122226822700858e+16,1.6056014889252168e+16,1207184799612336.2,1374333411729224.8,488244622765.54266,974467632173.0931,14963672301393.516,335843470653368.9
15.397746936527026,1.3291795063999212e+16,1.6273046005996786e+16,1222784301601344.5,1392092844091875.0,507792529575.7403,1013482869762.0723,15562780669423.168,349289740235589.4
15.805701875257567,1.3462321556121664e+16,1.6491686685286828e+16,1238471958279808.2,1409952637174393.0,527981860746.14777,1053778336647.5073,16181547954248.229,363177225559334.0
16.221815912762718,1.3633822691412114e+16,1.6711970249966902e+16,1254249277668323.5,1427914507800168.8,548831611637.95856,1095391947366.9806,16820556364830.424,377518993162467.1
16.64625223101797,1.3806314559309654e+16,1.6933930051977188e+16,1270117739921645.0,1445980141068409.0,570361320319.7996,1138362699767.6528,17480404745331.352,392328482912049.1
17.079177275638333,1.397981295680503e+16,1.715759949530668e+16,1286078798290599.0,1464151191449232.2,592591082035.4259,1182730703889.2893,18161709018642.055,407619517957262.94
17.5207608211511,1.4154333397982636e+16,1.7383012058109808e+16,1302133879999946.8,1482429283783089.0,615541564028.0206,1228537211559.394,18865102640848.3,423406314927701.5
17.97117603757412,1.4329891122710116e+16,1.7610201314064564e+16,1318284387047755.8,1500816014190790.8,639234020727.7839,1275824646713.8367,19591237066836.137,439703494381594.0
18.430599558325603,1.4506501104528736e+16,1.783920095304157e+16,1334531696931277.8,1519312950899934.0,663690309309.5199,1324636636456.3203,20340782227244.09,456526091508602.06
18.899211549492115,1.468417805779537e+16,1.8070044801149564e+16,1350877163303986.8,1537921634992894.0,688932905627.0095,1375018042870.363,21114427016970.812,473889567091862.75
19.37719578048196,1.4862936444122094e+16,1.8302766840216964e+16,1367322116568012.5,1556643581081273.8,714984920531.0541,1427014995597.3982,21912879795448.055,491809818733984.6
19.864739696091597,1.5042790478155484e+16,1.8537401226764788e+16,1383867864405761.2,1575480277911151.0,741870116578.0243,1480674925194.8743,22736868898890.773,510303192351753.6
20.36203449001343,1.5223754132733652e+16,1.877398231052272e+16,1400515692254387.2,1594433188903235.5,769612925135.9413,1536046597288.1533,23587143164738.047,529386493944313.2
20.869275179813698,1.5405841143457672e+16,1.9012544652535212e+16,1417266863726316.5,1613503752631638.2,798238463895.0007,1593180147530.2373,24464472468498.996,549077001639637.0
21.38666068340997,1.5589065012709062e+16,1.9253123042901996e+16,1434122620978838.5,1632693383244619.5,827772554789.598,1652127117383.314,25369648273218.55,569392478024101.4
21.91439389707817,1.5773439013143838e+16,1.949575251819485e+16,1451084185035565.0,1652003470830545.8,858241742338.8818,1712940490736.1904,26303484191780.367,590351182760033.9
22.452681775019734,1.5958976190691204e+16,1.9740468378587476e+16,1468152756062256.8,1671435381731942.2,889673312412.904,1775674731371.8054,27266816562262.33,611971885496020.4
23.00173541052013,1.6145689367081844e+16,1.998730620473584e+16,1485329513599456.2,1690990458810306.0,922095311431.3962,1840385821298.8167,28260505036563.3,634273879074935.6
23.561770118730532,1.6333591141930226e+16,2.023630187444133e+16,1502615616754017.0,1710670021664167.0,955536566002.3136,1907131299961.5647,29285433182516.0,657276993044441.4
24.133005521105144,1.6522693894392188e+16,2.0487491579128516e+16,1520012204351616.2,1730475366802732.8,990026703007.1329,1975970304342.3977,30342509099705.492,681001607474887.8
24.715665631527248,1.671300978441875e+16,2.0740911840166708e+16,1537520395052084.2,1750407767777148.5,1025596170139.9967,2046963609970.5432,31432666049207.664,705468667089419.5
25.309978944157795,1.6904550753624176e+16,2.099659952506325e+16,1555141287429282.8,1770468475271459.8,1062276256907.6938,2120173672851.538,32556863097463.727,730699695711096.8
25.91617852304095,1.7097328525786246e+16,2.1254591863553108e+16,1572875960017090.0,1790658717154984.2,1100099116097.48,2195664672331.1377,33716085774505.78,756716811031859.0
26.53450209350177,1.7291354606994656e+16,2.1514926463611016e+16,1590725471323107.0,1810979698497867.0,1139097785719.6392,2273502554907.652,34911346746745.504,783542739708025.2
27.165192135371807,1.748664028546221e+16,2.17776413274068e+16,1608690859811232.5,1831432601551283.8,1179306211431.6443,2353755079006.3096,36143686504536.734,811200832787098.6
27.808495978079243,1.7683196631012422e+16,2.2042774867226132e+16,1626773143854560.5,1852018585693801.2,1220759269450.7444,2436491860729.3745,37414174064720.34,839715081470454.2
28.464665897640828,1.7881034494256334e+16,2.2310365921376576e+16,1644973321659640.8,1872738787345144.0,1263492789961.537,2521784420595.216,38723907688356.64,869110133216539.0
29.133959215593645,1.8080164505469544e+16,2.258045377009653e+16,1663292371163175.2,1893594319848601.8,1307543581025.2332,2609706231279.5825,40074015613846.38,899411308189026.0
29.816638399905518,1.828059707317991e+16,2.2853078151484348e+16,1681731249902066.5,1914586273323076.2,1352949452996.876,2700332766371.835,41465656805637.51,930644616054328.6
30.51297116790363,1.8482342382474356e+16,2.312827927746294e+16,1700290894857712.0,1935715714485802.2,1399749243456.8257,2793741550158.625,42900021718708.48,962836773132731.6
31.223230591261704,1.8685410393033652e+16,2.3406097849792668e+16,1718972222275132.2,1956983686446467.0,1447982842662.5354,2890012208447.084,44378333079014.586,996015219907227.5
31.947695203086937,1.8889810836900068e+16,2.3686575076145324e+16,1737776127457678.5,1978391208473469.2,1497691219526.2966,2989226520439.2065,45901846680073.98,1030208138894040.0
32.686649107148675,1.909555321598434e+16,2.3969752686248884e+16,1756703484537638.5,1999939275732732.8,1548916448124.5854,3091468471668.193,47471852195861.48,1065444472878520.6
33.44038208929165,1.9302646799314204e+16,2.4255672948109916e+16,1775755146223131.5,2021628858999629.8,1601701734744.0056,3196824308007.352,49089674010170.09,1101753943519978.0
34.20918973107749,1.9511100620026852e+16,2.454437868431954e+16,1794931943521421.2,2043460904343914.2,1656091445468.667,3305382590760.7593,50756672062584.695,1139167070328592.8
34.993373525699035,1.9720923472104324e+16,2.4835913288446516e+16,1814234685438602.0,2065436332787857.0,1712131134313.1843,3417234252844.567,52474242711199.71,1177715190017357.0
35.793240996213015,1.993212390684995e+16,2.513032074151428e+16,1833664158655427.2,2087556039937190.8,1769867571905.0684,3532472656066.185,54243819612194.445,1217430476231544.2
36.60910581613728,2.0144710229100344e+16,2.542764562856186e+16,1853221127178839.0,2109820895584371.2,1829348774719.5398,3651193649507.552,56066874616363.06,1258345959657719.8
37.44128793246003,2.0358690493165104e+16,2.5727933155277388e+16,1872906331968443.8,2132231743283345.2,1890624034869.0579,3773495629017.3604,57944918682667.46,1300495548513934.5
38.29011369110923,2.057407249848405e+16,2.60312291646948e+16,1892720490536980.2,2154789399894706.8,1953743950449.0457,3899479597814.9033,59879502808860.805,1343914049421939.0
39.15591596493141,2.079086378498716e+16,2.6337580153935908e+16,1912664296523488.8,2177494655099738.0,2018760456440.2485,4029249228206.7354,61872218979196.16,1388637188661766.5
40.03903428423004,2.100907162813978e+16,2.664703329097659e+16,1932738419237465.0,2200348270881481.0,2085726856166.9583,4162910924414.73,63924701129196.24,1434701633808089.8
40.93981496991464,2.1228703033651452e+16,2.695963643140827e+16,1952943503172076.8,2223350980970536.8,2154697853309.1335,4300573886511.37,66038626127426.95,1482145015746921.8
41.85861126931294,2.144976473182127e+16,2.727543813516242e+16,1973280167484021.5,2246503490252865.2,2225729584464.836,4442350175455.664,68215714774164.766,1531005951070200.5
42.7957834946992,2.1672263171489736e+16,2.7594487683155996e+16,1993749005437074.8,2269806474136365.5,2298879652257.725,4588354779218.937,70457732816798.12,1581324064844571.2
43.751699164593184,2.1896204513561428e+16,2.791683509381014e+16,2014350583806219.8,2293260577872439.0,2374207158982.496,4738705679986.428,72766491981746.33,1633140013749399.8
44.72673314788505,2.212159462405659e+16,2.824253113938674e+16,2035085442238441.0,2316866415828282.0,2451772740778.809,4893523922416.192,75143851022608.06,1686495509577622.0
