t(s),Total solute volume 1,Total retention volume 1,Total 1 volume 1,Total 2 volume 1,Total 3 volume 1,Total 4 volume 1,Total 5 volume 1,Total 6 volume 1
0.1,569979678731608.1,570022194260573.1,42515528964.6781,0.0,0.0,0.0,0.0,0.0
0.21000000000000002,875964212447499.2,876029551762929.4,65339315430.60933,0.0,0.0,0.0,0.0,0.0
0.33100000000000007,1122304108986675.6,1122387823117053.9,83714130377.75182,0.0,0.0,0.0,0.0,0.0
0.46410000000000007,1342571341675900.5,1342671485827051.5,100144151152.86617,0.0,0.0,0.0,0.0,0.0
0.6105100000000001,1549294341882222.8,1549409905772146.8,115563889929.11351,0.0,0.0,0.0,0.0,0.0
0.7715610000000002,1748773936273431.0,1748904379607029.0,130443333599.77832,0.0,0.0,0.0,0.0,0.0
0.9487171000000002,1944755154113909.2,1944900215942709.0,145061828791.63696,0.0,0.0,0.0,0.0,0.0
1.1435888100000002,2139727334455272.2,2139886939513830.5,159605058557.85608,0.0,0.0,0.0,0.0,0.0
1.3579476910000003,2335488339626839.0,2335662546754642.5,174207127799.2995,0.0,0.0,0.0,0.0,0.0
1.5937424601000005,2533424612307395.5,2533613583760491.5,188971453087.4318,0.0,0.0,0.0,0.0,0.0
1.8531167061100007,2734664264538195.0,2734868246719982.5,203982181773.85587,0.0,0.0,0.0,0.0,0.0
2.138428376721001,2940167133279611.0,2940386444188960.5,219310909351.96286,0.0,0.0,0.0,0.0,0.0
2.452271214393101,3150780939897375.0,3151015960765838.5,235020868466.41153,0.0,0.0,0.0,0.0,0.0
2.7974983358324113,3367278041258332.0,3367529210928562.5,251169670225.39026,0.0,0.0,0.0,0.0,0.0
3.1772481694156527,3590380491526353.5,3590648302699950.0,267811173592.72452,0.0,0.0,0.0,0.0,0.0
3.594972986357218,3820777765759820.5,3821062762567231.0,284996807414.1822,0.0,0.0,0.0,0.0,0.0
4.05447028499294,4059139715709446.5,4059442492246259.5,302776536807.3663,0.0,0.0,0.0,0.0,0.0
4.5599173134922335,4306126337771405.0,4306447537363171.5,321199591766.0996,0.0,0.0,0.0,0.0,0.0
5.115909044841457,4562395357727123.0,4562735672760035.0,340315032916.0852,0.0,0.0,0.0,0.0,0.0
5.727499949325603,4828608289297168.0,4828968461500601.0,360172203430.3485,0.0,0.0,0.0,0.0,0.0
6.400249944258164,5105435404175110.0,5105816225274860.0,380821099750.5507,0.0,0.0,0.0,0.0,0.0
7.140274938683981,5393559902453758.0,5393962215136420.0,402312682664.5166,0.0,0.0,0.0,0.0,0.0
7.95430243255238,5693681454831524.0,5694106153973067.0,424699141523.9856,0.0,0.0,0.0,0.0,0.0
8.84973267580762,6006519167208639.0,6006967201324015.0,448034115377.6529,0.0,0.0,0.0,0.0,0.0
9.834705943388382,6332813857715148.0,6333286230577975.0,472372862817.54706,0.0,0.0,0.0,0.0,0.0
10.918176537727222,6673329297106145.0,6673827069460641.0,497772354501.5669,0.0,0.0,0.0,0.0,0.0
12.109994191499945,7028851713794962.0,7029376005031175.0,524291236233.05396,0.0,0.0,0.0,0.0,0.0
13.42099361064994,7400186397942528.0,7400738387518173.0,551989575655.111,0.0,0.0,0.0,0.0,0.0
14.863092971714936,7788149696763657.0,7788730625028825.0,580928265169.7661,0.0,0.0,0.0,0.0,0.0
16.44940226888643,8193554182948758.0,8194165350864402.0,611167915630.9053,0.0,0.0,0.0,0.0,0.0
18.194342495775075,8617184468631749.0,8617827235684027.0,642767052276.2977,0.0,0.0,0.0,0.0,0.0
20.113776745352585,9059761224788938.0,9060437004219848.0,675779430887.44,0.0,0.0,0.0,0.0,0.0
22.225154419887843,9521891612363254.0,9522601862703626.0,710250340382.3192,0.0,0.0,0.0,0.0,0.0
24.54766986187663,1.0004005595174934e+16,1.0004751807027246e+16,746211852312.3676,0.0,0.0,0.0,0.0,0.0
27.102436848064297,1.050627939204444e+16,1.0507063069155492e+16,783677111056.593,0.0,0.0,0.0,0.0,0.0
29.91268053287073,1.1028549387181504e+16,1.102937202109378e+16,822633912285.4905,0.0,0.0,0.0,0.0,0.0
33.003948586157804,1.1570221801417588e+16,1.1571084839382826e+16,863037965220.8412,0.0,0.0,0.0,0.0,0.0
36.40434344477359,1.2130184969473864e+16,1.2131089775823148e+16,904806349283.2732,0.0,0.0,0.0,0.0,0.0
40.14477778925095,1.2706731900125716e+16,1.270767971186346e+16,947811737754.5253,0.0,0.0,0.0,0.0,0.0
44.25925556817605,1.3297500813950254e+16,1.3298492691912644e+16,991877962411.2386,0.0,0.0,0.0,0.0,0.0
48.78518112499366,1.389944064112316e+16,1.3900477418563144e+16,1036777439961.3942,0.0,0.0,0.0,0.0,0.0
53.763699237493036,1.4508807242343108e+16,1.4509889473233286e+16,1082230890158.9604,0.0,0.0,0.0,0.0,0.0
59.240069161242346,1.512119465605556e+16,1.5122322565722118e+16,1127909666575.8848,0.0,0.0,0.0,0.0,0.0
65.26407607736658,1.5731604174285156e+16,1.5732777615194222e+16,1173440909059.258,0.0,0.0,0.0,0.0,0.0
71.89048368510325,1.6334552555339264e+16,1.6335770970954758e+16,1218415615458.5808,0.0,0.0,0.0,0.0,0.0
79.17953205361358,1.6924219071971664e+16,1.6925481471581812e+16,1262399610140.453,0.0,0.0,0.0,0.0,0.0
87.19748525897495,1.749462913041e+16,1.7495934077650338e+16,1304947240371.3975,0.0,0.0,0.0,0.0,0.0
96.01723378487245,1.803986964113801e+16,1.8041215258579124e+16,1345617441105.1196,0.0,0.0,0.0,0.0,0.0
105.7189571633597,1.8554328075032068e+16,1.855571206659858e+16,1383991566490.8547,0.0,0.0,0.0,0.0,0.0
116.39085287969569,1.9032943347119104e+16,1.9034363039222716e+16,1419692103619.0947,0.0,0.0,0.0,0.0,0.0
128.12993816766527,1.947145277752135e+16,1.9472905178615004e+16,1452401093659.31,0.0,0.0,0.0,0.0,0.0
141.04293198443182,1.9866616099586996e+16,1.9868097976427916e+16,1481876840917.0874,0.0,0.0,0.0,0.0,0.0
155.247225182875,2.0216395687988344e+16,2.0217903655344656e+16,1507967356281.627,0.0,0.0,0.0,0.0,0.0
170.87194770116253,2.05200727240779e+16,2.052160334310011e+16,1530619022149.854,0.0,0.0,0.0,0.0,0.0
188.0591424712788,2.0778282533932052e+16,2.077983241316036e+16,1549879228336.2476,0.0,0.0,0.0,0.0,0.0
206.9650567184067,2.0992959013746452e+16,2.099452490597312e+16,1565892226690.028,0.0,0.0,0.0,0.0,0.0
227.76156239024738,2.11671874595443e+16,2.1168766347697816e+16,1578888153471.087,0.0,0.0,0.0,0.0,0.0
250.63771862927214,2.1304976103999584e+16,2.1306565269987588e+16,1589165987983.9805,0.0,0.0,0.0,0.0,0.0
275.8014904921994,2.1410967480727756e+16,2.141256455275063e+16,1597072022864.6108,0.0,0.0,0.0,0.0,0.0
303.4816395414193,2.149011931094956e+16,2.1491722287010544e+16,1602976061001.1514,0.0,0.0,0.0,0.0,0.0
333.92980349556126,2.154738900637792e+16,2.1548996254260136e+16,1607247882193.8171,0.0,0.0,0.0,0.0,0.0
367.4227838451174,2.158745486123857e+16,2.158906509768501e+16,1610236446504.8545,0.0,0.0,0.0,0.0,0.0
404.26506222962917,2.161450045579051e+16,2.1616112709603164e+16,1612253812636.6719,0.0,0.0,0.0,0.0,0.0
444.7915684525921,2.163207791963071e+16,2.163369148456924e+16,1613564938563.7908,0.0,0.0,0.0,0.0,0.0
489.3707252978514,2.1643052806313584e+16,2.1644667189883216e+16,1614383569659.1133,0.0,0.0,0.0,0.0,0.0
538.4077978276366,2.1643052806313584e+16,2.1644667189883216e+16,1614383569659.1133,0.0,0.0,0.0,0.0,0.0
592.3485776104003,2.1643052806313584e+16,2.1644667189883216e+16,1614383569659.1133,0.0,0.0,0.0,0.0,0.0
651.6834353714404,2.1643052806313584e+16,2.1644667189883216e+16,1614383569659.1133,0.0,0.0,0.0,0.0,0.0
716.9517789085845,2.1643052806313584e+16,2.1644667189883216e+16,1614383569659.1133,0.0,0.0,0.0,0.0,0.0
788.7469567994431,2.1643052806313584e+16,2.1644667189883216e+16,1614383569659.1133,0.0,0.0,0.0,0.0,0.0
867.7216524793874,2.1643052806313584e+16,2.1644667189883216e+16,1614383569659.1133,0.0,0.0,0.0,0.0,0.0
954.5938177273263,2.1643052806313584e+16,2.1644667189883216e+16,1614383569659.1133,0.0,0.0,0.0,0.0,0.0
1050.153199500059,2.1643052806313584e+16,2.1644667189883216e+16,1614383569659.1133,0.0,0.0,0.0,0.0,0.0
1155.2685194500648,2.1643052806313584e+16,2.1644667189883216e+16,1614383569659.1133,0.0,0.0,0.0,0.0,0.0
1270.8953713950714,2.1643052806313584e+16,2.1644667189883216e+16,1614383569659.1133,0.0,0.0,0.0,0.0,0.0
1398.0849085345785,2.1643052806313584e+16,2.1644667189883216e+16,1614383569659.1133,0.0,0.0,0.0,0.0,0.0
1537.9933993880366,2.1643052806313584e+16,2.1644667189883216e+16,1614383569659.1133,0.0,0.0,0.0,0.0,0.0
1691.8927393268402,2.1643052806313584e+16,2.1644667189883216e+16,1614383569659.1133,0.0,0.0,0.0,0.0,0.0
1861.1820132595244,2.1643052806313584e+16,2.1644667189883216e+16,1614383569659.1133,0.0,0.0,0.0,0.0,0.0
2047.400214585477,2.1643052806313584e+16,2.1644667189883216e+16,1614383569659.1133,0.0,0.0,0.0,0.0,0.0
2252.2402360440246,2.1643052806313584e+16,2.1644667189883216e+16,1614383569659.1133,0.0,0.0,0.0,0.0,0.0
2477.564259648427,2.1643052806313584e+16,2.1644667189883216e+16,1614383569659.1133,0.0,0.0,0.0,0.0,0.0
2725.42068561327,2.1643052806313584e+16,2.1644667189883216e+16,1614383569659.1133,0.0,0.0,0.0,0.0,0.0
2998.062754174597,2.1643052806313584e+16,2.1644667189883216e+16,1614383569659.1133,0.0,0.0,0.0,0.0,0.0
3297.9690295920573,2.1643052806313584e+16,2.1644667189883216e+16,1614383569659.1133,0.0,0.0,0.0,0.0,0.0
3627.8659325512635,2.1643052806313584e+16,2.1644667189883216e+16,1614383569659.1133,0.0,0.0,0.0,0.0,0.0
3990.75252580639,2.1643052806313584e+16,2.1644667189883216e+16,1614383569659.1133,0.0,0.0,0.0,0.0,0.0
4389.927778387029,2.1643052806313584e+16,2.1644667189883216e+16,1614383569659.1133,0.0,0.0,0.0,0.0,0.0
4829.020556225732,2.1643052806313584e+16,2.1644667189883216e+16,1614383569659.1133,0.0,0.0,0.0,0.0,0.0
5312.022611848306,2.1643052806313584e+16,2.1644667189883216e+16,1614383569659.1133,0.0,0.0,0.0,0.0,0.0
5843.324873033137,2.1643052806313584e+16,2.1644667189883216e+16,1614383569659.1133,0.0,0.0,0.0,0.0,0.0
6427.757360336452,2.1643052806313584e+16,2.1644667189883216e+16,1614383569659.1133,0.0,0.0,0.0,0.0,0.0
7070.6330963700975,2.1643052806313584e+16,2.1644667189883216e+16,1614383569659.1133,0.0,0.0,0.0,0.0,0.0
7777.796406007108,2.1643052806313584e+16,2.1644667189883216e+16,1614383569659.1133,0.0,0.0,0.0,0.0,0.0
8555.67604660782,2.1643052806313584e+16,2.1644667189883216e+16,1614383569659.1133,0.0,0.0,0.0,0.0,0.0
9411.343651268602,2.1643052806313584e+16,2.1644667189883216e+16,1614383569659.1133,0.0,0.0,0.0,0.0,0.0
10352.578016395462,2.1643052806313584e+16,2.1644667189883216e+16,1614383569659.1133,0.0,0.0,0.0,0.0,0.0
11387.93581803501,2.1643052806313584e+16,2.1644667189883216e+16,1614383569659.1133,0.0,0.0,0.0,0.0,0.0
12526.829399838512,2.1643052806313584e+16,2.1644667189883216e+16,1614383569659.1133,0.0,0.0,0.0,0.0,0.0
13779.612339822364,2.1643052806313584e+16,2.1644667189883216e+16,1614383569659.1133,0.0,0.0,0.0,0.0,0.0
15157.673573804603,2.1643052806313584e+16,2.1644667189883216e+16,1614383569659.1133,0.0,0.0,0.0,0.0,0.0
16673.540931185064,2.1643052806313584e+16,2.1644667189883216e+16,1614383569659.1133,0.0,0.0,0.0,0.0,0.0
18340.99502430357,2.1643052806313584e+16,2.1644667189883216e+16,1614383569659.1133,0.0,0.0,0.0,0.0,0.0
20175.19452673393,2.1643052806313584e+16,2.1644667189883216e+16,1614383569659.1133,0.0,0.0,0.0,0.0,0.0
22192.813979407325,2.1643052806313584e+16,2.1644667189883216e+16,1614383569659.1133,0.0,0.0,0.0,0.0,0.0
24412.19537734806,2.1643052806313584e+16,2.1644667189883216e+16,1614383569659.1133,0.0,0.0,0.0,0.0,0.0
26853.51491508287,2.1643052806313584e+16,2.1644667189883216e+16,1614383569659.1133,0.0,0.0,0.0,0.0,0.0
29538.966406591157,2.1643052806313584e+16,2.1644667189883216e+16,1614383569659.1133,0.0,0.0,0.0,0.0,0.0
32492.963047250276,2.1643052806313584e+16,2.1644667189883216e+16,1614383569659.1133,0.0,0.0,0.0,0.0,0.0
35742.359351975305,2.1643052806313584e+16,2.1644667189883216e+16,1614383569659.1133,0.0,0.0,0.0,0.0,0.0
39316.695287172835,2.1643052806313584e+16,2.1644667189883216e+16,1614383569659.1133,0.0,0.0,0.0,0.0,0.0
43248.464815890125,2.1643052806313584e+16,2.1644667189883216e+16,1614383569659.1133,0.0,0.0,0.0,0.0,0.0
47573.41129747914,2.1643052806313584e+16,2.1644667189883216e+16,1614383569659.1133,0.0,0.0,0.0,0.0,0.0
52330.85242722706,2.1643052806313584e+16,2.1644667189883216e+16,1614383569659.1133,0.0,0.0,0.0,0.0,0.0
57564.03766994977,2.1643052806313584e+16,2.1644667189883216e+16,1614383569659.1133,0.0,0.0,0.0,0.0,0.0
63320.54143694475,2.1643052806313584e+16,2.1644667189883216e+16,1614383569659.1133,0.0,0.0,0.0,0.0,0.0
69652.69558063924,2.1643052806313584e+16,2.1644667189883216e+16,1614383569659.1133,0.0,0.0,0.0,0.0,0.0
76618.06513870317,2.1643052806313584e+16,2.1644667189883216e+16,1614383569659.1133,0.0,0.0,0.0,0.0,0.0
84279.97165257348,2.1643052806313584e+16,2.1644667189883216e+16,1614383569659.1133,0.0,0.0,0.0,0.0,0.0
92708.06881783083,2.1643052806313584e+16,2.1644667189883216e+16,1614383569659.1133,0.0,0.0,0.0,0.0,0.0
101978.97569961392,2.1643052806313584e+16,2.1644667189883216e+16,1614383569659.1133,0.0,0.0,0.0,0.0,0.0
112176.97326957532,2.1643052806313584e+16,2.1644667189883216e+16,1614383569659.1133,0.0,0.0,0.0,0.0,0.0
123394.77059653286,2.1643052806313584e+16,2.1644667189883216e+16,1614383569659.1133,0.0,0.0,0.0,0.0,0.0
135734.34765618618,2.1643052806313584e+16,2.1644667189883216e+16,1614383569659.1133,0.0,0.0,0.0,0.0,0.0
149307.8824218048,2.1643052806313584e+16,2.1644667189883216e+16,1614383569659.1133,0.0,0.0,0.0,0.0,0.0
164238.77066398528,2.1643052806313584e+16,2.1644667189883216e+16,1614383569659.1133,0.0,0.0,0.0,0.0,0.0
180662.74773038382,2.1643052806313584e+16,2.1644667189883216e+16,1614383569659.1133,0.0,0.0,0.0,0.0,0.0
198729.12250342223,2.1643052806313584e+16,2.1644667189883216e+16,1614383569659.1133,0.0,0.0,0.0,0.0,0.0
218602.13475376446,2.1643052806313584e+16,2.1644667189883216e+16,1614383569659.1133,0.0,0.0,0.0,0.0,0.0
240462.44822914092,2.1643052806313584e+16,2.1644667189883216e+16,1614383569659.1133,0.0,0.0,0.0,0.0,0.0
264508.79305205506,2.1643052806313584e+16,2.1644667189883216e+16,1614383569659.1133,0.0,0.0,0.0,0.0,0.0
290959.7723572606,2.1643052806313584e+16,2.1644667189883216e+16,1614383569659.1133,0.0,0.0,0.0,0.0,0.0
320055.84959298663,2.1643052806313584e+16,2.1644667189883216e+16,1614383569659.1133,0.0,0.0,0.0,0.0,0.0
352061.53455228533,2.1643052806313584e+16,2.1644667189883216e+16,1614383569659.1133,0.0,0.0,0.0,0.0,0.0
387267.7880075139,2.1643052806313584e+16,2.1644667189883216e+16,1614383569659.1133,0.0,0.0,0.0,0.0,0.0
425994.6668082653,2.1643052806313584e+16,2.1644667189883216e+16,1614383569659.1133,0.0,0.0,0.0,0.0,0.0
468594.23348909186,2.1643052806313584e+16,2.1644667189883216e+16,1614383569659.1133,0.0,0.0,0.0,0.0,0.0
515453.7568380011,2.1643052806313584e+16,2.1644667189883216e+16,1614383569659.1133,0.0,0.0,0.0,0.0,0.0
566999.2325218013,2.1643052806313584e+16,2.1644667189883216e+16,1614383569659.1133,0.0,0.0,0.0,0.0,0.0
623699.2557739815,2.1643052806313584e+16,2.1644667189883216e+16,1614383569659.1133,0.0,0.0,0.0,0.0,0.0
686069.2813513797,2.1643052806313584e+16,2.1644667189883216e+16,1614383569659.1133,0.0,0.0,0.0,0.0,0.0
754676.3094865177,2.1643052806313584e+16,2.1644667189883216e+16,1614383569659.1133,0.0,0.0,0.0,0.0,0.0
830144.0404351695,2.1643052806313584e+16,2.1644667189883216e+16,1614383569659.1133,0.0,0.0,0.0,0.0,0.0
913158.5444786865,2.1643052806313584e+16,2.1644667189883216e+16,1614383569659.1133,0.0,0.0,0.0,0.0,0.0
1004474.4989265553,2.1643052806313584e+16,2.1644667189883216e+16,1614383569659.1133,0.0,0.0,0.0,0.0,0.0
1104922.0488192108,2.1643052806313584e+16,2.1644667189883216e+16,1614383569659.1133,0.0,0.0,0.0,0.0,0.0
1215414.3537011321,2.1643052806313584e+16,2.1644667189883216e+16,1614383569659.1133,0.0,0.0,0.0,0.0,0.0
1336955.8890712454,2.1643052806313584e+16,2.1644667189883216e+16,1614383569659.1133,0.0,0.0,0.0,0.0,0.0
1470651.57797837,2.1643052806313584e+16,2.1644667189883216e+16,1614383569659.1133,0.0,0.0,0.0,0.0,0.0
1617716.835776207,2.1643052806313584e+16,2.1644667189883216e+16,1614383569659.1133,0.0,0.0,0.0,0.0,0.0
1779488.619353828,2.1643052806313584e+16,2.1644667189883216e+16,1614383569659.1133,0.0,0.0,0.0,0.0,0.0
1957437.581289211,2.1643052806313584e+16,2.1644667189883216e+16,1614383569659.1133,0.0,0.0,0.0,0.0,0.0
2153181.4394181324,2.1643052806313584e+16,2.1644667189883216e+16,1614383569659.1133,0.0,0.0,0.0,0.0,0.0
2368499.6833599457,2.1643052806313584e+16,2.1644667189883216e+16,1614383569659.1133,0.0,0.0,0.0,0.0,0.0
2605349.7516959403,2.1643052806313584e+16,2.1644667189883216e+16,1614383569659.1133,0.0,0.0,0.0,0.0,0.0
2865884.8268655348,2.1643052806313584e+16,2.1644667189883216e+16,1614383569659.1133,0.0,0.0,0.0,0.0,0.0
3152473.4095520885,2.1643052806313584e+16,2.1644667189883216e+16,1614383569659.1133,0.0,0.0,0.0,0.0,0.0
3467720.8505072976,2.1643052806313584e+16,2.1644667189883216e+16,1614383569659.1133,0.0,0.0,0.0,0.0,0.0
3814493.0355580277,2.1643052806313584e+16,2.1644667189883216e+16,1614383569659.1133,0.0,0.0,0.0,0.0,0.0
4195942.439113831,2.1643052806313584e+16,2.1644667189883216e+16,1614383569659.1133,0.0,0.0,0.0,0.0,0.0
4615536.783025214,2.1643052806313584e+16,2.1644667189883216e+16,1614383569659.1133,0.0,0.0,0.0,0.0,0.0
5077090.561327737,2.1643052806313584e+16,2.1644667189883216e+16,1614383569659.1133,0.0,0.0,0.0,0.0,0.0
5584799.717460511,2.1643052806313584e+16,2.1644667189883216e+16,1614383569659.1133,0.0,0.0,0.0,0.0,0.0
6143279.789206563,2.1643052806313584e+16,2.1644667189883216e+16,1614383569659.1133,0.0,0.0,0.0,0.0,0.0
6757607.868127219,2.1643052806313584e+16,2.1644667189883216e+16,1614383569659.1133,0.0,0.0,0.0,0.0,0.0
7433368.754939942,2.1643052806313584e+16,2.1644667189883216e+16,1614383569659.1133,0.0,0.0,0.0,0.0,0.0
8176705.730433936,2.1643052806313584e+16,2.1644667189883216e+16,1614383569659.1133,0.0,0.0,0.0,0.0,0.0
8994376.40347733,2.1643052806313584e+16,2.1644667189883216e+16,1614383569659.1133,0.0,0.0,0.0,0.0,0.0
9893814.143825063,2.1643052806313584e+16,2.1644667189883216e+16,1614383569659.1133,0.0,0.0,0.0,0.0,0.0
10883195.658207571,2.1643052806313584e+16,2.1644667189883216e+16,1614383569659.1133,0.0,0.0,0.0,0.0,0.0
11971515.32402833,2.1643052806313584e+16,2.1644667189883216e+16,1614383569659.1133,0.0,0.0,0.0,0.0,0.0
13168666.956431163,2.1643052806313584e+16,2.1644667189883216e+16,1614383569659.1133,0.0,0.0,0.0,0.0,0.0
14485533.75207428,2.1643052806313584e+16,2.1644667189883216e+16,1614383569659.1133,0.0,0.0,0.0,0.0,0.0
15934087.22728171,2.1643052806313584e+16,2.1644667189883216e+16,1614383569659.1133,0.0,0.0,0.0,0.0,0.0
17527496.050009884,2.1643052806313584e+16,2.1644667189883216e+16,1614383569659.1133,0.0,0.0,0.0,0.0,0.0
19280245.755010873,2.1643052806313584e+16,2.1644667189883216e+16,1614383569659.1133,0.0,0.0,0.0,0.0,0.0
21208270.430511963,2.1643052806313584e+16,2.1644667189883216e+16,1614383569659.1133,0.0,0.0,0.0,0.0,0.0
23329097.573563162,2.1643052806313584e+16,2.1644667189883216e+16,1614383569659.1133,0.0,0.0,0.0,0.0,0.0
25662007.43091948,2.1643052806313584e+16,2.1644667189883216e+16,1614383569659.1133,0.0,0.0,0.0,0.0,0.0
28228208.27401143,2.1643052806313584e+16,2.1644667189883216e+16,1614383569659.1133,0.0,0.0,0.0,0.0,0.0
31051029.201412573,2.1643052806313584e+16,2.1644667189883216e+16,1614383569659.1133,0.0,0.0,0.0,0.0,0.0
31536000.0,2.1643052806313584e+16,2.1644667189883216e+16,1614383569659.1133,0.0,0.0,0.0,0.0,0.0
