t(s),Total solute volume 1,Total retention volume 1,Total 1 volume 1,Total 2 volume 1,Total 3 volume 1,Total 4 volume 1,Total 5 volume 1,Total 6 volume 1
0.1,1384269013029218.2,1.039366397781807e+16,2531887414418598.5,6477507550370256.0,0.0,0.0,0.0,0.013903653951609765
0.202,1809709439495460.5,1.577504372463242e+16,3310039675407819.5,8468374696917811.0,1548631139647.7544,10572948674077.582,365141546292061.5,1809656786705540.8
0.30604000000000003,2015112928752160.5,2.062766689954434e+16,3685732299394002.0,9429551369643592.0,3483455663387.218,23814366085358.242,874843198154911.4,4595129281850915.0
0.41216080000000005,2119438593153969.0,2.527658373688752e+16,3876548725853177.0,9917736405686176.0,5550908069130.305,37967326239691.04,1435976231554025.2,7883365546331353.0
0.5204040160000001,2175878691562149.0,2.985963025420523e+16,3979780195695689.0,1.0181842841563374e+16,7674802463982.256,52507065824653.68,2015813917473990.8,1.144613273962138e+16
0.6308120963200001,2208423857849075.5,3.4443932898860936e+16,4039306736296392.0,1.0334134479917908e+16,9835305958281.863,67297404851290.34,2605344120906274.5,1.517959099308171e+16
0.7434283382464002,2228196910341836.5,3.906569908708363e+16,4075472508240164.0,1.0426660143569126e+16,12028637960427.611,82312626434178.11,3203295498264999.5,1.9037732762272892e+16
0.8582969050113283,2240661145107868.5,4.3746128780326696e+16,4098270131062887.5,1.0484984972717698e+16,14255279363983.305,97556146307874.17,3810262551411745.0,2.3000138554354616e+16
0.9754628431115548,2248720346164521.0,4.849851698653398e+16,4113010755607078.0,1.0522696961158502e+16,16516980864626.305,113039976341638.23,4427037565646399.5,2.705749440075121e+16
1.094972099973786,2254021877926609.0,5.333174163412436e+16,4122707483668246.0,1.0547504771407048e+16,18815835695029.516,128778423837819.3,5054289120327844.0,3.120562412126178e+16
1.2168715419732616,2257549003290850.0,5.825210688769719e+16,4129158745766367.5,1.0564009465397374e+16,21153959917513.54,144785940138535.4,5692569040326375.0,3.5442880732860148e+16
1.3412089728127268,2259909331786327.0,6.326437483246503e+16,4133475885983905.0,1.057505427716265e+16,23533352547219.035,161076179398358.44,6342355427178783.0,3.9768970378407816e+16
1.4680331522689813,2261488040934651.0,6.837236767758587e+16,4136363410634524.5,1.058244159717915e+16,25955850185136.453,177661692658568.16,7004081091110571.0,4.418437599488327e+16
1.597393815314361,2262534576889055.0,7.357932953345445e+16,4138277567511338.5,1.058733867804494e+16,28423131662658.3,194553959544421.06,7678149250549522.0,4.869005236925255e+16
1.729341691620648,2263213702486097.5,7.888814820738373e+16,4139519714976619.5,1.0590516507502924e+16,30936743725618.742,211763562516991.6,8364942623248314.0,5.328725535292713e+16
1.863928525453061,2263636320317674.5,8.43014933956012e+16,4140292698684549.5,1.0592494041048036e+16,33498131382930.54,229300392879422.28,9064829307994790.0,5.7977442503293816e+16
2.001207095962122,2263878431106586.0,8.982190410732043e+16,4140735527263281.5,1.0593626915186156e+16,36108665436537.26,247173837749112.3,9778166941829036.0,6.276221378874974e+16
2.1412312378813647,2263992987607737.0,9.545184488532496e+16,4140945053609105.0,1.0594162916234868e+16,38769664792389.62,265392931659262.4,1.0505305788283724e+16,6.7643275543137816e+16
2.284055862638992,2264017430541062.5,1.0119374264248341e+17,4140989758431926.5,1.0594277243764018e+16,41482413556333.42,283966472784876.0,1.1246591098674656e+16,7.26224182247305e+16
2.4297369798917723,2263978564500557.0,1.0705001132196989e+17,4140918668503321.0,1.0594095326806948e+16,44248173804220.945,302903109813597.8,1.2002364961125964e+16,7.770150251741528e+16
2.578331719489608,2263895771864259.0,1.1302306881194963e+17,4140767235037162.5,1.0593707862964874e+16,47068195070270.36,322211406540519.3,1.2772967785040742e+16,8.288245055543182e+16
2.7298983538794,2263783171947168.5,1.1911534886159426e+17,4140561282874202.0,1.0593180921910708e+16,49943721462728.1,341899890353768.75,1.3558739524026192e+16,8.816724034901942e+16
2.884496320956988,2263651099181528.0,1.2532930971849629e+17,4140319714138399.0,1.0592562862366706e+16,52875997105593.78,361977089351800.75,1.436002070795227e+16,9.355790224840002e+16
3.0421862473761276,2263507133489503.0,1.316674405776868e+17,4140056392833705.0,1.059188915362035e+16,55866270408606.63,382451561499803.3,1.5177153331813224e+16,9.905651673402155e+16
3.2030299723236504,2263356830527965.5,1.3813226654320317e+17,4139781480493882.0,1.059118579262692e+16,58915797512601.16,403331918180361.6,1.6010481633385926e+16,1.0466521309047546e+17
3.3670905717701234,2263204246941666.0,1.4472635256034122e+17,4139502396893722.5,1.0590471761876818e+16,62025845145111.06,424626843732154.0,1.686035278145078e+16,1.1038616868430104e+17
3.5344323832055258,2263052323040190.5,1.5145230662349517e+17,4139224519982083.0,1.0589760820093036e+16,65197693044003.78,446345112047514.5,1.7727117489892846e+16,1.1622160866539547e+17
3.7051210308696363,2262903164627579.0,1.5831278246645123e+17,4138951701360731.5,1.0589062821024106e+16,68432636055695.63,468495600952286.5,1.8611130569015532e+16,1.2217380597341533e+17
3.879223451487029,2262758252413420.5,1.65310481878278e+17,4138686649306484.0,1.058838469336196e+16,71731985981137.38,491087304865203.7,1.951275142293795e+16,1.2824508156941182e+17
4.0568079205167695,2262618598727178.0,1.7244815674579606e+17,4138431215408635.0,1.0587731174070654e+16,75097073221244.08,514129346088206.2,2.0432344500384084e+16,1.3443780483789613e+17
4.237944078927105,2262484865449840.0,1.7972861089520714e+17,4138186610271144.0,1.058710536023526e+16,78529248259554.73,537630984984915.5,2.1370279705119056e+16,1.4075439412088733e+17
4.422702960505647,2262357453130252.0,1.8715470178594214e+17,4137953566510349.0,1.0586509126072446e+16,82029883010814.95,561601629242887.0,2.2326932771516616e+16,1.4719731735645875e+17
4.61115701971576,2262236568522853.5,1.9472934209613437e+17,4137732462284437.0,1.058594343896603e+16,85600372058088.2,586050842373907.1,2.3302685610122116e+16,1.5376909280180698e+17
4.803380160110075,2262122275862178.0,2.0245550122938413e+17,4137523415076757.5,1.058540859940032e+16,89242133796752.6,610988351577781.8,2.4297926627544276e+16,1.6047228982612608e+17
4.9994477633122765,2262014535816997.0,2.1033620676542982e+17,4137326352944663.0,1.0584904423241638e+16,92956611500655.69,636424055074069.8,2.5313051024530324e+16,1.6730952976232154e+17
5.199436718578522,2261913235073120.5,2.1837454587215366e+17,4137141068627711.0,1.0584430380167494e+16,96745274323344.69,662368028990186.0,2.6348461075643424e+16,1.7428348680932832e+17
5.403425452950093,2261818208765747.5,2.2657366669247885e+17,4136967260577427.5,1.0583985698636024e+16,100609618245415.86,688830533881508.8,2.7404566393559904e+16,1.8139688897881283e+17
5.611493962009095,2261729257443523.0,2.3493677971680726e+17,4136804563985270.5,1.0583569445267024e+16,104551166977488.5,715822020948635.9,2.8481784180638172e+16,1.886525190815471e+17
5.823723841249277,2261646159844237.5,2.4346715914942214e+17,4136652574149944.5,1.0583180584624122e+16,108571472827008.08,743353138008046.6,2.958053947007905e+16,1.9605321574988966e+17
6.040198318074262,2261568682459924.0,2.521681442755855e+17,4136510863972369.0,1.0582818023973238e+16,112672117535979.1,771434735264843.6,3.0701265358700172e+16,2.0360187449367898e+17
6.261002284435747,2261496586640506.5,2.610431408347397e+17,4136378996948519.5,1.0582480646522906e+16,116854713095766.39,800077870929718.0,3.184440323308142e+16,2.113014487875208e+17
6.486222330124463,2261429633811384.5,2.700956224042079e+17,4136256536712628.5,1.058216733583909e+16,121120902544281.66,829293816716613.8,3.301040299060498e+16,2.1915495118797907e+17
6.715946776726952,2261367589247794.0,2.7932913179698854e+17,4136143053940633.0,1.0581876993506584e+16,125472360750151.44,859094063252649.9,3.41997232567088e+16,2.27165454479582e+17
6.950265712261491,2261310224747240.5,2.887472824766159e+17,4136038131238146.5,1.0581608551633958e+16,129910795187848.11,889490325427654.5,3.541283159949398e+16,2.353360928488869e+17
7.18927102650672,2261257320463162.0,2.9835375999157325e+17,4135941366494312.0,1.0581360981433816e+16,134437946707225.88,920494547706959.0,3.6650204742671976e+16,2.4367006308609555e+17
7.433056447036854,2261208666103065.5,3.081523234313559e+17,4135852375073228.5,1.0581133298828976e+16,139055590300449.36,952118909428003.0,3.791232877770511e+16,2.5217062581391706e+17
7.681717575977592,2261164061647831.0,3.18146806905981e+17,4135770791129571.0,1.0580924567818196e+16,143765535868902.5,984375830098547.8,3.919969937587958e+16,2.608411067435383e+17
7.935351927497144,2261123317713157.5,3.283411210505003e+17,4135696268269688.5,1.058073390216723e+16,148569628992329.1,1017277974712015.6,4.051282200095223e+16,2.696848979576936e+17
8.194058966047088,2261086255646287.5,3.3873925455588774e+17,4135628479728494.5,1.0580560465861262e+16,153469751702170.1,1050838259093474.5,4.185221212293002e+16,2.7870545922092595e+17
8.45794014536803,2261054251924335.5,3.493452767198143e+17,4135569943151721.5,1.0580410700160158e+16,158467931538358.88,1085070601815737.8,4.32184337369042e+16,2.8790626955431984e+17
8.72709894827539,2261024181209927.0,3.601633345268421e+17,4135514942139737.0,1.0580269979952588e+16,163565921485845.9,1119987028083492.5,4.4611953855163464e+16,2.9729101861880685e+17
9.0016409272409,2260997024487032.0,3.711976611686399e+17,4135465270961536.0,1.0580142895779876e+16,168765792279692.75,1155601753311185.8,4.603334016809746e+16,3.06863348263723e+17
9.281673745785717,2260972860822135.0,3.8245257413452614e+17,4135421074234255.0,1.058002981764778e+16,174069594283068.47,1191928852564646.8,4.748315784542513e+16,3.166269940895492e+17
9.567307220701432,2260951630517397.0,3.9393247668904666e+17,4135382242767181.5,1.057993046619086e+16,179479408533060.22,1228982611404577.5,4.8961977746739864e+16,3.265857725828936e+17
9.85865336511546,2260933237727625.5,4.056418597504486e+17,4135348601254363.5,1.0579844392892948e+16,184997354302586.8,1266777578683791.5,5.0470380541562024e+16,3.3674357804402515e+17
10.155826432417769,2260917578630552.0,4.175853037446006e+17,4135319959799469.5,1.0579771111911112e+16,190625591829673.38,1305328585411540.0,5.2008958049679096e+16,3.471043828673394e+17
10.458942961066125,2260904550902221.5,4.2976748043568134e+17,4135296131246725.5,1.057971014441506e+16,196366323839950.28,1344650755256649.8,5.357831377544909e+16,3.576722387545718e+17
10.768121820287448,2260894057062483.0,4.42193154763891e+17,4135276937299934.5,1.0579661034241844e+16,202221796676765.6,1384759512354807.0,5.517906323143525e+16,3.684512781948198e+17
11.083484256693197,2260886005625218.5,4.548671867062261e+17,4135262210626327.0,1.0579623353278128e+16,208194301298198.9,1425670588207528.5,5.6811834208643224e+16,3.7944571603854726e+17
11.405153941827061,2260880311389043.5,4.67794533167636e+17,4135251795388216.0,1.0579596702820304e+16,214286174230170.94,1467400028284760.5,5.847726703448155e+16,3.9065985112104186e+17
11.733257020663602,2260876895360419.0,4.8098024990625434e+17,4135245547102380.0,1.0579580713214604e+16,220499798508827.06,1509964198558073.0,6.0176014829747704e+16,4.020980679237624e+17
12.067922161076874,2260876702713142.5,4.944294818914741e+17,4135245194525329.5,1.0579579807132172e+16,226837706725602.9,1553380481318648.8,6.190874546217451e+16,4.1376481653688474e+17
12.409280604298411,2260877417630568.0,5.081475037222392e+17,4135246501944060.5,1.0579583148328026e+16,233302154630975.75,1597664397572353.5,6.367613375230856e+16,4.2566469634982445e+17
12.75746621638438,2260880305732489.0,5.221396780062683e+17,4135251784220067.0,1.0579596658863336e+16,239895800713465.9,1642834192052486.5,6.547887714709552e+16,4.3780234211759104e+17
13.112615540712067,2260885292929251.0,5.364114748931859e+17,4135260905840929.0,1.057961999206097e+16,246621222607678.16,1688907573249998.0,6.731768215725077e+16,4.501824977492463e+17
13.474867851526309,2260892290038788.5,5.509684740680459e+17,4135273703688573.5,1.057965273059957e+16,253481046925807.47,1735902586705116.5,6.919326937263318e+16,4.628100023374548e+17
13.844365208556836,2260901227864926.5,5.658163666695831e+17,4135290051199889.0,1.0579694550677456e+16,260477954045261.28,1783837648581241.0,7.110637402767071e+16,4.756897912095438e+17
14.221252512727972,2260912050894484.5,5.809609573794961e+17,4135309846838537.5,1.0579745192520474e+16,267614678662704.7,1832731549637001.2,7.305774618399986e+16,4.888268978769427e+17
14.605677562982532,2260924712755829.0,5.964081666123014e+17,4135333005788468.5,1.0579804439131266e+16,274894010477089.06,1882603460038571.2,7.50481509666346e+16,5.022264560174758e+17
14.997791114242183,2260939173616807.5,6.121640327758651e+17,4135359455194638.0,1.0579872104113402e+16,282318795057240.56,1933472935428675.5,7.707836883633043e+16,5.158937014761236e+17
15.397746936527026,2260955398654955.0,6.282347145906569e+17,4135389131364946.5,1.0579948024512988e+16,289891934823022.56,1985359923772988.0,7.914919588107918e+16,5.298339742964486e+17
15.805701875257567,2260973357119024.0,6.446264934625097e+17,4135421978053743.5,1.05800320564272e+16,297616390099510.9,2038284772708786.0,8.126144412012522e+16,5.440527207879765e+17
16.221815912762718,2260993021726647.5,6.61345775906538e+17,4135457945360139.5,1.0580124072185798e+16,305495180222592.6,2092268237249488.2,8.341594181770278e+16,5.585554956320904e+17
16.64625223101797,2261014368257784.5,6.78399096021319e+17,4135496988984365.5,1.058022395844862e+16,313531384684116.2,2147331487764510.0,8.561353380512203e+16,5.7334796402805786e+17
17.079177275638333,2261037375264591.0,6.957931180132337e+17,4135539069697153.5,1.0580331614847986e+16,321728144309942.06,2203496118189568.2,8.785508181049286e+16,5.884359038804314e+17
17.5207608211511,2261062023852354.0,7.135346387712961e+17,4135584152939025.0,1.05804469529636e+16,330088662467209.6,2260784154442553.0,9.01414647957295e+16,6.038252080289019e+17
17.97117603757412,2261088297505130.5,7.316305904930778e+17,4135632208501402.5,1.0580569895506622e+16,338616206298848.44,2319218063031880.0,9.24735793006867e+16,6.195218865215473e+17
18.430599558325603,2261116181940749.0,7.500880433624991e+17,4135683210261368.0,1.0580700375641126e+16,347314107984364.56,2378820759850971.0,9.485233979439443e+16,6.355320689324261e+17
18.899211549492115,2261145664986090.5,7.689142082803418e+17,4135737135953578.0,1.0580838336400524e+16,356185766026540.7,2439615619156691.5,9.727867903343589e+16,6.518620067243828e+17
19.37719578048196,2261176736467181.5,7.881164396484348e+17,4135793966969223.5,1.0580983730173216e+16,365234646564031.44,2501626482731934.0,9.975354842755002e+16,6.685180756579795e+17
19.864739696091597,2261209388110748.0,8.077022382084814e+17,4135853688175955.0,1.0581136518241926e+16,374464284710056.4,2564877669233963.5,1.0227791841257314e+17,6.855067782474356e+17
20.36203449001343,2261243613455060.5,8.276792539365569e+17,4135916287754843.5,1.058129667036649e+16,383878285917517.6,2629393983731146.0,1.0485277883084528e+17,7.028347462644872e+17
20.869275179813698,2261279407768675.5,8.48055288994317e+17,4135981757051724.5,1.0581464164403626e+16,393480327370949.75,2695200727431079.5,1.0747913931922157e+17,7.205087432910692e+17
21.38666068340997,2261316767976044.5,8.688383007379912e+17,4136050090441153.0,1.0581638985958774e+16,403274159405760.25,2762323707603628.5,1.1015802970483555e+17,7.385356673217702e+17
21.91439389707817,2261355692589261.0,8.900364047862602e+17,4136121285201553.0,1.0581821128066756e+16,413263606955250.94,2830789247702517.5,1.1289050040876522e+17,7.569225534169798e+17
22.452681775019734,2261396181645361.0,9.116578781481275e+17,4136195341400550.5,1.058201059089835e+16,423452571025936.2,2900624197689381.0,1.1567762285776102e+17,7.756765764077069e+17
23.00173541052013,2261438236648697.5,9.337111624119305e+17,4136272261789561.0,1.0582207381490616e+16,433845030201687.1,2971855944564213.0,1.185204899041943e+17,7.94805053653041e+17
23.561770118730532,2261481860517990.0,9.56204866996648e+17,4136352051706940.0,1.0582411513499124e+16,444445042177250.7,3044512423106386.0,1.2142021625439246e+17,8.143154478512479e+17
24.133005521105144,2261527057537683.5,9.791477724666883e+17,4136434718989027.5,1.0582623006970334e+16,455256745321703.3,3118622126830382.0,1.2437793890552803e+17,8.34215369905511e+17
24.715665631527248,2261573833313315.0,1.0025488339113526e+18,4136520273888504.5,1.0582841888132752e+16,466284360272405.56,3194214119160592.0,1.2739481759123302e+17,8.545125818453523e+17
25.309978944157795,2261622194730586.0,1.0264171843902163e+18,4136608728999523.5,1.0583068189205352e+16,477532191560038.8,3271318044829511.0,1.3047203523611346e+17,8.752149998047781e+17
25.91617852304095,2261672149917893.0,1.0507621384456508e+18,4136700099189208.0,1.0583301948222322e+16,489004629265320.9,3349964141503867.5,1.3361079841934222e+17,8.963306970582102e+17
26.53450209350177,2261723708212091.0,1.0755931956837784e+18,4136794401534987.0,1.058354320887277e+16,500706150707996.56,3430183251643212.0,1.3681233784751234e+17,9.178679071152947e+17
27.165192135371807,2261776880127240.5,1.100920044425134e+18,4136891655267467.5,1.058379202035451e+16,512641322168718.44,3512006834595642.5,1.4007790883693518e+17,9.398350268756854e+17
27.808495978079243,2261831677326175.0,1.1267525654263636e+18,4136991881718408.5,1.0584048437241002e+16,524814800644442.75,3595466978935413.0,1.4340879180557312e+17,9.622406198449248e+17
28.464665897640828,2261888112594685.0,1.1531008356742797e+18,4137095104273522.5,1.0584312519360576e+16,537231335637973.2,3680596415047286.5,1.4680629277479942e+17,9.850934194125655e+17
29.133959215593645,2261946199818153.5,1.1799751322536558e+18,4137201348329719.5,1.0584584331687042e+16,549895770982296.0,3767428527962516.0,1.5027174388118035e+17,1.0084023321936957e+18
29.816638399905518,2262005953960502.5,1.2073859362901304e+18,4137310641256608.5,1.0584863944241202e+16,562813046700371.2,3855997370451591.0,1.5380650389848262e+17,1.032176441435038e+18
30.51297116790363,2262067391045275.5,1.235343936969634e+18,4137423012361907.0,1.0585151432002342e+16,575988200901037.2,3946337676378789.0,1.5741195877010643e+17,1.0564250104868378e+18
31.223230591261704,2262130528138775.5,1.2638600356357768e+18,4137538492860573.0,1.0585446874829274e+16,589426371711717.9,4038484874323828.0,1.6108952215215587e+17,1.0811574863417564e+18
31.947695203086937,2262195383335083.5,1.292945349966658e+18,4137657115847429.5,1.058575035739025e+16,603132799248617.0,4132475101475960.5,1.6484063596735773e+17,1.1063835032420022e+18
32.686649107148675,2262261975742879.0,1.3226112182325711e+18,4137778916273043.0,1.0586061969101316e+16,617112827625110.8,4228345217805938.5,1.686667709700439e+17,1.1321128863559786e+18
33.44038208929165,2262330325473955.0,1.3528692036361318e+18,4137903930922729.0,1.0586381804072536e+16,631371906999046.4,4326132820521429.0,1.725694273224208e+17,1.1583556555257213e+18
34.20918973107749,2262400453633337.5,1.3837310987363494e+18,4138032198398458.5,1.0586709961061732e+16,645915595659679.6,4425876258811553.5,1.765501351823482e+17,1.1851220290864358e+18
34.993373525699035,2262472382310886.0,1.4152089299582108e+18,4138163759103525.0,1.0587046543435268e+16,660749562154991.5,4527614648886289.0,1.806104553028609e+17,1.2124224277594588e+18
35.793240996213015,2262546134574362.5,1.4473149621893773e+18,4138298655229847.0,1.0587391659135498e+16,675879587460132.4,4631387889316708.0,1.8475197964366122e+17,1.2402674786199995e+18
36.60910581613728,2262621734463839.0,1.480061703465589e+18,4138436930747730.5,1.0587745420654668e+16,691311567187771.6,4737236676682003.0,1.8897633199482973e+17,1.2686680191410232e+18
37.44128793246003,2262699206987380.0,1.5134619097464402e+18,4138578631397998.0,1.0588107945014674e+16,707051513841114.0,4845202521529467.0,1.9328516861298925e+17,1.2976351013146803e+18
38.29011369110923,2262778578117972.0,1.5475285897831877e+18,4138723804686356.0,1.0588479353752738e+16,723105559110391.0,4955327764653676.0,1.976801788701757e+17,1.3271799958526912e+18
