t(s),Total solute volume 1,Total retention volume 1,Total 1 volume 1,Total 2 volume 1,Total 3 volume 1,Total 4 volume 1,Total 5 volume 1,Total 6 volume 1
0.1,878184692305091.0,1002349173156223.1,60489917771387.09,63674563079745.664,0.0,0.0,0.0,0.0
0.202,1249834666587848.5,1573412872433001.2,86089403526617.88,90621799158741.9,308104070033.7069,545230548036.5189,6987637602804.186,139026030938917.22
0.30604000000000003,1489615747131356.0,2053761213044889.0,102605676272619.62,108007613176673.88,741602137946.0498,1312549419069.761,16821745680192.293,334656279227031.7
0.41216080000000005,1663503505960772.8,2496744959215382.0,114583175270601.69,120615698134372.69,1254428048004.3247,2220514419995.315,28458617380209.152,566109020001423.8
0.5204040160000001,1797260730664462.2,2921397239284008.0,123796457654600.22,130314037254966.72,1824811804026.4827,3230653057315.354,41405234348388.81,823565314500244.6
0.6308120963200001,1904022959843333.5,3336790298227966.5,131150307645229.58,138055049429006.0,2440324273359.8857,4321011811509.7466,55380276665932.08,1101420368559594.8
0.7434283382464002,1991485398028884.5,3747996416315352.0,137174775805472.69,144396691080715.75,3093172658416.3735,5477836349834.058,70207500612540.29,1396161041779489.8
0.8582969050113283,2064560020125198.8,4158162625183278.0,142208202078368.84,149695114920618.06,3778190118520.584,6692016542365.23,85770180218132.95,1705458901180071.0
0.9754628431115548,2126571873616471.5,4569394178190232.0,146479617840989.8,154191410265596.88,4491824376383.9375,7957298122426.776,101988189163079.28,2027713964805291.8
1.094972099973786,2179870808741242.0,4983184210260201.0,150150882266373.25,158055957776886.47,5231574142380.048,9269286239009.967,118805231070333.69,2361800470023983.0
1.2168715419732616,2226173486424068.5,5400643508507265.0,153340240046506.38,161413227439330.3,5995652101383.349,10624849629669.775,136181203878163.8,2706914848988142.5
1.3412089728127268,2266767663149383.5,5822632510017770.0,156136392663844.12,164356590650796.28,6782772594746.644,12021745279000.732,154087389799339.9,3062479955880661.0
1.4680331522689813,2302640607034457.0,6249841510937524.0,158607343771760.56,166957631290182.84,7592012343674.909,13458372225849.967,172503300356175.03,3428082243915423.0
1.597393815314361,2334563177598673.0,6682841666495436.0,160806190662317.28,169272242091745.0,8422716071267.098,14933604757566.535,191414538781172.9,3803429196532689.0
1.729341691620648,2363146741774677.5,7122118657061440.0,162775044677162.8,171344751455998.34,9274430811558.217,16446676326807.594,210811312440672.2,4188319699574556.5
1.863928525453061,2388882789407284.0,7568095624667980.0,164547759948195.9,173210795851881.62,10146859140489.473,17997096925327.992,230687374019117.97,4582622949375686.0
2.001207095962122,2412171167013002.0,8021149227890389.0,166151878156805.12,174899366962790.25,11039825226910.56,19584593126256.523,251039253207060.34,4986263144197567.0
2.1412312378813647,2433340614445804.0,8481621146871603.0,167610043112413.22,176434300739212.7,11953249771338.404,21209063842514.152,271865689797186.44,5399208185163134.0
2.284055862638992,2452663971158280.5,8949826500006158.0,168941048169385.44,177835379959566.06,12887131230708.516,22870547201492.84,293167209240054.6,5821461213046654.0
2.4297369798917723,2470369613775192.0,9426060115548184.0,170160624054333.44,179119163534673.25,13841531567884.994,24569195422224.594,314945800756044.3,6253054186437832.0
2.578331719489608,2486650180057231.5,9910601282760792.0,171282039778271.5,180299619056470.8,14816565309521.705,26305255544545.39,337204670444605.7,6694042952570144.0
2.7298983538794,2501669306989949.0,1.0403717405720748e+16,172316566760448.62,181388611356822.1,15812391057069.438,28079054498379.152,359948050015939.94,7144503425042138.0
2.884496320956988,2515566894285568.5,1.0905666852255804e+16,173273841381687.5,182396284148399.25,16829204840020.984,29890987433184.93,383181047305373.7,7604528592861575.0
3.0421862473761276,2528463258494102.0,1.141670120389638e+16,174162151122189.84,183331361226940.56,17867234868684.695,31741508524990.266,406909528541669.5,8074226161117813.0
3.2030299723236504,2540462442481891.0,1.1937067054161954e+16,174988662520515.8,184201386431714.8,18926737361458.78,33631123686498.875,431140025006900.6,8553716676672966.0
3.3670905717701234,2551654874829406.0,1.24670074621817e+16,175759604354588.6,185012916470553.22,20007993205122.574,35560384753464.1,455879658618401.8,9043132029950184.0
3.5344323832055258,2562119523880476.5,1.300676314042419e+16,176480416013972.22,185771677103564.2,21111305266759.688,37529884826784.45,481136082325081.5,9542614251007520.0
3.7051210308696363,2571925655334605.5,1.3556573435258326e+16,177155868563938.1,186482690580929.62,22236996219695.125,39540254527153.125,506917432201995.06,1.0052314537830012e+16
3.879223451487029,2581134276163056.5,1.4116677144624224e+16,177790164203327.0,187150380336973.25,23385406778054.367,41592158976078.54,533232288857353.25,1.0572392469309368e+16
4.0568079205167695,2589799328386359.5,1.4687313206554208e+16,178387018492695.1,187778657547423.3,24556894258532.777,43686295359493.586,560089646309502.3,1.110301536620021e+16
4.237944078927105,2597968681916124.0,1.5268721284509178e+16,178949728741889.38,188370993117421.22,25751831405977.598,45823390962022.805,587498886899646.8,1.1644357771466102e+16
4.422702960505647,2605684964879918.5,1.5861142269692548e+16,179481231203349.06,188930477885914.47,26970605433039.496,48004201584124.55,615469761115478.0,1.2196601027590774e+16
4.61115701971576,2612986261659863.0,1.6464818716132812e+16,179984149153449.8,189459873238362.06,28213617234585.4,50229510272780.61,644012371437487.5,1.2759932933136272e+16
4.803380160110075,2619906702604832.0,1.7079995220998892e+16,180460833512251.0,189961653865013.62,29481280745604.96,52500126310626.75,673137159501882.4,1.3334547464458674e+16
4.9994477633122765,2626476964534994.5,1.7706918760061804e+16,180913397318565.28,190438044051007.1,30774022417581.934,54816884419451.94,702854896015546.1,1.3920644551304672e+16
5.199436718578522,2632724697392135.5,1.8345838986239624e+16,181343745117907.2,190891048611520.94,32092280793172.316,57180644142617.47,733176672968906.2,1.4518429897213344e+16
5.403425452950093,2638674889439324.0,1.8997008497625012e+16,181753598117671.16,191322479371309.12,33436506162870.16,59592289377733.79,764113897779649.0,1.5128114837376446e+16
5.611493962009095,2644350181087142.0,1.9660683080184868e+16,182144515803687.1,191733977919317.56,34807160290369.016,62052728036298.89,795678289068892.4,1.574991622797917e+16
5.823723841249277,2649771135578026.0,2.03371219293649e+16,182517914585124.53,192127035235195.97,36204716195745.79,64562891811281.586,827881873826370.1,1.6384056362133156e+16
6.040198318074262,2654956473286285.5,2.102658785407251e+16,182875083933231.22,192503008677698.56,37629657987521.55,67123736037049.555,860736985764925.5,1.7030762908385846e+16
6.261002284435747,2659923275208441.0,2.172934746590108e+16,183217200397871.72,192863136739166.53,39082480736210.31,69736239628804.055,894256264700008.2,1.76902688684906e+16
6.486222330124463,2664687160263564.5,2.244567135596753e+16,183545339820091.28,193208551901043.94,40563690383220.305,72401405090904.0,928452656818395.1,1.8362812551690324e+16
6.715946776726952,2669262440248639.5,2.3175834261340124e+16,183860488005535.66,193540291869235.16,42073803679995.086,75120258585279.56,963339415723585.6,1.904863756322784e+16
6.950265712261491,2673662255662541.0,2.3920115222706124e+16,184163550080094.6,193859309422296.66,43613348153109.51,77893850052613.53,998930104164310.9,1.9747992805171156e+16
7.18927102650672,2677898695095055.5,2.467879773466778e+16,184455358713495.75,194166481067980.53,45182862091720.07,80723253380176.1,1035238596368110.8,2.046113248795124e+16
7.433056447036854,2681982900452227.5,2.545216988983474e+16,184736681367288.34,194462614672811.03,46782894554328.38,83609566611208.89,1072279080914793.5,2.1188316151262036e+16
7.681717575977592,2685925159937645.0,2.624052451770313e+16,185008226699454.4,194748456203882.78,48414005392278.945,86553912191570.95,1110066064095217.1,2.1929808693183076e+16
7.935351927497144,2689734990418220.5,2.704415931916066e+16,185270650237820.16,195024695700958.5,50076765287793.17,89557437250052.5,1148614373709560.0,2.2685880406556224e+16
8.194058966047088,2693421210560426.5,2.786337699733375e+16,185524559417720.66,195291972579360.8,51771755804663.23,92621313909331.56,1187939163266693.5,2.3456807021795492e+16
8.45794014536803,2696992005920142.5,2.8698485385388536e+16,185770518065433.72,195550880349441.25,53499569449991.58,95746739625027.4,1228055916552360.0,2.424286975542616e+16
8.72709894827539,2700454986999482.0,2.954979757181008e+16,186009050397166.72,195801970826112.0,55260809745584.91,98934937550712.03,1268980452539072.0,2.504435536375203e+16
9.0016409272409,2703817241140861.5,3.041763202360927e+16,186240644593558.16,196045757891528.4,57056091307795.234,102187156927070.5,1310728930614955.0,2.5861556201133524e+16
9.281673745785717,2707085379008055.0,3.1302312707846508e+16,186465756001318.66,196282720865292.2,58886039934758.99,105504673493700.64,1353317856112500.2,2.6694770282430892e+16
9.567307220701432,2710265576301542.5,3.2204169211806452e+16,186684810006611.12,196513307529109.75,60751292700113.5,108888789922273.05,1396764086121347.8,2.7544301349225436e+16
9.85865336511546,2713363611268899.5,3.3123536862112988e+16,186898204618791.16,196737936846556.88,62652498052383.92,112340836269990.88,1441084835571753.0,2.8410458939484576e+16
10.155826432417769,2716384898496867.0,3.406075684303509e+16,187106312798025.22,196957001413240.8,64590315919321.16,115862170452457.61,1486297683577897.2,2.929355846037725e+16
10.458942961066125,2719334519408714.0,3.5016176314200904e+16,187309484555968.06,197170869668075.28,66565417816559.02,119454178735220.73,1532420580032026.5,3.019392126398438e+16
10.768121820287448,2722217249836197.0,3.5990148527907764e+16,187508048854938.7,197379887892442.56,68578486960014.85,123118276243383.27,1579471852442060.0,3.1111874725678676e+16
11.083484256693197,2725037584989430.0,3.698303294619106e+16,187702315327858.62,197584382020679.5,70630218381523.3,126855907488793.61,1627470213006951.5,3.204775232497584e+16
11.405153941827061,2727799762107334.0,3.799519535779437e+16,187892575838430.1,197784659282400.56,72721319047233.73,130668546914420.23,1676434765925207.5,3.3001893728679384e+16
11.733257020663602,2730507781037444.0,3.902700799516084e+16,188079105898687.25,197981009694675.53,74852507978347.78,134557699455599.45,1726385014933065.2,3.3974644876163064e+16
12.067922161076874,2733165422963641.5,4.0078849651553256e+16,188262165958970.4,198173707419918.2,77024516373797.36,138524901117927.25,1777340871070043.2,3.4966358066648964e+16
12.409280604298411,2735776267474486.0,4.115110579839183e+16,188442002583610.84,198363012003470.75,79238087734508.52,142571719571624.2,1829322660670079.5,3.5977392048353984e+16
12.75746621638438,2738343708142728.0,4.224416870288757e+16,188618849524049.28,198549169503214.94,81493977988898.97,146699754762262.0,1882351133577522.0,3.7008112109388856e+16
13.112615540712067,2740870966766356.5,4.335843754603684e+16,188792928699772.9,198732413522157.06,83792955619294.25,150910639537790.38,1936447471587801.5,3.805889017030368e+16
13.474867851526309,2743361106405030.0,4.44943185410321e+16,188964451096272.7,198912966153659.9,86135801788955.53,155206040291855.44,1991633297113181.2,3.913010487818309e+16
13.844365208556836,2745817043330518.5,4.565222505213321e+16,189133617588196.38,199091038847929.88,88523310469424.75,159587657623424.06,2047930682074603.0,4.0222141702199096e+16
14.221252512727972,2748241557996717.5,4.683257771403819e+16,189300619694970.75,199266833207424.0,90956288567904.8,164057227012786.28,2105362157021041.0,4.1335393030537496e+16
14.605677562982532,2750637305123329.5,4.8035804551781176e+16,189465640275372.12,199440541717985.47,93435556054403.36,168616519514021.0,2163950720478335.8,4.24702582686178e+16
14.997791114242183,2753006822977244.0,4.926234110117805e+16,189628854166830.9,199612348421810.0,95961946088367.78,173267342464049.7,2223719848529731.5,4.36271439385301e+16
15.397746936527026,2755352541926672.5,5.051263052983829e+16,189790428774651.56,199782429537680.4,98536305144550.14,178011540208429.62,2284693504630889.5,4.4806463779615336e+16
15.805701875257567,2757676792335325.5,5.178712375874675e+16,189950524615761.62,199950954033350.72,101159493137840.3,182850994844058.5,2346896149662310.5,4.6008638850117976e+16
16.221815912762718,2759981811856879.5,5.308627958442399e+16,190109295821166.38,200118084154444.9,103832383546806.27,187787626978983.6,2410352752222483.5,4.723409762984332e+16
16.64625223101797,2762269752183959.5,5.4410564801656904e+16,190266890600817.1,200283975913806.6,106555863535682.23,192823396509535.72,2475088799165568.0,4.848327612374743e+16
17.079177275638333,2764542685300261.5,5.576045432679505e+16,190423451674263.62,200448779544822.16,109330834074543.4,197960303415020.72,2541130306387219.5,4.975661796639894e+16
17.5207608211511,2766802609279751.5,5.713643132159936e+16,190579116670105.72,200612639921900.5,112158210057403.69,203200388570217.47,2608503829863003.0,5.105457452723693e+16
17.97117603757412,2769051453672432.0,5.853898731762349e+16,190734018496973.1,200775696950983.28,115038920417971.58,208545734575963.62,2677236476943656.0,5.237760501656549e+16
18.430599558325603,2771291084512481.5,5.996862234110671e+16,190888285688480.9,200938085932670.62,117973908242791.2,213998466608097.72,2747355917911849.0,5.372617659221029e+16
18.899211549492115,2773523308981047.0,6.1425845038350776e+16,191042042724411.97,201099937900298.8,120964130881496.27,219560753285069.6,2818890397805441.0,5.510076446677309e+16
19.37719578048196,2775749879752780.0,6.291117280154828e+16,191195410330108.6,201261379935104.47,124010560053897.08,225234807554527.66,2891868748512170.5,5.650185201540978e+16
19.864739696091597,2777972499052958.0,6.442513189502667e+16,191348505755924.38,201422535460387.25,127114181953611.5,231022887599210.22,2966320401141207.0,5.792993088406335e+16
20.36203449001343,2780192822448863.5,6.596825758186661e+16,191501443038384.12,201583524516415.2,130275997347951.22,236927297762480.9,3042275398677097.0,5.938550109807543e+16
20.869275179813698,2782412462397601.5,6.754109425085073e+16,191654333244555.03,201744464017664.38,133497021673761.81,242950389493858.22,3119764408921669.0,6.086907117110157e+16
21.38666068340997,2784632991570061.5,6.9144195543690456e+16,191807284701004.53,201905467993832.22,136778285128909.72,249094562314905.94,3198818737730024.0,6.238115821425177e+16
21.91439389707817,2786855945969206.0,7.07781244824806e+16,191960403208590.53,202066647815933.3,140120832759100.31,255362264805858.94,3279470342546556.0,6.3922288045375496e+16
22.452681775019734,2789082827859207.0,7.244345359731926e+16,192113792244221.53,202228112408680.2,143525724539706.25,261755995613363.56,3361751846247438.0,6.549299529840678e+16
23.00173541052013,2791315108520506.0,7.414076505403222e+16,192267553150625.06,202389968450249.7,146994035452270.1,268278304479741.9,3445696551295957.0,6.70938235326829e+16
23.561770118730532,2793554230844534.5,7.587065078193373e+16,192421785315078.75,202552320560415.2,150526855555343.0,274931793294173.03,3531338454217486.5,6.8725325342146664e+16
24.133005521105144,2795801611780773.5,7.763371260155109e+16,192576586337960.25,202715271477975.5,154125290049304.9,281719117166223.1,3618712260400876.0,7.03880624643378e+16
24.715665631527248,2798058644647685.5,7.943056235223531e+16,192732052191928.0,202878922228315.06,157790459334811.1,288642985522139.8,3707853399233422.0,7.208260588907702e+16
25.309978944157795,2800326701318031.5,8.126182201957805e+16,192888277372448.06,203043372281854.66,161523499064483.6,295706163224354.44,3798798039576546.0,7.380953596674042e+16
25.91617852304095,2802607134288403.5,8.312812386254475e+16,193045355040341.66,203208719704105.3,165325560187479.34,302911471714631.1,3891583105589769.0,7.556944251602002e+16
26.53450209350177,2804901278641809.0,8.503011054023563e+16,193203377156973.16,203375061297971.2,169197808986532.84,310261790181341.7,3986246292910389.5,7.736292493106058e+16
27.165192135371807,2807210453911540.5,8.696843523817494e+16,193362434612631.2,203542492738892.94,173141427107070.12,317760056751298.75,4082826085196921.0,7.919059228785645e+16
27.808495978079243,2809535965853938.0,8.894376179402811e+16,193522617348640.38,203711108703385.9,177157611577990.3,325409269706641.56,4181361771044047.5,8.105306344979328e+16
28.464665897640828,2811879108136947.5,9.095676482263771e+16,193684014473667.84,203881002991468.9,181247574823675.22,333212488727263.56,4281893461277446.0,8.295096717220733e+16
29.133959215593645,2814241163950868.5,9.300812984026778e+16,193846714374676.34,204052268643464.22,185412544666797.12,341172836159253.4,4384462106636731.0,8.488494220583592e+16
29.816638399905518,2816623407547441.0,9.509855338793347e+16,194010804822930.72,204224998051577.1,189653764321481.78,349293498309864.44,4489109515855147.0,8.685563739902494e+16
30.51297116790363,2819027105712403.5,9.722874315369766e+16,194176373075436.9,204399283066681.28,193972492376353.88,357577726769520.44,4595878374144659.0,8.886371179855256e+16
31.223230591261704,2821453519176891.5,9.939941809379934e+16,194343505972154.62,204575215100648.03,198370002766999.75,366028839761369.9,4704812262095457.0,9.090983474892573e+16
31.947695203086937,2823903903972336.0,1.016113085524792e+17,194512290029322.6,204752885224584.7,202847584737370.06,374650223518909.2,4815955674998882.0,9.299468598999787e+16
32.686649107148675,2826379512733000.5,1.0386515638036186e+17,194682811529184.6,204932384263282.78,207406542789611.28,383445333692220.1,4929354042603277.0,9.511895575275125e+16
33.44038208929165,2828881595950515.0,1.0616171505124163e+17,194855156606396.28,205113802886177.25,212048196621835.38,392417696783347.0,5045053749311801.0,9.728334485308162e+16
34.20918973107749,2831411403183982.5,1.0850174977712331e+17,195029411331379.66,205297231695085.34,216773881053297.22,401570911611363.94,5163102154832528.0,9.948856478341557e+16
34.993373525699035,2833970184229111.0,1.108860376213479e+17,195205661790855.03,205482761308984.16,221584945936452.44,410908650807689.44,5283547615290015.0,1.0173533780198464e+17
35.793240996213015,2836559190249801.5,1.1331536760964382e+17,195383994165784.28,205670482446051.5,226482756055355.97,420434662342203.5,5406439504808810.0,1.0402439701957592e+17
36.60910581613728,2839179674875077.0,1.1579054083891886e+17,195564494806930.4,205860486003205.78,231468691009848.9,430152771080721.2,5531828237578910.0,1.0635648648356406e+17
37.44128793246003,2841832895264269.0,1.1831237058361882e+17,195747250308222.25,206052863133334.22,236544145084957.97,440066880374421.4,5659765290413788.0,1.0873236125903958e+17
38.29011369110923,2844520113142989.5,1.2088168239945614e+17,195932347578121.34,206247705320416.66,241710527104951.44,450180973681769.7,5790303225811149.0,1.111527875068166e+17
39.15591596493141,2847242595812587.0,1.2349931422431667e+17,196119873909146.03,206445104452707.62,246969260271443.72,460499116223533.8,5923495715527609.0,1.1361854255811958e+17
40.03903428423004,2850001617135081.0,1.2616611647613584e+17,196309917045720.8,206645152894159.47,252321781984975.5,471025456671487.94,6059397564677910.0,1.1613041498572627e+17
40.93981496991464,2852798458496042.0,1.288829521475353e+17,196502565250494.5,206847943554234.12,257769543649439.9,481764228871362.1,6198064736369921.0,1.1868920467134384e+17
41.85861126931294,2855634409747275.0,1.3165069689699594e+17,196697907369276.9,207053569956255.6,263314010458760.22,492719753600638.25,6339554376886556.0,1.2129572286897722e+17
42.7957834946992,2858510770131262.0,1.3447023913634371e+17,196896032894712.12,207262126304436.56,268956661165185.0,503896440361802.7,6483924841426093.0,1.2395079226406042e+17
