t(s),Total solute volume 1,Total retention volume 1,Total 1 volume 1,Total 2 volume 1,Total 3 volume 1,Total 4 volume 1,Total 5 volume 1,Total 6 volume 1
0.1,1252217186918146.0,2056959543180943.2,321479351742078.75,483263004520719.3,0.0,0.0,0.0,0.0
0.202,1883733785994076.5,3094405584512254.5,483607422831787.5,726981655953015.1,26845304.52690852,82163581.12233946,2390464328.8522034,80220260158.25145
0.30604000000000003,2365408985234051.0,3885758774255566.5,607266989459803.4,912872597830241.0,68092911.9735336,208408130.85251245,6064416075.010075,203860814350.5921
0.41216080000000005,2772943589389180.0,4555360537842616.0,711892580385023.9,1070150759966175.2,120936896.49621049,370145325.1728651,10771482362.708652,362345537655.5057
0.5204040160000001,3134896475905016.5,5150119351349252.0,804816062729088.5,1209837755524497.8,184130040.7459848,563557811.111937,16400503998.447735,551908998802.6938
0.6308120963200001,3465518688348948.5,5693442671810697.0,889696080126978.6,1337433431991872.0,257003303.030561,786597864.5887524,22891863339.304947,770535878392.7101
0.7434283382464002,3773098453156180.0,6198944001178850.0,968660453355929.2,1456136430854760.5,339174289.0843224,1038095099.8056905,30211487503.212822,1017075055091.8253
0.8582969050113283,4062947191702017.5,6675347498117277.0,1043072773624930.6,1567996567293835.5,430427400.0038403,1317389637.938776,38340165747.84349,1290877513709.2156
0.9754628431115548,4338705391894524.5,7128632889747719.0,1113867656537548.1,1674418799935661.2,530654766.906207,1624151326.5938203,47268285859.050255,1591618288029.8662
1.094972099973786,4602994813649670.0,7563106718068749.0,1181718181577638.5,1776414933866120.8,639823537.7660941,1958279615.2684674,56992919194.589745,1919197952968.5212
1.2168715419732616,4857776685228545.0,7981990671634560.0,1247127851181184.0,1874741857885899.5,757956220.2129606,2319843391.0168405,67516069198.69096,2273683470124.181
1.3412089728127268,5104563024455349.0,8387768674316939.0,1310484842834834.8,1969983098846999.2,885118140.8274604,2709042595.448516,78843554048.45422,2655270464969.441
1.4680331522689813,5344548489563365.0,8782403444674184.0,1372095858895357.2,2062599706311841.0,1021409073.2142484,3126182601.0071673,90984260749.66583,3064258051195.011
1.597393815314361,5578696437601281.0,9167477842198634.0,1432208220202208.0,2152963464722613.5,1166957450.05385,3571656495.9689617,103949629464.00854,3501031429125.47
1.729341691620648,5807797216337860.0,9544290608006550.0,1491024831248410.0,2241379389757871.2,1321916251.651164,4045932500.648724,117753287207.42583,3966049526464.6616
1.863928525453061,6032508894428183.0,9913923261169654.0,1548714636759426.8,2328101447159127.0,1486460024.1338544,4549544841.093316,132410782195.07759,4459836035854.204
2.001207095962122,6253386482635973.0,1.0277288092269266e+16,1605420123602479.8,2413343829957655.5,1660782683.5708776,5083087028.217436,147939388207.01495,4982972815226.994
2.1412312378813647,6470903380557175.0,1.0635163387880956e+16,1661262826763510.8,2497289235320823.5,1845095882.1512263,5647206857.219888,164357959029.347,5536094977687.025
2.284055862638992,6685467432082224.0,1.0988219800358e+16,1716347451235737.2,2580095060770948.0,2039627786.1539896,6242602667.356592,181686819582.62338,6119887219057.972
2.4297369798917723,6897433155732280.0,1.1337040435211052e+16,1770765011890825.8,2661898124188912.5,2244622162.175983,6870020545.187644,199947684513.16614,6735081071822.31
2.578331719489608,7107111205789358.0,1.1682136390369572e+16,1824595262417020.2,2742818315109398.0,2460337698.647628,7530252247.963471,219163597746.27356,7382452866093.23
2.7298983538794,7314775792456506.0,1.2023958943401726e+16,1877908600282837.5,2822961458352917.0,2687047510.177595,8224133686.588857,239358888327.54797,8062822239934.573
2.884496320956988,7520670573518306.0,1.2362909228386028e+16,1930767579292022.5,2902421587770249.5,2925038786.3462405,8952543850.696682,260559139133.0149,8777051083675.295
3.0421862473761276,7725013384708400.0,1.269934600553909e+16,1983228124001834.8,2981282771813805.0,3174612556.4311333,9716404088.550924,282791165907.4474,9526042832516.047
3.2030299723236504,7928000076219093.0,1.3033591962836934e+16,2035340514662958.5,3059620594146066.0,3436083548.5840483,10516677676.03412,306083004717.1605,10310742042876.105
3.3670905717701234,8129807653019133.0,1.3365938874275472e+16,2087150193427355.5,3137503365569587.5,3709780127.081512,11354369624.591814,330463906358.1899,11132134203265.893
3.5344323832055258,8330596867051216.0,1.3696651857961916e+16,2138698429838233.5,3214993124423128.0,3996044295.026994,12230526689.502682,355964336595.3529,11991245741758.639
3.7051210308696363,8530514373598957.0,1.4025972918459828e+16,2190022874430112.2,3292146468779555.0,4295231752.685719,13146237548.421406,382615981357.4262,12889144200558.904
3.879223451487029,8729694537942640.0,1.4354123914827704e+16,2241158022548106.8,3369015253681101.5,4607712003.750854,14102633126.623236,410451756202.3456,13826938554528.559
4.0568079205167695,8928260959039418.0,1.4681309063956376e+16,2292135605519494.5,3445647179167003.0,4933868503.458648,15100887050.334652,439505819510.5576,14805779655396.934
4.237944078927105,9126327762442130.0,1.5007717064959974e+16,2342984922582307.5,3522086289244372.5,5274098843.721347,16142216213.362652,469813588976.1076,15826860787139.8
4.422702960505647,9324000703672420.0,1.5333522912311592e+16,2393733124152275.0,3598373397708480.5,5628814971.422864,17227881445.22409,501411761052.0358,16891418320946.002
4.61115701971576,9521378114853156.0,1.5658889451601078e+16,2444405454849932.0,3674546453472702.0,5998443436.791531,18359188271.331024,534338333075.1828,18000732460501.863
4.803380160110075,9718551720911180.0,1.598396872112779e+16,2495025463042838.0,3750640855562344.0,6383425669.376059,19537487757.660572,568632627850.0173,19156128070161.355
4.9994477633122765,9915607346606564.0,1.6308903114238184e+16,2545615182359863.5,3826689725975495.0,6784218279.641315,20764177433.837452,604335320514.7689,20358975580043.28
5.199436718578522,1.0112625531675422e+16,1.6633826390800164e+16,2596195289615632.5,3902724147082612.5,7201293384.596819,22040702289.773914,641488467548.5227,21610691963288.55
5.403425452950093,1.0309682068235742e+16,1.695886456105308e+16,2646785242777727.0,3978773369025328.0,7635138956.194622,23368555841.99792,680135537806.6415,22912741781680.87
5.611493962009095,1.0506848472105712e+16,1.7284136660966056e+16,2697403401967343.5,4054864991610423.0,8086259191.497641,24749281266.614487,720321445495.632,24266638296631.727
5.823723841249277,1.0704192397679726e+16,1.7609755434946212e+16,2748067135969618.0,4131025124421200.0,8555174903.840368,26184472596.516644,762092585018.0507,25673944643190.484
6.040198318074262,1.0901778004390176e+16,1.793582793908233e+16,2798792916314682.5,4207278528244628.0,9042423934.38592,27675775981.023785,805496867634.3954,27136275065290.08
6.261002284435747,1.1099666281470856e+16,1.826245607595368e+16,2849596400653563.0,4283648740405865.5,9548561583.63815,29224891006.5948,850583759902.6324,28655296210901.293
6.486222330124463,1.1297915336665534e+16,1.858973707027499e+16,2900492506877792.5,4360158186188479.0,10074161062.596834,30833572077.66292,897404323867.6205,30232728486159.418
6.715946776726952,1.1496580653647224e+16,1.8917763893203124e+16,2951495479206140.0,4436828278179123.0,10619813963.356134,32503629856.979626,946011258982.5737,31870347467862.08
6.950265712261491,1.1695715322187386e+16,1.9246625641942148e+16,3002618947275563.5,4513679505095871.0,11186130749.040962,34236932765.145275,996458945753.2119,33569985374021.05
7.18927102650672,1.189537024451461e+16,1.9576407880294464e+16,3053875979119250.5,4590731511427311.0,11773741263.059616,36035408539.260544,1048803491102.645,35333532592402.89
7.433056447036854,1.2095594320800648e+16,1.9907192944987016e+16,3105279128786149.5,4668003169016434.0,12383295257.72236,37901045850.85078,1103102775461.4336,37162939267207.96
7.681717575977592,1.2296434616295096e+16,2.0239060221911164e+16,3156840479249031.0,4745512641562293.0,13015462942.340063,39835895983.412254,1159416501593.013,39060216944228.83
7.935351927497144,1.2497936512277074e+16,2.057208639584155e+16,3208571681158163.0,4823277442876037.0,13670935550.973387,41842074570.101395,1217806245169.5854,41027440275000.32
8.194058966047088,1.2700143842697758e+16,2.0906345676710976e+16,3260483987921203.5,4901314489614943.0,14350425930.053068,43921763392.2446,1278335507118.2324,43066748780603.586
8.45794014536803,1.2903099018136388e+16,2.1241910005107812e+16,3312588287526211.0,4979640149120161.0,15054669146.138433,46077212239.48267,1341069767760.9705,45180348675924.93
8.72709894827539,1.3106843138479586e+16,2.1578849239313816e+16,3364895131469611.0,5058270282902635.0,15784423114.122519,48310740832.49681,1406076542776.2537,47370514755296.99
9.0016409272409,1.3311416095553334e+16,2.191723132590109e+16,3417414761104703.0,5137220286251393.0,16540469246.230274,50624740809.3744,1473425441012.7827,49639592340560.164
9.281673745785717,1.351685666678133e+16,2.225712245565424e+16,3470157131686374.0,5216505124378774.0,17323613122.19261,53021677776.788086,1543188224189.6958,51989999292695.555
9.567307220701432,1.3723202600810832e+16,2.259858720636553e+16,3523131934353676.0,5296139365465606.0,18134685181.011086,55504093427.25514,1615438868520.1377,54424228088272.01
9.85865336511546,1.3930490695932828e+16,2.2941688673860476e+16,3576348616262489.0,5376137210925666.0,18974541434.760216,58074607723.84947,1690253628298.0044,56944847962055.23
10.155826432417769,1.4138756872024856e+16,2.3286488592454388e+16,3629816399055299.0,5456512523170192.0,19844064204.904182,60735921153.81877,1767711101490.2913,59554507117200.53
10.458942961066125,1.4348036236659182e+16,2.363304744589481e+16,3683544295832935.0,5537278851120808.0,20744162881.63178,63490817052.65653,1847892297380.0405,62255935004553.18
10.768121820287448,1.455836314594525e+16,2.3981424569727668e+16,3737541126774602.5,5618449453690141.0,21675774706.742275,66342164000.25337,1930880706307.1672,65051944672646.1
11.083484256693197,1.4769771260610644e+16,2.433167824591659e+16,3791815533535488.0,5700037321424982.0,22639865580.64009,69292918290.83936,2016762371557.1316,67945435190079.01
11.405153941827061,1.4982293597769272e+16,2.4683865790453932e+16,3846375992536987.0,5782055196484889.0,23637430894.02355,72346126478.5043,2105625963449.2253,70939394142025.97
11.733257020663602,1.5195962578775412e+16,2.5038043634620884e+16,3901230827252293.5,5864515591110400.0,24669496384.875374,75504928000.16177,2197562855679.011,74036900202707.95
12.067922161076874,1.5410810073520248e+16,2.5394267400483464e+16,3956388219578485.5,5947430804718127.0,25737119021.39143,78772557877.89731,2292667203971.2925,77241125785729.72
12.409280604298411,1.5626867441489092e+16,2.575259197115087e+16,4011856220377119.5,6030812939745836.0,26841387911.505016,82152349502.721,2391036027102.313,80555339774264.34
12.75746621638438,1.5844165569864208e+16,2.6113071556264068e+16,4067642759256315.0,6114673916357362.0,27983425239.690258,85647737501.81023,2492769290352.1587,83982910333132.73
13.112615540712067,1.6062734908929722e+16,2.6475759753140212e+16,4123755653660078.5,6199025486106165.0,29164387231.75304,89262260691.41252,2597969991450.2324,87527307804906.69
13.474867851526309,1.6282605505007646e+16,2.684070960394962e+16,4180202617324064.0,6283879244646304.0,30385465148.340588,92999565117.6493,2706744249079.2036,91192107692230.64
13.844365208556836,1.6503807031132668e+16,2.7207973649269944e+16,4236991268150527.5,6369246643570615.0,31647886307.926125,96863407187.5306,2819201394004.643,94980993728635.45
14.221252512727972,1.6726368815651942e+16,2.7577603978325864e+16,4294129135550775.5,6455139001448032.0,32952915140.049503,100857656892.57426,2935454062899.9326,98897761040185.7
14.605677562982532,1.695031986891835e+16,2.794965227619237e+16,4351623667297998.5,6541567514125298.0,34301854269.618748,104986301127.49399,3055618294938.2837,102946319400382.52
14.997791114242183,1.717568890822965e+16,2.832416986821597e+16,4409482235929964.0,6628543264351598.0,35696045633.10344,109253447106.4956,3179813631225.642,107130696580809.83
15.397746936527026,1.7402504381151534e+16,2.870120776188237e+16,4467712144736566.0,6716077230779529.0,37136871627.47431,113663325879.79988,3308163217150.9097,111455041800100.47
15.805701875257567,1.7630794487349428e+16,2.9080816686338584e+16,4526320633364791.0,6804180296390518.0,38625756292.76974,118220295953.08711,3440793907731.661,115923629273855.83
16.221815912762718,1.786058719904298e+16,2.94630471297595e+16,4585314883069844.0,6892863256388865.0,40164166529.19634,122928847012.63753,3577836376036.319,120540861868250.9
16.64625223101797,1.809191028018626e+16,2.9847949374731236e+16,4644702021639345.0,6982136825603676.0,41753613349.694984,127793603759.02144,3719425224765.7144,125311274860118.8
17.079177275638333,1.832479130446745e+16,3.023557353180794e+16,4704489128014319.0,7072011645435633.0,43395653168.93204,132819329852.27457,3865699101079.5366,130239539806396.28
17.5207608211511,1.8559257672214668e+16,3.062596957138698e+16,4764683236629324.0,7162498290381194.0,45091889129.69977,138010931971.56992,4016800814755.3853,135330468525890.2
17.97117603757412,1.879533662628451e+16,3.101918735403327e+16,4825291341491615.0,7253607274164555.0,46843972467.741295,143373463992.49762,4172877459770.7466,140589017196405.98
18.430599558325603,1.9033055267006172e+16,3.141527665937359e+16,4886320400017633.0,7345349055504859.0,48653603916.038536,148912131285.12363,4334080539400.6045,146020290570367.2
18.899211549492115,1.9272440566245504e+16,3.1814287213670492e+16,4947777336643688.0,7437734043543924.0,50522535149.633575,154632295136.11304,4500566094925.841,151629546312130.56
19.37719578048196,1.9513519380649416e+16,3.2216268716178996e+16,5009669046226093.0,7530772602957601.0,52452570272.07998,160539477298.26544,4672494838050.21,157422199460297.56
19.864739696091597,1.9756318464124136e+16,3.2621270864378012e+16,5072002397244821.0,7624475058771473.0,54445567344.65143,166639364670.91867,4850032287126.452,163403827018408.22
20.36203449001343,2.000086447959947e+16,3.3029343378162868e+16,5134784234823576.0,7718851700900924.0,56503439959.464905,172937814114.7598,5033348907294.215,169580172677483.22
20.869275179813698,2.0247184010122804e+16,3.3440536023078304e+16,5198021383577991.0,7813912788432668.0,58628158857.70304,179440857404.67188,5222620254635.998,175957151673990.56
21.38666068340997,2.0495303569326824e+16,3.3854898632665736e+16,5261720650303085.0,7909668553664564.0,60821753594.15608,186154706324.34845,5418027124459.105,182540855786880.6
21.91439389707817,2.0745249611309436e+16,3.427248112999071e+16,5325888826509518.0,8006129205918325.0,63086314249.330536,193085757906.49533,5619755703815.31,189337558477455.0
22.452681775019734,2.099704853996067e+16,3.4693333548415452e+16,5390532690818261.0,8103304935139240.0,65423993190.40716,200240599822.54242,5827997728371.995,196353720175907.38
23.00173541052013,2.1250726717770796e+16,3.5117506051672996e+16,5455659011221724.0,8201205915295395.0,67837006882.35969,207626015925.8875,6042950643752.195,203595993718487.72
23.561770118730532,2.1506310474149376e+16,3.5545048953297604e+16,5521274547219649.0,8299842307588039.0,70327637750.58424,215248991952.78802,6264817771463.037,211071229939330.7
24.133005521105144,2.176382611328251e+16,3.59760127354609e+16,5587386051836133.0,8399224263484158.0,72898236096.41626,223116721385.13617,6493808479536.08,218786483421101.0
24.715665631527248,2.2023299921554988e+16,3.6410448067261176e+16,5654000273525249.0,8499361927580748.0,75551222066.95364,231236611479.4391,6730138358005.275,226749018408702.25
25.309978944157795,2.2284758174560916e+16,3.684840582250887e+16,5721123957970747.0,8600265440310380.0,78289087680.63428,239616289466.448,6974029399351.707,234966314890403.1
25.91617852304095,2.254822714372373e+16,3.7289937097048136e+16,5788763849785678.0,8701944940496047.0,81114398910.05173,248263608925.97852,7225710184047.866,243446074850853.28
26.53450209350177,2.28137331025472e+16,3.773509322565395e+16,5856926694117134.0,8804410567763610.0,84029797823.53508,257186656341.58566,7485416071336.431,252196228700545.16
27.165192135371807,2.3081302332514772e+16,3.818392579853845e+16,5925619238160857.0,8907672464818479.0,87038004787.04822,266393757839.8574,7753389395382.931,261224941886420.44
27.808495978079243,2.335096112865533e+16,3.863648667750122e+16,5994848232590080.0,9011740779593686.0,90141820728.00642,275893486119.2219,8029879666944.245,270540621688407.7
28.464665897640828,2.3622735804790936e+16,3.9092828011753384e+16,6064620432902802.0,9116625667275024.0,93344129462.64433,285694667573.25977,8315143780698.634,280151924206799.1
29.133959215593645,2.389665269848164e+16,3.95530022534456e+16,6134942600691098.0,9222337292209244.0,96647900088.60698,295806389613.6505,8609446228386.344,290067761545503.94
29.816638399905518,2.417273817567905e+16,4.001706217292735e+16,6205821504836121.0,9328885829700374.0,100056189444.4819,306238008197.9934,8913059317913.41,300297309196314.7
30.51297116790363,2.445101863510447e+16,4.048506087376344e+16,6277263922631843.0,9436281467698886.0,103572144638.01703,316999155567.8682,9226263398574.688,310850013629454.5
31.223230591261704,2.473152051235993e+16,4.0957051807531464e+16,6349276640840573.0,9544534408388770.0,107199005644.82394,328099748202.62213,9549347092556.066,321735600095795.7
31.947695203086937,2.501427028378482e+16,4.14330887884252e+16,6421866456683029.0,9653654869675298.0,110940107979.40018,339549994994.49927,9882607532879.197,332964080646266.5
32.686649107148675,2.5299294470066492e+16,4.1913226007683944e+16,6495040178765334.0,9763653086579032.0,114798885440.34491,351360405650.8582,10226350607956.053,344545762374071.94
33.44038208929165,2.5586619639615316e+16,4.239751804786938e+16,6568804627945415.0,9874539312537948.0,118778872931.69017,363541799329.3567,10580891212924.13,356491255885512.5
34.20918973107749,2.587627241171099e+16,4.28860198970098e+16,6643166638140799.0,9986323820621938.0,122883709362.30855,376105313512.1,10946553507937.463,368811484005286.9
34.993373525699035,2.6168279459429228e+16,4.3378786962630856e+16,6718133057079977.0,1.0099016904662026e+16,127117140625.40448,389062413124.9047,11323671183591.63,381517690722308.3
35.793240996213015,2.646266751235446e+16,4.387587508568944e+16,6793710746998860.0,1.0212628880297578e+16,131483022660.13951,402424899907.9425,11712587733666.338,394621450382208.7
36.60910581613728,2.675946335908637e+16,4.437734055442865e+16,6869906585284062.0,1.0327170085943338e+16,135985324597.48785,416204922044.1965,12113656735371.316,408134677132804.06
37.44128793246003,2.705869384954438e+16,4.488324011817072e+16,6946727465064924.0,1.044265088367909e+16,140628131992.4607,430414984052.2595,12527242137287.107,422069634628990.8
38.29011369110923,2.736038589707807e+16,4.539363100106278e+16,7024180295754963.0,1.05590816600638e+16,145415650144.8933,445067956950.1926,12953718555194.904,436438946003609.56
39.15591596493141,2.7664566480385556e+16,4.590857091578953e+16,7102272003544498.0,1.0676472826876234e+16,150352207511.01834,460177088697.2672,13393471575995.193,451255604111015.44
40.03903428423004,2.7971262645246428e+16,4.64281180772699e+16,7181009531845619.0,1.0794834821783688e+16,155442259208.11957,475756014920.57434,13846898069917.988,466532982050203.8
40.93981496991464,2.8280501506072652e+16,4.6952331216349384e+16,7260399841690232.0,1.0914178108940324e+16,160690390614.5811,491818769933.6377,14314406511231.934,482284843974483.56
41.85861126931294,2.8592310247280636e+16,4.748126959350158e+16,7340449912082357.0,1.1034513179517006e+16,166101321067.71948,508379798054.2883,14796417307664.72,498525356194850.0
42.7957834946992,2.8906716124488576e+16,4.801499301255322e+16,7421166740305526.0,1.1155850552163132e+16,171679907661.8177,525453965229.2383,15293363138750.111,515269098584333.6
