t(s),Total solute volume 1,Total retention volume 1,Total 1 volume 1,Total 2 volume 1,Total 3 volume 1,Total 4 volume 1,Total 5 volume 1,Total 6 volume 1
0.1,1144268928618327.0,1596229672649425.0,193012778181123.2,258947965849975.12,0.0,0.0,0.0,0.0
0.202,1526503929675588.2,2621313401770714.0,257487344319094.47,345447732217352.44,286320530793.63025,735694028640.8936,16493336264677.873,474359044734566.2
0.30604000000000003,1733986816546080.2,3548027982141502.0,292485104493174.1,392401098426228.8,656945510347.1018,1688053476261.0225,37846088527087.25,1088963875162320.2
0.41216080000000005,1865640378779180.0,4443473540377242.5,314692139808387.56,422194292492782.9,1070817461990.5085,2751593301075.479,61692156081359.69,1775432162452464.2
0.5204040160000001,1956687774222539.8,5330062999807627.0,330049815623411.6,442798313314425.5,1512426199418.4568,3886467498298.2935,87137977214579.36,2507990225734962.5
0.6308120963200001,2023314609269601.5,6217919819779111.0,341288284663122.0,457875962699993.56,1974541275798.5603,5074103140185.877,113767056068163.33,3274625262662244.0
0.7434283382464002,2074091796012769.8,7112493838953262.0,349853269651511.1,469366837555749.9,2453385815129.475,6304800632100.651,141361880299169.5,4069061868986830.0
0.8582969050113283,2114002052514578.8,8017095837233536.0,356585244584042.0,478398526688967.5,2946847051754.6733,7573136123286.548,169800820717206.12,4887789209553694.0
0.9754628431115548,2146143837329407.5,8933931414619716.0,362006850679868.4,485672211092257.5,3453696495919.827,8875957915722.031,199013201622071.56,5728765659484474.0
1.094972099973786,2172545516496269.8,9864584037143438.0,366460228291021.44,491646909885517.7,3973210964555.0884,10211412800752.463,228957466762475.3,6590789291942857.0
1.2168715419732616,2194590205409375.0,1.0810263981815382e+16,370178678300708.8,496635622005643.1,4504973040198.96,11578433393702.525,259609682900733.28,7473166386765024.0
1.3412089728127268,2213252950376135.5,1.177194658834584e+16,373326669390199.06,500859000378863.56,5048759259645.414,12976450869500.055,290957097884776.0,8375525660186717.0
1.4680331522689813,2229240467844130.0,1.2750453714792522e+16,376023408946255.94,504476974899455.5,5604474247833.972,14405225744187.123,322994345864611.4,9297708817246028.0
1.597393815314361,2243077188664372.2,1.3746504099149484e+16,378357356819449.9,507608224241449.0,6172110284846.956,15864744001323.322,355721117864726.56,1.0239703357273312e+16
1.729341691620648,2255160234179201.5,1.476074577362744e+16,380395498570538.9,510342616944111.56,6751721612442.394,17355151088708.291,389140681606601.7,1.1201599869625824e+16
1.863928525453061,2265795664876374.5,1.5793777653632856e+16,382189459814243.5,512749414480281.94,7343407620294.13,18876708729986.07,423258912966286.44,1.2183564085145372e+16
2.001207095962122,2275223039225566.0,1.6846164349298798e+16,383779648750126.25,514882828919679.56,7947301562623.768,20429765945857.03,458083646093625.6,1.318581811880132e+16
2.1412312378813647,2283632451924507.0,1.7918446595930038e+16,385198130136737.25,516785878683049.94,8563562820251.843,22014739184979.367,493624227826200.06,1.420862760535433e+16
2.284055862638992,2291176604337105.0,1.9011148772729264e+16,386470661306740.8,518493120081644.44,9192371494024.223,23632098445363.438,529891206448482.7,1.52522927106159e+16
2.4297369798917723,2297979515988004.0,2.012478443875427e+16,387618161602787.9,520032618727961.2,9833924566233.34,25282357424939.824,566896110812219.1,1.6317141749632138e+16
2.578331719489608,2304142917314741.5,2.125986048941703e+16,388657790692995.56,521427396215222.8,10488433138093.096,26966066437383.277,604651291473487.4,1.7403526594145128e+16
2.7298983538794,2309751011696742.5,2.2416880334812296e+16,389603751819588.0,522696507764274.7,11156120419215.201,28683807260629.105,643169805175240.8,1.8511819330676624e+16
2.884496320956988,2314874071228195.5,2.3596346372545456e+16,390467898326014.8,523855855946804.6,11837220251372.336,30436189358732.16,682465330131124.6,1.964240980730318e+16
3.0421862473761276,2319571185624102.5,2.479876194392379e+16,391260197336420.7,524918812762634.4,12531976017642.64,32223847094506.97,722552103531030.9,2.079570382155744e+16
3.2030299723236504,2323892387595121.5,2.602463290662014e+16,391989088259231.06,525896700611943.9,13240639833425.715,34047437667025.516,763444875304616.8,2.1972121777348776e+16
3.3670905717701234,2327880313264787.5,2.7274468919113824e+16,392661762862707.0,526799168047599.0,13963471946303.477,35907639586369.88,805158873935400.2,2.317209768947064e+16
3.5344323832055258,2331571511807150.5,2.8548784506142532e+16,393284386181753.6,527634486146081.25,14700740292521.318,37805151551483.29,847709781316730.8,2.4396078448846844e+16
3.7051210308696363,2334997487581976.0,2.9848099956127236e+16,393862272303018.5,528409784342639.25,15452720172271.785,39740691633982.836,891113714471111.5,2.564452328562224e+16
3.879223451487029,2338185536233216.0,3.1172942088547344e+16,394400025396156.4,529131239640328.1,16219694016079.914,41714996696787.48,935387212537302.8,2.691790338402749e+16
4.0568079205167695,2341159420619742.0,3.2523844919887812e+16,394901653728341.3,529804229573097.94,17001951221781.6,43728821994899.4,980547227844107.8,2.821670161490582e+16
4.237944078927105,2343939921160105.5,3.3901350249958936e+16,395370662495225.5,530433456748791.0,17799788046762.227,45782940918972.82,1026611120188025.9,2.954141236040109e+16
4.422702960505647,2346545286913003.0,3.5306008185357816e+16,395810129908208.6,531023050928630.25,18613507543885.918,47878144851977.945,1073596653648825.4,3.0892541411563264e+16
4.61115701971576,2348991607607076.0,3.67383776130893e+16,396222769947608.1,531576653217539.4,19443419532312.812,50015243116374.04,1121521995436565.8,3.227060592423178e+16
4.803380160110075,2351293122272549.5,3.8199026634541624e+16,396610984421968.7,532097485907474.06,20289840596451.938,52195062994479.41,1170405716381802.0,3.3676134421966916e+16
4.9994477633122765,2353462476690759.5,3.968853296786721e+16,396976906394096.56,532588410738239.4,21153094107834.38,54418449808672.99,1220266792769252.2,3.510966683735831e+16
5.199436718578522,2355510939265650.0,4.120748432517323e+16,397322436593779.9,533051977749187.9,22033510265849.156,56686267051040.31,1271124609282038.8,3.6571754584965656e+16
5.403425452950093,2357448582920148.0,4.275647876966013e+16,397649274099679.7,533490466442378.06,22931426154167.38,58999396554346.08,1322998962874450.5,3.806296066061503e+16
5.611493962009095,2359284439075941.5,4.433612505685414e+16,397958942312301.9,533905920628178.1,23847185810354.215,61358738697950.48,1375910067430169.8,3.9583859762899224e+16
5.823723841249277,2361026628573914.0,4.594704296330671e+16,398252811037367.44,534300178052558.7,24781140306691.824,63765212643631.14,1429878559092970.0,4.11350384335996e+16
6.040198318074262,2362682473452534.0,4.75898636055238e+16,398532115340352.0,534674895692538.5,25733647840640.113,66219756597313.33,1484925502180359.5,4.2717095214420056e+16
6.261002284435747,2364258592760906.5,4.926522975139723e+16,398797971708015.9,535031571438673.06,26705073833679.754,68723328093528.39,1541072395608864.8,4.43306408179536e+16
6.486222330124463,2365760984996089.0,5.0973796126028776e+16,399051391953757.75,535371562750615.1,27695791037531.594,71276904300062.36,1598341179774096.2,4.597629831121658e+16
6.715946776726952,2367195099286397.0,5.271622971351866e+16,399293295224652.94,535696102765892.0,28706179646942.44,73881482340764.64,1656754243840183.2,4.765470331041378e+16
6.950265712261491,2368565897067289.0,5.4493210056044696e+16,399524518404809.8,536006314257157.44,29736627418386.082,76538079634893.64,1716334433402208.0,4.936650418585998e+16
7.18927102650672,2369877905694141.5,5.630542955134907e+16,399745825158659.75,536303221764764.9,30787529794151.867,79247734251697.03,1777105058492541.5,5.111236227619304e+16
7.433056447036854,2371135265191566.0,5.81535937495844e+16,399957913816519.0,536587762176122.0,31859290031395.047,82011505279190.14,1839089901907899.2,5.289295211118167e+16
7.681717575977592,2372341769139510.0,6.003842165033556e+16,400161424271179.7,536860793978232.9,32952319335804.766,84830473206303.14,1902313227838589.8,5.470896164256597e+16
7.935351927497144,2373500900533953.5,6.196064600051808e+16,400356944026805.6,537123105372954.9,34067036999610.15,87705740317740.88,1966799790785398.8,5.6561092482481624e+16
8.194058966047088,2374615863326017.0,6.392101359376286e+16,400545013518881.1,537375421414308.25,35203870543700.76,90638431101042.33,2032574844752605.8,5.8450060149106296e+16
8.45794014536803,2375689610233343.0,6.592028557182071e+16,400726130805378.7,537618410302187.0,36363255863679.11,93629692665436.08,2099664152708288.8,6.037659431924246e+16
8.72709894827539,2376724867326391.0,6.795923772845375e+16,400900755713916.1,537852688946234.1,37545637379702.375,96680695172190.9,2168093996305156.5,6.2341439087610216e+16
9.0016409272409,2377724155816420.0,7.003866081622807e+16,401069313516909.7,538078827896465.56,38751468189996.02,99792632276233.69,2237891185857029.2,6.434535323267501e+16
9.281673745785717,2378689811408918.0,7.215936085657789e+16,401232198196065.44,538297355722947.56,39981210227950.81,102966721578876.1,2309083070567426.5,6.638911048887568e+16
9.567307220701432,2379624001533210.0,7.432215945347363e+16,401389775348633.94,538508762914855.9,41235334422733.18,106204205091546.28,2381697549008136.5,6.847349982515457e+16
9.85865336511546,2380528740714712.0,7.65278941109934e+16,401542384780369.9,538713505359222.44,42514320863353.88,109506349710467.28,2455763079846504.0,7.0599325729718696e+16
10.155826432417769,2381405904318831.0,7.877741855506973e+16,401690342823815.7,538912007451164.7,43818658966159.7,112874447702266.02,2531308692821290.5,7.276740850098637e+16
10.458942961066125,2382257240863801.5,8.107160305966733e+16,401833944415216.2,539104664880299.75,45148847645718.23,116309817200528.28,2608363999967530.0,7.497858454469418e+16
10.768121820287448,2383084383073282.0,8.341133477761662e+16,401973464958835.94,539291847131930.7,46505395489081.9,119813802713344.48,2686959207091519.5,7.723370667715864e+16
11.083484256693197,2383888857816297.5,8.579751807632374e+16,402109162003612.6,539473899736465.56,47888820933419.52,123387775641916.73,2767125125497753.0,7.953364443469427e+16
11.405153941827061,2384672095063146.0,8.823107487855565e+16,402241276753815.1,539651146296127.44,49299652447018.35,127033134810321.61,2848893183969988.5,8.187928438921525e+16
11.733257020663602,2385435435968858.5,9.071294500848973e+16,402370035432550.2,539823890314253.1,50738428713657.555,130751307006536.28,2932295441008971.0,8.427153047004477e+16
12.067922161076874,2386180140182004.5,9.324408654320906e+16,402495650514589.9,539992416849268.0,52205698820365.445,134543747534859.2,3017364597330154.5,8.671130429197776e+16
12.409280604298411,2386907392464005.5,9.582547616981214e+16,402618321842907.06,540156994012638.94,53702022448574.2,138411940779866.94,3104134008624487.0,8.919954548963966e+16
12.75746621638438,2387618308693870.5,9.845810954830091e+16,402738237641539.1,540317874327745.56,55227970068688.91,142357400782066.8,3192637698586180.5,9.173721205820093e+16
13.112615540712067,2388313941324029.0,1.0114300168040581e+17,402855575435865.25,540475295964533.56,56784123138093.484,146381671825409.12,3282910372211327.5,9.432528070050638e+16
13.474867851526309,2388995284345068.5,1.0388118728449694e+17,402970502890051.4,540629483863037.44,58371074302615.41,150486329036846.8,3374987429371692.0,9.69647471806877e+16
13.844365208556836,2389663277810449.0,1.066737211767317e+17,403083178570262.9,540780650757321.1,59989427601476.64,154672978998125.2,3468904978668041.0,9.965662668432605e+16
14.221252512727972,2390318811966220.5,1.0952167865857872e+17,403193752641261.94,540928998110032.7,61639798675755.68,158943260370006.06,3564699851567821.5,1.0240195418524755e+17
14.605677562982532,2390962731025609.0,1.1242615591086082e+17,403302367503094.1,541074716966594.4,63322814980393.97,163298844529137.34,3662409616832006.0,1.0520178481902392e+17
14.997791114242183,2391595836623938.5,1.1538827039445317e+17,403409158373858.4,541217988737051.5,65039115999771.28,167741436217777.7,3762072595236277.5,1.0805719426326453e+17
15.397746936527026,2392218890985245.0,1.1840916125777066e+17,403514253823839.6,541358985912671.56,66789353466887.414,172272774206610.62,3863727874591754.0,1.1096927912478379e+17
15.805701875257567,2392832619828545.5,1.2148998975117784e+17,403617776265741.7,541497872723645.56,68574191586176.945,176894631970872.6,3967415325070808.5,1.1393915733373189e+17
16.221815912762718,2393437715038796.5,1.2463193964845096e+17,403719842405208.6,541634805743512.56,70394307259993.28,181608818380042.0,4073175614843587.5,1.1696796854477997e+17
16.64625223101797,2394034837124656.5,1.2783621767542542e+17,403820563655399.7,541769934445355.9,72250390318792.94,186417178401330.2,4181050226031019.5,1.2005687454544875e+17
17.079177275638333,2394624617483063.5,1.3110405394594893e+17,403920046518972.56,541903401714278.3,74143143755054.92,191321593817232.9,4291081470980276.5,1.2320705967167995e+17
17.5207608211511,2395207660488377.0,1.3443670240527605e+17,404018392940475.44,542035344320173.4,76073283960966.61,196323983957402.62,4403312508868939.5,1.2641973123073974e+17
17.97117603757412,2395784545422129.5,1.378354412810235e+17,404115700631856.0,542165893354433.75,78041540969911.16,201426306445103.88,4517787362643984.0,1.2969611993155614e+17
18.430599558325603,2396355828257735.0,1.4130157354181558e+17,404212063373493.25,542295174633816.75,80048658701788.92,206630557958532.6,4634550936302183.0,1.3303748032258784e+17
18.899211549492115,2396922043312982.0,1.4483642736373914e+17,404307571292949.7,542423309074421.3,82095395212205.78,211938775007274.88,4753649032518486.0,1.3644509123732077e+17
19.37719578048196,2397483704782095.0,1.484413566047391e+17,404402311123381.44,542550413038376.2,84182522945560.33,217353034724194.34,4875128370629122.0,1.3992025624749616e+17
19.864739696091597,2398041308157686.5,1.521177412870699e+17,404496366443404.5,542676598655642.7,86310828992063.25,222875455673038.0,4999036604976412.0,1.4346430412417165e+17
20.36203449001343,2398595331552231.5,1.558669880879318e+17,404589817899985.7,542801974123052.7,88481115348717.05,228508198672065.3,5125422343622257.0,1.470785893067134e+17
20.869275179813698,2399146236927482.0,1.596905308384094e+17,404682743415825.75,542926643982532.6,90694199184291.52,234253467634002.66,5254335167437759.0,1.5076449237982762e+17
21.38666068340997,2399694471239688.5,1.6358983103083814e+17,404775218382530.7,543050709380264.7,92950913108319.64,240113510422632.06,5385825649576076.0,1.5452342055872858e+17
21.91439389707817,2400240467507620.5,1.675663783347153e+17,404867315840761.0,543174268308375.9,95252105444144.95,246090619726344.3,5519945375336347.0,1.5835680818255142e+17
22.452681775019734,2400784645809711.0,1.7162169112128234e+17,404959106648429.8,543297415830601.2,97598640506048.28,252187133948967.4,5656746962426265.0,1.6226611721611216e+17
23.00173541052013,2401327414216237.5,1.7575731699689286e+17,405050659637942.5,543420244293224.94,99991398880478.78,258405438118215.28,5796284081631190.0,1.662528377601158e+17
23.561770118730532,2401869169661698.5,1.7997483334529037e+17,405142041763342.7,543542843522508.7,102431277711415.58,264747964812083.0,5938611477897881.0,1.7031848856992134e+17
24.133005521105144,2402410298762268.5,1.842758478789071e+17,405233318238202.44,543665301009673.44,104919190989882.39,271217195103545.72,6083784991841098.0,1.744646175829625e+17
24.715665631527248,2402951178582642.0,1.886619991993186e+17,405324552664972.25,543787702084443.9,107456069847638.4,277815659523902.0,6231861581681404.0,1.7869280245493363e+17
25.309978944157795,2403492177356339.0,1.9313495736694976e+17,405415807156477.1,543910130078049.56,110042862855064.66,284545939045129.3,6382899345622718.0,1.8300465110483622e+17
25.91617852304095,2404033655163055.0,1.9769642448017053e+17,405507142450177.7,544032666476510.5,112680536323264.66,291410666081608.75,6536957544678474.0,1.874018022689977e+17
26.53450209350177,2404575964566474.0,2.023481352638795e+17,405598618015741.7,544155391064967.8,115370074610397.44,298412525511599.44,6694096625955160.0,1.9188592606415517e+17
27.165192135371807,2405119451215458.5,2.070918576677051e+17,405690292156468.56,544278382063748.7,118112480432255.14,305554255718838.94,6854378246402399.0,1.964587245597157e+17
27.808495978079243,2405664454411649.0,2.1192939347392995e+17,405782222105015.2,544401716256793.06,120908775177099.17,312838649654651.0,7017865297038834.0,2.0112193235928582e+17
28.464665897640828,2406211307645771.5,2.168625789152522e+17,405874464113873.1,544525469113041.94,123759999224763.38,320268555920964.25,7184621927663345.0,2.0587731719157027e+17
29.133959215593645,2406760339105309.0,2.218932853024998e+17,405967073540988.06,544649714901303.5,126667212270035.47,327846879874636.75,7354713572061155.0,2.107266805107464e+17
29.816638399905518,2407311872155429.5,2.270234196624048e+17,406060104930888.94,544774526799098.3,129631493650316.7,335576584753495.9,7528206973714697.0,2.156718581064009e+17
30.51297116790363,2407866225795341.0,2.3225492538554627e+17,406153612091669.44,544899976995935.2,132653942677564.28,343460692824513.2,7705170212029376.0,2.20714720723132e+17
31.223230591261704,2408423715091940.0,2.37589782884572e+17,406247648168122.44,545026136791432.7,135735678974517.31,351502286554530.7,7885672729084376.0,2.258571746899068e+17
31.947695203086937,2408984651592273.5,2.4303001026280112e+17,406342265711324.3,545153076688673.44,138877842815199.81,359704509803979.94,8069785356918848.0,2.3110116255927085e+17
32.686649107148675,2409549343716560.5,2.4857766399331517e+17,406437516744925.4,545280866483139.5,142081595469693.6,368070569044027.0,8257580345364592.0,2.3644866375649226e+17
33.44038208929165,2410118097133188.5,2.5423483960863427e+17,406533452828399.6,545409575347567.4,145348119553173.5,376603734597589.5,8449131390435340.0,2.41901695238739e+17
34.20918973107749,2410691215116882.0,2.6000367240108234e+17,406630125117466.7,545539271913014.56,148678619379185.7,385307341904686.44,8644513663284501.0,2.474623121643667e+17
34.993373525699035,2411268998891511.5,2.6588633813393472e+17,406727584421910.1,545670024346423.1,152074321317154.78,394184792812581.9,8843803839742120.0,2.5313260857240285e+17
35.793240996213015,2411851747958495.0,2.7188505376344298e+17,406825881260975.94,545801900424951.1,155536474154097.47,403239556891194.25,9047080130442726.0,2.589147180723105e+17
36.60910581613728,2412439760411977.0,2.7800207817183126e+17,406925065916531.94,545934967607284.6,159066349460512.84,412475172774248.4,9254422311555920.0,2.6481081454410483e+17
37.44128793246003,2413033333241708.0,2.842397129113465e+17,407025188484162.25,546069293102190.56,162665241960421.75,421895249526668.06,9465911756131558.0,2.708231128488999e+17
38.29011369110923,2413632762624594.0,2.906003029594517e+17,407126298922340.1,546204943934485.25,166334469905518.72,431503468038697.9,9681631466071558.0,2.7695386954995478e+17
39.15591596493141,2414238344205756.5,2.9708623748524454e+17,407228447099836.7,546341987008640.4,170075375453394.6,441303582447260.25,9901666104741296.0,2.8320538364428842e+17
40.03903428423004,2414850373369826.0,3.036999506271703e+17,407331682841487.9,546480489170184.7,173889325049787.34,451299421585070.0,1.012610203023251e+16,2.895799973049212e+17
40.93981496991464,2415469145503374.5,3.104439222821178e+17,407436055972454.56,546620517265081.2,177777709814804.94,461494890458027.5,1.0355027329291256e+16,2.960800966338123e+17
41.85861126931294,2416094956249022.5,3.1732067890594746e+17,407541616361088.3,546762138197236.25,181741945933070.6,471893971751413.6,1.0588531851923936e+16,3.027081124255324e+17
42.7957834946992,2416728101751934.0,3.2433279432553965e+17,407648413960509.2,546905418984284.8,185783475047719.4,482500727365443.75,1.0826707246694386e+16,3.0946652094173594e+17
