t(s),Total solute volume 1,Total retention volume 1,Total 1 volume 1,Total 2 volume 1,Total 3 volume 1,Total 4 volume 1,Total 5 volume 1,Total 6 volume 1
0.1,1012905215437994.5,1251976985692815.0,109237715628389.53,129834054626431.92,0.0,0.0,0.0,0.0
0.202,1522171414223870.8,1889042560246602.0,164160008383064.22,195111730261857.2,8386610008.940601,17884489315.48091,303297192081.4538,7269839086401.718
0.30604000000000003,1907378623364922.5,2376805647648620.5,205703042367909.16,244487539640346.0,21227676455.331657,45268216081.64751,767695248106.6373,18402251134799.426
0.41216080000000005,2230882715539146.5,2791516064126400.5,240591645610781.9,285954251493306.8,37614926475.225235,80214317173.62885,1360344399992.426,32609277839528.156
0.5204040160000001,2516089592701970.5,3161727852938600.0,271350049656549.78,322512031351674.1,57133258664.11684,121837620592.27638,2066232734380.041,49530975614765.98
0.6308120963200001,2774675822349454.5,3501662616147211.0,299237524919675.94,355657580119583.8,79549936983.40407,169641848446.98645,2876943818472.949,68965553154590.74
0.7434283382464002,3013433254941861.0,3819585947256097.5,324986544905750.0,386261476299660.2,104722281445.17133,223322767758.63043,3787318169101.3184,90789307890524.0
0.8582969050113283,3236714172196833.5,4120795230857511.0,349066485532650.3,414881594790438.56,132559645024.6592,282687106614.2254,4794078115630.355,114923653470318.14
0.9754628431115548,3447500440786710.0,4408924112039134.0,371798929017787.2,441900150869242.94,163004622708.32898,347612482755.6876,5895148217319.237,141318826042602.75
1.094972099973786,3647937644573313.5,4686593229633621.0,393415267871792.75,467592165192525.4,196022605415.36154,418025127547.9148,7089277479513.889,169944826783511.84
1.2168715419732616,3839628576640223.0,4955767262726257.0,414088356822999.3,492163083566183.1,231595472001.21875,493886434367.8143,8375811225718.591,200785952564765.47
1.3412089728127268,4023806489226079.0,5217965400773584.0,433951197119557.25,515770984099290.06,269717538553.7116,575184320645.5009,9754544605462.357,233837283863987.6
1.4680331522689813,4201443260161285.0,5474392567949069.0,453108601840597.56,538540441963736.2,310392830690.3745,661927411190.8722,11225623948850.816,269102319792713.75
1.597393815314361,4373320040518802.5,5726025016688539.0,471644814958620.4,560571585000815.94,353633176061.9375,754140970600.7058,12789477784036.527,306591324279604.7
1.729341691620648,4540075141611787.0,5973668270655255.0,489628675757818.56,581946231870264.4,399456828861.71094,851863970163.2045,14446767094778.572,346320133521570.06
1.863928525453061,4702237519045099.0,6217997589895869.0,507117229953117.7,602732184031572.2,447887452488.6821,955146918522.9012,16198348530700.307,388309273964378.7
2.001207095962122,4860250812969976.0,6459586988670867.0,524158322334075.75,622986307220665.8,498953350964.33844,1064050222812.3317,18045246613787.582,432583295958584.75
2.1412312378813647,5014491005487408.0,6698930524713702.0,540792501044147.94,642756794773518.4,552686877768.7212,1178642928131.0576,19988632361315.773,479170261241435.5
2.284055862638992,5165279649459814.0,6936458231978950.0,557054444254352.3,662084863293514.5,609123974147.9639,1299001733124.586,22029806591180.535,528101342672818.8
2.4297369798917723,5312893953530743.0,7172548254938442.0,572974047791685.5,681006045347914.0,668303803808.5626,1425210211110.748,24170186713126.754,579410507540061.8
2.578331719489608,5457574589977096.0,7407536234427618.0,588577267184309.6,699551190277335.5,730268460640.7399,1557358186944.1128,26411296161153.37,633134264180124.2
2.7298983538794,5599531823349716.0,7641722668880131.0,603886778610552.9,717747249764088.2,795062732644.8273,1695541233737.4307,28754755858586.465,689311457330791.5
2.884496320956988,5738950380883968.0,7875378760112632.0,618922504152933.9,735617902120766.9,862733909721.3569,1839860263126.9622,31202277269573.004,747983101512543.6
3.0421862473761276,5875993366468754.0,8108751108344295.0,633702033903820.6,753184053982273.5,933331626130.2311,1990421189474.6355,33755656704480.766,809192244469363.2
3.2030299723236504,6010805438066126.0,8342065521944973.0,648240968637247.0,770464247587044.2,1006907730669.0326,2147334653186.821,36416770627863.77,872983854642836.8
3.3670905717701234,6143515411180565.0,8575530138065878.0,662553200582499.0,787474994489401.1,1083516179248.9412,2310715791801.7104,39187571776546.82,939404728065813.9
3.5344323832055258,6274238410236198.0,8809338001036440.0,676651145441420.1,804231051322798.5,1163212945745.773,2480684050054.6772,42070085938745.12,1008503411101473.8
3.7051210308696363,6403077660314009.0,9043669209875310.0,690545935619995.9,820745649464450.8,1246055947898.5122,2657363022039.0234,45066409277498.07,1080330136229448.1
3.879223451487029,6530125990184555.0,9278692720281636.0,704247582324337.6,837030687693887.2,1332104985703.8926,2840880320021.3647,48178706106149.664,1154936768666965.2
4.0568079205167695,6655467101630251.0,9514567867235724.0,717765112451919.8,853096894894501.6,1421421690272.2273,3031367465573.043,51409207042293.99,1232376762060901.2
4.237944078927105,6779176648101535.0,9751445659932062.0,731106684920293.1,868953968315555.4,1514069481508.7974,3228959799529.594,54760207481035.76,1312705121832616.0
4.422702960505647,6901323156699288.0,9989469889858318.0,744279690099129.0,884610691751765.1,1610113533296.2114,3433796407954.0806,58234066339669.43,1395978375027208.5
4.61115701971576,7021968820548933.0,1.0228778084496002e+16,757290835264555.8,900075037109711.0,1709620745097.9927,3646020061801.995,61833205034734.07,1482254545731152.8
4.803380160110075,7141170183282406.0,1.0469502332682308e+16,770146218417765.5,915354252144649.9,1812659719097.8557,3865777168399.8345,65560106659426.29,1571593135290564.8
4.9994477633122765,7258978733178017.0,1.0711770002663312e+16,782851392360571.9,930454936617270.4,1919300742144.614,4093217733180.7163,69417315334972.055,1664055106697161.2
5.199436718578522,7375441421236044.0,1.095570436993821e+16,795411420567779.4,945383108700564.4,2029615771897.6145,4328495330387.1104,73407435714084.64,1759702872617471.2
5.403425452950093,7490601114879583.0,1.1201425168887078e+16,807830926116964.1,960144263135144.6,2143678426669.294,4571767081667.647,77533132618307.66,1858600286628745.0
5.611493962009095,7604496996907651.0,1.144904907969994e+16,820114134713953.1,974743422366996.4,2261563978544.2085,4823193641671.266,81797130794040.25,1960812637297050.0
5.823723841249277,7717164917672781.0,1.169869016014186e+16,832264912673741.2,989185181689537.6,2383349349422.0938,5082939189887.614,86202214774501.88,2066406644791984.0
6.040198318074262,7828637707119911.0,1.1950460230089188e+16,844286800572632.0,1003473749240760.4,2509113109688.67,5351171428102.294,90751228836934.75,2175450459781180.2
6.261002284435747,7938945452239203.0,1.2204469215473358e+16,856183043170382.5,1017612981567064.2,2638935479264.7256,5628061582935.373,95447077046025.25,2288013664388456.5
6.486222330124463,8048115744599479.0,1.2460825457210134e+16,867956616105690.2,1031606415352070.2,2772898330823.037,5913784413014.924,100292723375946.62,2404167275033124.0
6.715946776726952,8156173901902042.0,1.2719635989823832e+16,879610249789875.2,1045457295815365.1,2911085194995.3794,6208518220407.202,105291191904599.72,2523983746996565.5
6.950265712261491,8263143166895246.0,1.298100679375754e+16,891146450858989.5,1059168602209331.9,3053581267419.6475,6512444865983.709,110445567074640.98,2647536980585925.0
7.18927102650672,8369044886492161.0,1.3245043024769592e+16,902567521490960.9,1072743070778440.5,3200473417500.383,6825749788455.802,115758994016719.4,2774902328785331.0
7.433056447036854,8473898673520251.0,1.3511849223320894e+16,913875576849620.0,1086183215492301.5,3351850198775.85,7148622026849.627,121234678931075.08,2906156606302024.0
7.681717575977592,8577722553185347.0,1.3781529506445878e+16,925072560880233.4,1099491346819382.9,3507801860801.9883,7481254246230.341,126875889524260.38,3041378099929589.0
7.935351927497144,8680533096040728.0,1.4054187744252058e+16,936160260649713.8,1112669588770985.5,3668420362477.895,7823842766515.815,132685955498272.78,3180646580163388.0
8.194058966047088,8782345539007742.0,1.4329927722903876e+16,947140319398173.6,1125719894413643.8,3833799386750.1665,8176587594246.716,138668269089843.03,3324043314013472.0
8.45794014536803,8883173895786125.0,1.4608853295696228e+16,958014248446239.0,1138644060021503.2,4004034356644.05,8539692457202.653,144826285658008.22,3471651078970513.5
8.72709894827539,8983031057815803.0,1.489106852361699e+16,968783438083370.8,1151443738017603.2,4179222452578.82,8913364841774.209,151163524318443.7,3623554178087414.0
9.0016409272409,9081928886802124.0,1.5176677806616546e+16,979449167546336.8,1164120448833715.8,4359462630932.9395,9297816033017.83,157683568623312.7,3779838456147100.5
9.281673745785717,9179878299687298.0,1.5465786006651742e+16,990012614183032.0,1176675591802025.0,4544855643831.196,9693261157335.72,164390067285657.38,3940591316892585.0
9.567307220701432,9276889346841276.0,1.5758498563440236e+16,1000474861885059.9,1189110455177590.2,4735504060132.734,10099919227735.857,171286734947560.72,4105901741300872.0
9.85865336511546,9372971284150094.0,1.6054921603748502e+16,1010836908862142.0,1201426225378608.0,4931512287603.775,10518013191638.064,178377352991525.56,4275860306886906.5
10.155826432417769,9468132639597356.0,1.6355162044940894e+16,1021099674822693.0,1213623995520865.8,5132986596263.428,10947769981203.93,185665770394659.9,4450559208027849.0
10.458942961066125,9562381274865452.0,1.6659327693432162e+16,1031264007617229.2,1225704773313706.8,5340035142895.643,11389420566173.88,193155904625427.84,4630092277301268.0
10.768121820287448,9655724442419308.0,1.6967527338614166e+16,1041330689394657.5,1237669488377101.0,5552767996723.162,11843200009206.09,200851742582837.28,4814555007834354.0
11.083484256693197,9748168838484576.0,1.7279870842764096e+16,1051300442315715.1,1249518999032315.5,5771297166242.947,12309347523715.35,208757341578063.94,5004044576663434.0
11.405153941827061,9839720652283874.0,1.7596469227385904e+16,1061173933862932.6,1261254098613042.5,5995736627225.124,12788106534217.941,216876830358595.62,5198659869106001.0
11.733257020663602,9930385611854722.0,1.7917434756389994e+16,1070951781781892.8,1272875521338320.5,6226202351879.851,13279724739192.352,225214410175078.1,5398501504148899.0
12.067922161076874,1.0020169026737772e+16,1.824288101647254e+16,1080634558684995.1,1284383947784331.8,6462812339198.453,13784454176471.242,233774355891116.2,5603671860858681.0
12.409280604298411,1.0109075827791926e+16,1.8572922995020548e+16,1090222796345346.2,1295780009987855.2,6705686646477.377,14302551291182.701,242561017136343.78,5814275105821446.0
12.75746621638438,1.0197110604366016e+16,1.8907677155834812e+16,1099716989705582.9,1307064296210977.0,6954947422034.49,14834277006263.684,251578819503144.84,6030417221620739.0
13.112615540712067,1.0284277639032862e+16,1.9247261512935484e+16,1109117600623779.4,1318237355393255.0,7210718939129.026,15379896795569.773,260832265787441.0,6252206036363442.0
13.474867851526309,1.0370580940069526e+16,1.959179570269017e+16,1118425061376337.8,1329299701315051.2,7473127631097.488,15939680759609.06,270325937274025.44,6479751254264511.0
13.844365208556836,1.0456024271849808e+16,1.9941401054479612e+16,1127639777935684.5,1340251816493261.2,7742302127718.822,16513903703929.877,280064495066931.84,6713164487302292.0
14.221252512727972,1.054061118329803e+16,2.0296200660100508e+16,1136762133038894.2,1351094155828472.8,8018373292822.854,17102845220193.566,290052681465383.25,6952559287956763.0
14.605677562982532,1.0624345034537978e+16,2.065631944208342e+16,1145792489061658.2,1361827150020852.5,8301474263156.985,17706789769965.207,300295321385875.8,7198051183043934.0
14.997791114242183,1.070722902185896e+16,2.102188422109044e+16,1154731190710788.2,1372451208770274.5,8591740488526.247,18326026771256.715,310797323830981.3,7449757708659634.0
15.397746936527026,1.0789266201108356e+16,2.1393023782543876e+16,1163578567547016.8,1382966723774796.8,8889309773222.812,18960850687856.75,321563683405464.4,7707798446247091.0
15.805701875257567,1.0870459509610786e+16,2.1769868942622456e+16,1172334936348858.0,1393374071540240.2,9194322318760.963,19611561121485.05,332599481880323.2,7972295059802006.0
16.221815912762718,1.0950811786704006e+16,2.2152552613754056e+16,1181000603327361.8,1403673616012480.0,9506920767933.988,20278462906805.56,343909889805392.06,8243371334230080.0
16.64625223101797,1.1030325792974178e+16,2.25412098697199e+16,1189575866200520.5,1413865711043033.2,9827250250209.768,20961866209337.69,355500168171120.1,8521153214871497.0
17.079177275638333,1.1109004228265734e+16,2.2935978010480896e+16,1198061016135584.8,1423950702697525.5,10155458428481.434,21662086626301.49,367375670120167.8,8805768848207103.0
17.5207608211511,1.1186849748534702e+16,2.333699662682559e+16,1206456339566615.0,1433928931415987.0,10491695547190.523,22379445290435.355,379541842709469.6,9097348623761172.0
17.97117603757412,1.1263864981608406e+16,2.3744407664933244e+16,1214762119894109.2,1443800734032914.8,10836114481838.744,23114268976823.793,392004228723394.56,9396025217215770.0
18.430599558325603,1.1340052541909904e+16,2.415835549093982e+16,1222978639072968.0,1453566445664640.5,11188870789905.72,23866890212771.742,404768468538648.8,9701933634750990.0
18.899211549492115,1.141541504420041e+16,2.4578986955588304e+16,1231106179094562.5,1463226401470854.0,11550122763188.766,24637647390765.316,417840302041556.56,1.0015211258627006e+16
19.37719578048196,1.1489955116389144e+16,2.5006451459039268e+16,1239145023368218.5,1472780938296537.5,11920031481582.107,25426884884553.93,431225570598370.25,1.0335997894020842e+16
19.864739696091597,1.156367541145646e+16,2.5440901015914164e+16,1247095458007084.0,1482230396200293.2,12298760868310.807,26234953168392.55,444930219079214.9,1.0664435817134408e+16
20.36203449001343,1.1636578618532796e+16,2.588249032063904e+16,1254957773022948.2,1491575119874446.2,12686477746636.691,27062208939479.844,458960297936318.06,1.1000669824586378e+16
20.869275179813698,1.1708667473173184e+16,2.6331376813151828e+16,1262732263434298.5,1500815459962006.2,13083351898051.629,27909015243629.855,473321965337137.9,1.1344847284103546e+16
21.38666068340997,1.177994476686437e+16,2.6787720745035172e+16,1270419230291640.5,1509951774275300.5,13489556121974.121,28775741604212.043,488021489352999.7,1.1697118186524706e+16
21.91439389707817,1.1850413355799412e+16,2.7251685246131036e+16,1278018981623780.2,1518984428920715.8,13905266296964.793,29662764154395.688,503065250203859.8,1.205763519913191e+16
22.452681775019734,1.1920076168952236e+16,2.772343639169225e+16,1285531833308660.0,1527913799333671.2,14330661443476.201,30570465772735.496,518459742559787.94,1.2426553720321736e+16
23.00173541052013,1.1988936215483696e+16,2.820314327012477e+16,1292958109872045.0,1536740271227945.5,14765923788151.867,31499236222130.668,534211577899771.06,1.280403193563104e+16
23.561770118730532,1.205699659150763e+16,2.869097805136783e+16,1300298145217227.0,1545464241462922.2,15211238829689.498,32449472292194.15,550327486928424.56,1.3190230875129748e+16
24.133005521105144,1.2124260486245146e+16,2.9187116055963184e+16,1307552283288745.0,1554086118832475.5,15666795406282.885,33421577945064.746,566814322051191.1,1.3585314472194248e+16
24.715665631527248,1.2190731187593446e+16,2.9691735824857376e+16,1314720878672956.0,1562606324778773.0,16132785764657.129,34415964464696.805,583679059908598.1,1.3989449623674246e+16
25.309978944157795,1.2256412087134654e+16,3.0205019189983284e+16,1321804297138204.8,1571025294034285.0,16609405630710.785,35433050609660.33,600928803970160.0,1.4402806251465574e+16
25.91617852304095,1.2321306684608418e+16,3.0727151345662348e+16,1328802916117191.2,1579343475195110.0,17096854281779.662,36473262769483.81,618570787188459.1,1.4825557365501926e+16
26.53450209350177,1.238541859187198e+16,3.1258320920871188e+16,1335717125134048.0,1587561331228567.5,17595334620535.047,37537035124574.05,636612374713994.6,1.5257879128177502e+16
27.165192135371807,1.2448751536369894e+16,3.179872005241118e+16,1342547326178518.8,1595679339917932.0,18105053250530.73,38624809809743.85,655061066671337.8,1.5699950920213286e+16
27.808495978079243,1.2511309364134704e+16,3.234854445902178e+16,1349293934029601.0,1603697994247093.8,18626220553411.58,39737037081380.86,673924500997133.1,1.6151955407978504e+16
28.464665897640828,1.2573096042340198e+16,3.29079935164757e+16,1355957376530854.2,1611617802727783.5,19159050767797.402,40874175488288.63,693210456340524.1,1.661407861228024e+16
29.133959215593645,1.2634115661426344e+16,3.3477270333692476e+16,1362538094819617.2,1619439289671989.5,19703762069854.363,42036692046232.805,712926855026512.4,1.708650997863199e+16
29.816638399905518,1.269437243681651e+16,3.405658182990912e+16,1369036543512179.2,1627162995412064.5,20260576655567.95,43225062416222.37,733081766082817.5,1.7569442449013804e+16
30.51297116790363,1.275387071024568e+16,3.464613881294129e+16,1375453190847016.2,1634789476470951.2,20829720824729.47,44439771086560.95,753683408330779.5,1.8063072535135544e+16
31.223230591261704,1.2812614950717772e+16,3.5246156058572364e+16,1381788518788054.8,1642319305684927.0,21411425066649.242,45681311558695.43,774740153540822.4,1.8567600393215516e+16
31.947695203086937,1.2870609755111062e+16,3.585685239110408e+16,1388043023089926.8,1649753072281163.2,22005924147609.016,46950186536897.87,796260529653063.4,1.9083229900284356e+16
32.686649107148675,1.2927859848448178e+16,3.647845076510267e+16,1394217213327145.5,1657091381912380.2,22613457200066.727,48246908121809.95,818253224063582.0,1.9610168732029548e+16
33.44038208929165,1.2984370083849e+16,3.7111178348374744e+16,1400311612888977.5,1664334856650785.2,23234267813625.75,49571998007883.28,840727086976908.6,2.014862844218759e+16
34.20918973107749,1.3040145442182554e+16,3.7755266606205944e+16,1406326758941907.0,1671484134943439.0,23868604127781.457,50925987684746.734,863691134825297.5,2.0698824543500176e+16
34.993373525699035,1.3095191031434384e+16,3.841095138689433e+16,1412263202361430.8,1678539871531200.8,24516718926458.703,52309418642535.57,887154553755320.2,2.1260976590242948e+16
35.793240996213015,1.3149512085805532e+16,3.907847300861202e+16,1418121507634872.2,1685502737333195.0,25178869734351.383,53722842581212.48,911126703182383.6,2.1835308262340556e+16
36.60910581613728,1.3203113964558968e+16,3.975807634762722e+16,1423902252736981.5,1692373419298999.2,25855318915078.387,55166821623915.98,935617119413688.1,2.2422047451079636e+16
37.44128793246003,1.3256002150628524e+16,4.045001092791588e+16,1429606028979906.5,1699152620230288.5,26546333771168.688,56641928534369.63,960635519340266.9,2.302142634643138e+16
38.29011369110923,1.3308182249005558e+16,4.1154531012198696e+16,1435233440839189.2,1705841058574046.2,27252186645887.91,58148746938384.9,986191804198651.6,2.3633681525996956e+16
39.15591596493141,1.3359659984917342e+16,4.18718956944306e+16,1440785105757346.8,1712439468189087.0,27973155026921.07,59687871549495.04,1012296063402786.9,2.425905404558761e+16
40.03903428423004,1.3410441201812368e+16,4.2602368993776536e+16,1446261653926569.0,1718948598087828.2,28709521651923.098,61259908398752.79,1038958578446790.5,2.4897789531452348e+16
40.93981496991464,1.3460531859166134e+16,4.334621995010302e+16,1451663728052082.5,1725369212154988.8,29461574615952.586,62865475068730.21,1066189826879178.4,2.555013827416589e+16
41.85861126931294,1.3509938030120426e+16,4.410372272101515e+16,1456991983097582.2,1731702088845027.2,30229607480801.355,64505200931755.92,1094000486349206.1,2.621635532419043e+16
42.7957834946992,1.3558665898970448e+16,4.487515668047308e+16,1462247086014169.2,1737948020860040.0,31013919386234.484,66179727392427.03,1122401438725952.8,2.689670058912383e+16
