t(s),Total solute volume 1,Total retention volume 1,Total 1 volume 1,Total 2 volume 1,Total 3 volume 1,Total 4 volume 1,Total 5 volume 1,Total 6 volume 1
0.1,988500314890707.8,1201179625827040.0,98333854761724.14,114345456174609.27,0.0,0.0,0.0,0.0
0.202,1469365523763210.8,1826880000947746.8,146169277110981.1,169969873080126.03,51267676136.80591,105712589460.63646,1704545590533.0598,39513801137299.24
0.30604000000000003,1821294194267410.5,2316750131827450.5,181178373643342.38,210679465712603.84,128360110933.83066,264678203415.624,4267792039586.877,98937267850163.64
0.41216080000000005,2107352535349255.2,2742363389310288.0,209634833465276.25,243769462325847.9,225008284802.7821,463971866852.1298,7481320559756.099,173436257458499.1
0.5204040160000001,2351506614969644.5,3130352248363649.0,233922748758713.12,272012154490056.6,338127278168.019,697233859562.4888,11242583621135.818,260632785386368.9
0.6308120963200001,2565869864314264.0,3493912524149845.0,255247137238825.84,296808771753810.2,465828939293.2197,960572038857.9327,15488823129097.371,359071526735699.3
0.7434283382464002,2757583629823328.5,3840682403899922.5,274318404473073.94,318985394310903.94,606824996563.3151,1251331135363.3535,20177225200431.78,467759593960256.0
0.8582969050113283,2931287331924350.0,4175543291391967.0,291598069885845.1,339078690329532.06,760178335167.5295,1567579924129.387,25276650899164.805,585974790093775.4
0.9754628431115548,3090204094689488.0,4501838618666875.5,307406762829217.9,357461496916189.3,925178620354.5289,1907854782230.8147,30763501186275.195,713169729643126.4
1.094972099973786,3236685954211984.5,4821979873955361.0,321978458723146.9,374405887472488.25,1101272318481.174,2271015406788.1113,36619390430772.33,848917895391700.1
1.2168715419732616,3372515038516612.5,5137778052290993.0,335490439776055.56,390118010889898.06,1288019917088.5994,2656156613120.9067,42829724195379.85,992880662382838.0
1.3412089728127268,3499082323281329.0,5450638418285681.0,348081077214123.75,404758769241592.5,1485068106365.3071,3062550980764.4077,49382774432682.15,1144785855028821.2
1.4680331522689813,3617499853376836.5,5761681557504362.0,359860994835267.75,418456799086702.8,1692130803846.4521,3489609732663.249,56269048683859.12,1304413120985192.2
1.597393815314361,3728674451154654.5,6071822091337736.0,370920401348855.4,431316997727546.0,1908975708511.9143,3936855014957.4814,63480843107010.95,1471583567276200.2
1.729341691620648,3833357963124736.0,6381821802242829.0,381334088805597.94,443426335528810.0,2135414472409.0547,4403899635413.052,71011915772720.84,1646152184903137.2
1.863928525453061,3932182597216048.5,6692326624562477.0,391164947871145.7,454857943579614.9,2371295328900.641,4890431866940.658,78857241631764.97,1828002167068062.8
2.001207095962122,4025686442170515.5,7003893094392006.0,400466506439736.5,465674065667059.75,2616497442166.174,5396203800012.751,87012824707084.84,2017040554165416.8
2.1412312378813647,4114332322371702.0,7317007700621954.0,409284805271419.94,475928239321562.56,2870926495239.0967,5921022248717.994,95475551461905.58,2213194833451405.8
2.284055862638992,4198522008214976.5,7632101328242432.0,417659811608683.94,485666939611258.94,3134511189920.3257,6464741536954.989,104243074484168.56,2416410241596471.0
2.4297369798917723,4278607114694385.5,7949560230141447.0,425626503344107.4,494930839843577.06,3407200431621.9756,7027257696856.731,113313718942495.39,2626647595188410.5
2.578331719489608,4354897590261572.5,8269734493317922.0,433215713473519.75,503755793519850.94,3688961037806.0093,7608503746814.776,122686406450176.25,2843881524828177.5
2.7298983538794,4427668420552521.0,8592944664027248.0,440454796968119.2,512173609793554.6,3979775852979.9736,8208445807802.543,132360592446351.08,3068099022605927.0
2.884496320956988,4497164988287278.5,8919486998344472.0,447368163965609.06,520212673480407.7,4279642183805.9424,8827079879777.498,142336214220674.3,3299298236326919.5
3.0421862473761276,4563607406839551.0,9249637671587492.0,453977710864237.6,527898446347029.94,4588570489441.623,9464429144398.045,152613647424600.78,3537487460478247.5
3.2030299723236504,4627194059656112.0,9583656188860050.0,460303172416528.8,535253876535726.2,4906583277707.444,10120541692197.611,163193669426900.9,3782684285854880.0
3.3670905717701234,4688104517844083.0,9921788175343626.0,466362411964491.25,542299736058415.5,5233714168962.463,10795488595633.602,174077428246315.75,4034914878465747.0
3.5344323832055258,4746501965548481.0,1.0264267679832886e+16,472171662710901.0,549054901353856.9,5570007097930.338,11489362266662.125,185266416072138.0,4294213364782923.0
3.7051210308696363,4802535231833292.0,1.0611319092510992e+16,477745729846377.4,555536588326887.9,5915515629989.258,12202275050421.395,196762446592034.97,4560621305231980.0
3.879223451487029,4856340505093872.0,1.0963158754242826e+16,483098161095408.1,561760550664272.56,6270302373204.999,12934358016433.562,208567635504858.72,4834187241494785.0
4.0568079205167695,4908042789170076.0,1.1319996317132968e+16,488241391567294.0,567741248271586.4,6634438471048.834,13685759916283.234,220684383717946.1,5114966306018754.0
4.237944078927105,4957757147653146.0,1.1682035902987066e+16,493186867537094.06,573491991209290.6,7008003163584.827,14456646282595.41,233115362822916.53,5403019884318435.0
4.422702960505647,5005589773247241.0,1.2049477096409674e+16,497945152823367.3,579025063391841.6,7391083407140.84,15247198648730.1,245863502518126.1,5698415322373238.0
4.61115701971576,5051638911652119.0,1.2422515801710402e+16,502526020694011.2,584351829458474.8,7783773544240.908,16057613872249.018,258931979704522.94,6001225672784769.0
4.803380160110075,5095995663706038.0,1.2801344986964592e+16,506938533661693.25,589482827561643.6,8186175016983.269,16888103548107.805,272324209028459.84,6311529474441667.0
4.9994477633122765,5138744685052176.0,1.3186155334049876e+16,511191113085125.4,594427850301397.6,8598396118179.182,17738893499861.05,286043834682584.56,6629410561310571.0
5.199436718578522,5179964799065389.0,1.3577135809933136e+16,515291600141699.2,599196015626123.8,9020551775483.348,18610223339053.703,300094723306383.94,6954957896678998.0
5.403425452950093,5219729535978453.0,1.397447417168523e+16,519247309458574.1,603795829196345.8,9452763364493.342,19502346084513.1,314480957852774.3,7288265429750081.0
5.611493962009095,5258107608908706.0,1.4378357415476268e+16,523065076466774.8,608235239449422.4,9895158547407.502,20415527834517.53,329206832307512.4,7629431971961918.0
5.823723841249277,5295163335686236.0,1.4788972178023804e+16,526751299363740.56,612521686394832.6,10347871134336.9,21350047485861.008,344276847164977.3,7978561090793829.0
6.040198318074262,5330957013926347.0,1.5206505097534416e+16,530311976424712.3,616662145000924.5,10811040964786.207,22306196494698.51,359695705577866.1,8335761019145086.0
6.261002284435747,5365545255600686.0,1.5631143140016602e+16,533752739285142.06,620663163896681.4,11284813807168.516,23284278674778.69,375468310109971.06,8701144578642188.0
6.486222330124463,5398981286388927.0,1.6063073895898852e+16,537078882719539.3,624530899999408.8,11769341274513.174,24284610029277.297,391599760030985.9,9074829115456234.0
6.715946776726952,5431315214289940.0,1.6502485851111272e+16,540295391362333.8,628271149586541.2,12264780754772.953,25307518612953.68,408095349100508.2,9456936447404238.0
6.950265712261491,5462594271308869.0,1.6949568636151972e+16,543406963750370.4,631889376252946.5,12771295354346.912,26353344421788.08,424960563795416.5,9847592821268206.0
7.18927102650672,5492863031483236.0,1.7404513256132656e+16,546418034011671.1,635390736131255.1,13289053853612.684,27422439307622.07,442201081940676.5,1.0246928879404584e+16
7.433056447036854,5522163608050433.0,1.7867512304359844e+16,549332791479235.75,638780100699342.2,13818230673415.219,28515166915640.758,459822771708746.5,1.0655079634833008e+16
7.681717575977592,5550535832171440.0,1.8338760161641936e+16,552155198470073.0,642062077454313.8,14359005851588.53,29631902642803.42,477831690957068.8,1.1072184454094578e+16
7.935351927497144,5578017415298747.0,1.881845318320781e+16,554889006437221.75,645241028694533.2,14911565028699.54,30773033615562.24,496234086876859.44,1.149838704725618e+16
8.194058966047088,5604644097000863.0,1.9306789874863996e+16,557537770675000.8,648321088619324.1,15476099442299.83,31938958685406.938,515036395929672.3,1.1933835464511448e+16
8.45794014536803,5630449779820515.0,1.9803971059799956e+16,560104863734412.6,651306178928777.2,16052805929055.85,33130088440948.94,534245244050980.25,1.2378682098895274e+16
8.72709894827539,5655466652543802.0,2.0310200037267736e+16,562593487685684.94,654200023083008.5,16641886934199.363,34346845235407.82,553867447102458.44,1.2833083694683178e+16
9.0016409272409,5679725303086525.0,2.0825682734205476e+16,565006685347964.8,657006159360346.6,17243550527805.447,35589663228494.97,573910011556782.0,1.3297201361097562e+16
9.281673745785717,5703254822056760.0,2.135062785073969e+16,567347350591497.4,659727952837028.9,17858010427459.76,36858988441805.03,594380135400606.6,1.3771200590984548e+16
9.567307220701432,5726082897926597.0,2.1885247000388536e+16,569618237805085.0,662368606396225.9,18485486026926.13,38155278826925.664,615285209243014.6,1.4255251284163766e+16
9.85865336511546,5748235904635949.0,2.2429754845688944e+16,571821970610749.9,664931170861701.4,19126202430467.99,39479004345567.33,636632817618193.4,1.4749527775186292e+16
10.155826432417769,5769738982357977.0,2.2984369229886748e+16,573961049898081.5,667418554340393.8,19780390492515.73,40830647061089.37,658430740472302.5,1.5254208865264322e+16
10.458942961066125,5790616112071803.0,2.354931130525585e+16,576037861242583.4,669833530848673.5,20448286862404.367,42210701240873.48,680686954825681.0,1.576947785816386e+16
10.768121820287448,5810890184518271.0,2.4124805658550364e+16,578054681765214.9,672178748288834.5,21130134033937.254,43619673469054.055,703409636602522.0,1.6295522599872496e+16
11.083484256693197,5830583064050224.0,2.471108043403609e+16,580013686484121.9,674456735835043.9,21826180399556.125,45058082769167.57,726607162620987.0,1.6832535521876992e+16
11.405153941827061,5849715647835805.0,2.530836745450539e+16,581916954204005.0,676669910781693.1,22536680308922.49,46526460736340.42,750288112737577.4,1.7380713687900998e+16
11.733257020663602,5868307920823329.0,2.5916902340631824e+16,583766472983934.8,678820584901528.4,23261894131735.613,48025351678667.61,774461272140283.8,1.7940258843972348e+16
12.067922161076874,5886379006835678.0,2.653692462899049e+16,585564145220105.2,680910970356008.1,24002088324631.695,49555312767484.12,799135633785607.9,1.8511377471700972e+16
12.409280604298411,5903947216123601.0,2.7168677889033836e+16,587311792376322.1,682943185196077.8,24757535502024.953,51116914196257.67,824320400975212.6,1.9094280844664372e+16
12.75746621638438,5921030089675135.0,2.781240983928783e+16,589011159391821.9,684919258487680.1,25528514510767.156,52710739347870.414,850024990068398.6,1.968918508780614e+16
13.112615540712067,5937644440548719.0,2.846837246300814e+16,590663918792980.5,686841135092999.8,26315310508514.12,54337384970080.7,876259033327081.9,2.029631123976776e+16
13.474867851526309,5953806392471754.0,2.913682212351336e+16,592271674533038.8,688710680135377.2,27118215045703.387,55997461358984.19,903032381890437.2,2.091588531807813e+16
13.844365208556836,5969531415923575.0,2.9818019679395684e+16,593835965581543.8,690529683173238.5,27937526151053.508,57691592550318.49,930355108876613.0,2.154813838713935e+16
14.221252512727972,5984834361901178.0,3.0512230599789692e+16,595358269283279.8,692299862105945.8,28773548420509.41,59420416518474.414,958237512609447.0,2.2193306628950908e+16
14.605677562982532,5999729493547056.0,3.121972507986883e+16,596840004504557.9,694022866832402.2,29626593109565.484,61184585383096.82,986690119968246.4,2.285163141652401e+16
14.997791114242183,6014230515803632.0,3.194077815672195e+16,598282534583162.9,695700282681318.6,30496978228906.91,62984765623178.75,1015723689859154.8,2.352335938994263e+16
15.397746936527026,6028350603242335.0,3.2675669825753816e+16,599687170096723.8,697333633630382.9,31385028643315.7,64821638298565.65,1045349216806760.1,2.42087425350357e+16
15.805701875257567,6042102426203625.0,3.3424685157741796e+16,601055171463077.9,698924385330007.8,32291076173797.918,66695899278802.125,1075577934664908.9,2.490803826462767e+16
16.221815912762718,6055498175371541.0,3.418811441667223e+16,602387751384883.8,700473947946025.8,33215459702891.35,68608259479269.92,1106421320445929.6,2.56215095023417e+16
16.64625223101797,6068549584896308.0,3.4966253178469804e+16,603686077149819.4,701983678834401.4,34158525283120.08,70559445104574.72,1137891098267589.0,2.634942476893403e+16
17.079177275638333,6081267954168493.0,3.5759402450730292e+16,604951272796615.4,703454885059977.0,35120626248567.746,72550197899154.78,1169999243417421.2,2.70920582711401e+16
17.5207608211511,6093664168339768.0,3.65678687935554e+16,606184421156416.1,704888825770218.6,36102123329546.46,74581275405092.12,1202757986534126.0,2.7849689993020216e+16
17.97117603757412,6105748717677442.0,3.739196444158618e+16,607386565778141.6,706286714434076.8,37103384770340.02,76653451227120.9,1236179817905997.0,2.862260578979299e+16
18.430599558325603,6117531715832974.0,3.8232007427324584e+16,608558712745777.0,707649720955194.1,38124786450007.99,78767515304831.33,1270277491886384.8,2.941109748414936e+16
18.899211549492115,6129022917097856.0,3.9088321705829416e+16,609701832394970.6,708978973668011.2,39166712006237.81,80924274192083.86,1305064031426495.2,3.0215462965043784e+16
19.37719578048196,6140231732715028.0,3.996123728086619e+16,610816860935643.6,710275561224582.5,40229552962235.57,83124551343649.4,1340552732725785.8,3.1036006288959296e+16
19.864739696091597,6151167246307968.0,4.08510903325896e+16,611904701986852.5,711540534379354.0,41313708856651.87,85369187409102.84,1376757170000468.5,3.1873037783649228e+16
20.36203449001343,6161838228485414.0,4.1758223346832664e+16,612966228029625.4,712774907678585.5,42419587376538.91,87659040534005.2,1413691200370715.2,3.2726874154357708e+16
20.869275179813698,6172253150674984.0,4.2682985246072024e+16,614002281783110.4,713979661060538.1,43547604493338.41,89994986668411.89,1451368968867270.8,3.3597838592524424e+16
21.38666068340997,6182420198234661.0,4.36257315221404e+16,615013677508865.2,715155741372179.2,44698184601903.086,92377919882756.69,1489804913558213.0,3.4486260886981868e+16
21.91439389707817,6192347282888128.0,4.458682437074772e+16,616001202247910.2,716304063807637.0,45871760662556.266,94808752691164.73,1529013770796897.2,3.539247753765347e+16
22.452681775019734,6202042054525919.0,4.556663282787924e+16,616965616994673.8,717425513273308.9,47068774346196.17,97288416382248.86,1569010580591938.5,3.631683187176494e+16
23.00173541052013,6211511912411680.0,4.6565532908128376e+16,617907657811764.9,718520945684153.0,48289676182450.89,99817861357461.95,1609810692100446.5,3.725967416258046e+16
23.561770118730532,6220764015829794.0,4.758390774502584e+16,618828036889184.0,719591189195362.2,49534925710897.5,102398057477065.11,1651429769245588.5,3.822136175067789e+16
24.133005521105144,6229805294208306.0,4.862214773342283e+16,619727443551319.9,720637045373331.4,50804991635353.36,105029994413792.22,1693883796459856.0,3.920225916778077e+16
24.715665631527248,6238642456748315.0,4.968065067398388e+16,620606545214870.0,721659290309562.9,52100351981254.125,107714682014290.6,1737189084555225.5,4.0202738263160264e+16
25.309978944157795,6247282001589258.0,5.075982191984629e+16,621465988300570.0,722658675680838.8,53421494256130.99,110453150668415.69,1781362276721787.2,4.122317833262934e+16
25.91617852304095,6255730224537107.0,5.186007452549843e+16,622306399101470.8,723635929758892.8,54768915613203.59,113246451686475.28,1826420354656199.8,4.226396625014513e+16
26.53450209350177,6263993227381091.0,5.2981829397930136e+16,623128384610263.4,724591758372431.5,56143123018102.99,116095657684509.5,1872380644821598.5,4.332549660204223e+16
27.165192135371807,6272076925822274.0,5.412551545010835e+16,623932533307985.5,725526845824283.4,57544633418742.66,119001862977705.7,1919260824840567.2,4.440817182391673e+16
27.808495978079243,6279987057036382.0,5.52915697568259e+16,624719415916364.8,726441855766231.6,58973973918354.13,121966183982049.27,1967078930022849.2,4.551240234018376e+16
28.464665897640828,6287729186891282.0,5.648043771297755e+16,625489586115804.6,727337432033913.2,60431681951706.36,124989759624311.7,2015853360029580.0,4.663860670633093e+16
29.133959215593645,6295308716838561.0,5.76925731943075e+16,626243581230927.2,728214199443987.5,61918305464526.15,128073751760484.39,2065602885675830.5,4.778721175389324e+16
29.816638399905518,6302730890497141.0,5.8928438720681864e+16,626981922885510.0,729072764555715.6,63434403096140.88,131219345602773.3,2116346655873340.8,4.895865273817119e+16
30.51297116790363,6310000799945917.0,6.018850562192936e+16,627705117628454.9,729913716398863.4,64980544365360.84,134427750155260.89,2168104204715407.2,5.015337348872001e+16
31.223230591261704,6317123391741157.0,6.1473254206299736e+16,628413657532393.6,730737627169764.4,66557309859621.49,137700198658361.94,2220895458705880.0,5.1371826562632664e+16
31.947695203086937,6324103472673565.0,6.2783173931587016e+16,629108020766387.5,731545052897266.8,68165291427407.78,141037949042187.1,2274740744134338.0,5.261447340064585e+16
32.686649107148675,6330945715279014.0,6.411876357895942e+16,629788672144110.8,732336534080212.0,69805092373976.37,144442284388945.6,2329660794599552.5,5.388178448609369e+16
33.44038208929165,6337654663115796.0,6.5480531429546904e+16,630456063648838.8,733112596297859.5,71477327660399.77,147914513404507.1,2385676758683314.0,5.517423950673616e+16
34.20918973107749,6344234735820912.0,6.686899544382488e+16,631110634936418.8,733873750794783.6,73182624105948.97,151455970899258.94,2442810207777013.0,5.64923275194905e+16
34.993373525699035,6350690233956787.0,6.828468344384329e+16,631752813817427.4,734620495041542.4,74921620593836.86,155068018278388.9,2501083144063050.0,5.7836547118092264e+16
35.793240996213015,6357025343659395.0,6.9728133298342104e+16,632383016719541.4,735353313272317.5,76694968280339.98,158752044041731.53,2560518008653379.0,5.920740660371537e+16
36.60910581613728,6363244141097865.0,7.119989311079517e+16,633001649131177.8,736072677000804.6,78503330807317.47,162509464293313.06,2621137689887812.0,6.0605424158576856e+16
37.44128793246003,6369350596755360.0,7.270052141042779e+16,633609106027342.1,736779045515407.0,80347384518147.31,166341723260744.34,2682965531794090.0,6.203112802255676e+16
38.29011369110923,6375348579540188.0,7.423058734624773e+16,634205772278598.0,737472866354779.4,82227818677095.81,170250293824598.22,2746025342712496.0,6.34850566728598e+16
39.15591596493141,6381241860735702.0,7.579067088413005e+16,634792023043991.1,738154575764744.8,84145335692139.0,174236678057921.47,2810341404087419.5,6.496775900674807e+16
40.03903428423004,6387034117797152.0,7.738136300700109e+16,635368224148747.1,738824599137492.8,86100651341251.23,178302407776031.25,2875938479428290.5,6.6479794527372056e+16
40.93981496991464,6392728938002985.0,7.900326591815467e+16,635934732447506.1,739483351433958.9,88094495002176.1,182449045096750.03,2942841823442684.5,6.8021733532728696e+16
41.85861126931294,6398329821967879.0,8.06569932477472e+16,636491896173783.4,740131237590170.0,90127609885698.53,186678183011226.72,3011077191344143.0,6.959415730777417e+16
42.7957834946992,6403840187024255.0,8.234317026250291e+16,637040055276354.5,740768652908436.5,92200753272423.53,190991445965507.6,3080670848337289.0,7.119765831971887e+16
43.751699164593184,6409263370478731.0,8.406243407867702e+16,637579541743209.1,741395983434016.4,94314696753080.75,195390490453014.3,3151649579283168.0,7.283284041653176e+16
44.72673314788505,6414602632749630.0,8.581543387830242e+16,638110679913646.6,742013606318067.8,96470226472365.78,199877005618091.16,3224040698547422.0,7.450031902868338e+16
