t(s),Total solute volume 1,Total retention volume 1,Total 1 volume 1,Total 2 volume 1,Total 3 volume 1,Total 4 volume 1,Total 5 volume 1,Total 6 volume 1
0.1,803801399340899.0,888695292650996.4,42833262785020.44,42060630525076.21,0.0,0.0,0.0,0.0
0.202,1211232186813443.0,1339163071967226.8,64544583578778.586,63380319672377.555,18110929.955632195,28791213.554228287,314298864.01939875,5620701617.58289
0.30604000000000003,1521486566284880.2,1682194321847649.0,81077532383733.53,79615044932335.78,45953771.96375241,73053395.92255366,797486896.0771556,14261752633.384975
0.41216080000000005,1783907008897914.2,1972342216033167.8,95061488869977.19,93346756932203.55,81628190.23448296,129765554.11985184,1416585186.9098969,25333354139.350723
0.5204040160000001,2016952214082717.5,2230014700408564.2,107480086963791.9,105541346682888.28,124291064.30145527,197587367.23274186,2156962088.2524767,38573838650.88605
0.6308120963200001,2229816855236648.5,2465377399135081.5,118823295783305.44,116679945174964.84,173490242.70731363,275800043.72971505,3010770899.9148474,53842878977.785446
0.7434283382464002,2427844452800339.0,2684338105923423.5,129375862799516.05,127042163566668.4,228967294.50680158,363992752.50797665,3973526778.245563,71060270074.55923
0.8582969050113283,2614457947977832.5,2890681229516669.0,139320190954788.61,136807114591717.78,290576481.2668092,461933811.4602697,5042700562.339088,90180781468.37383
0.9754628431115548,2792002857708481.0,3086999985718487.5,148781269013327.88,146097532450246.3,358244838.54115766,569507228.3979602,6217026021.702418,111181768344.56163
1.094972099973786,2962168065555908.5,3275161623024858.0,157849094819934.06,155001791593856.62,431950071.2130794,686677560.9481361,7496116248.745185,134056311272.94595
1.2168715419732616,3126216813324582.0,3456562806150909.5,166590984465725.5,163585993856976.3,511707272.38793,813468803.3810186,8880233176.540157,158809094366.51746
1.3412089728127268,3285122931698077.0,3632280231938991.5,175058831796198.4,171901097016940.97,597560451.0377818,949950917.9822977,10370140548.387169,185453775856.90057
1.4680331522689813,3439655818771628.0,3803164581074096.0,183293636778340.7,179987361477822.9,689576876.2550079,1096230844.0309377,11967005767.222178,214011232815.3315
1.597393815314361,3590435894815114.0,3969901828438322.0,191328460594315.38,187877252059736.25,787843167.211308,1252446281.9510703,13672332040.249775,244508347659.56247
1.729341691620648,3737972159192337.0,4133054765705887.5,199190426988309.12,195597403245118.22,892462515.663145,1418761277.8898602,15487910177.94752,276977146150.3486
1.863928525453061,3882688429297587.5,4293092010853014.0,206902120496573.28,203169992187318.0,1003552671.5423278,1595363021.3833232,17415783635.75736,311454172213.85144
2.001207095962122,4024942163387088.5,4450408818528531.5,214482589486815.5,210613723660177.4,1121244459.6509278,1782459489.2843487,19458223142.075073,347980067360.7144
2.1412312378813647,4165038274531526.5,4605342352424099.0,221948082275195.44,217944552884033.88,1245680674.8092203,1980277681.5456676,21617706048.768536,386599068939.9757
2.284055862638992,4303239470953176.5,4758183117716877.0,229312598155077.25,225176226634491.94,1377015257.4981916,2189062322.446421,23896904236.441383,427358992317.42883
2.4297369798917723,4439774132727449.5,4909183669283047.0,236588307127410.75,232320695388381.7,1515412675.3245628,2409074869.4955244,26298671907.317642,470310880357.10046
2.578331719489608,4574842404565151.0,5058565347867431.0,243785874576713.72,239388432146576.78,1661047464.5662372,2640592786.5731483,28826037997.291885,515508900759.9316
2.7298983538794,4708620974087433.0,5206523562907743.0,250914715897538.56,246388682467470.78,1814103894.9435947,2883909011.0159206,31482200358.359688,563010242024.9971
2.884496320956988,4841266865682939.0,5353231987003159.0,257983198662911.84,253329662988678.44,1974775731.927936,3139331575.758423,34270521633.723873,612875039681.2993
3.0421862473761276,4972920486483491.0,5498845923539864.0,264998804939402.7,260218720814245.0,2143266077.3244164,3407183355.9090433,37194526491.28856,665166326812.3112
3.2030299723236504,5103708096717255.0,5643505037920173.0,271968262928212.2,267062462781168.56,2319787273.61949,3687801916.6934295,40257899963.73316,719950004370.035
3.3670905717701234,5233743831751634.0,5787335593150124.0,278897654716520.66,273866861267122.3,2504560861.0294456,3981539445.177771,43464486703.17124,777294827845.0005
3.5344323832055258,5363131371190569.0,5930452295220066.0,285792505220970.25,280637341529555.66,2697817578.7236195,4288762752.2174253,46818291002.42387,837272407646.0154
3.7051210308696363,5491965327343652.0,6072959828230198.0,292657856176904.06,287378854360308.75,2899797403.588772,4609853334.085604,50323477467.79156,899957221130.9218
3.879223451487029,5620332408526489.0,6214954140577064.0,299498328128739.7,294095936957797.75,3110749621.3316827,4945207485.510708,53984372253.0288,965426634673.6428
4.0568079205167695,5748312400168568.0,6356523529714427.0,306318172711614.1,300792764265593.3,3330932925.8102174,5295236457.589167,57805464783.20379,1033760934492.0012
4.237944078927105,5875978997351658.0,6497749562661754.0,313121317015988.5,307473192536764.75,3560615543.328118,5660366655.383766,61791409911.78295,1105043365223.1013
4.422702960505647,6003400515318843.0,6638707861602314.0,319911401449508.25,314140796512797.9,3800075379.287904,6041039871.065225,65947030465.72567,1179360175437.6724
4.61115701971576,6130640499077507.0,6779468777924944.0,326691812221757.94,320798901322370.94,4049600185.116065,6437713549.281192,70277320142.39038,1256800669445.912
4.803380160110075,6257758249037962.0,6920097973439617.0,333465709354687.06,327450609986530.25,4309487743.787596,6850861082.093194,74787446729.2171,1337457264875.7668
4.9994477633122765,6384809276374279.0,7060656923898141.0,340236050948026.7,334098827246406.6,4580046072.6080065,7280972131.348317,79482755622.90495,1421425555607.0713
5.199436718578522,6511845699237462.0,7201203357126254.0,347005614292865.06,340746280295938.9,4861593642.178751,7728552976.778502,84368773629.44194,1508804379728.3438
5.403425452950093,6638916588931873.0,7341791635838742.0,353777014318809.9,347395536896278.75,5154459610.690366,8194126888.466285,89451213030.13542,1599695892250.502
5.611493962009095,6766068273554676.0,7482473093430362.0,360552719774438.1,354049021264386.1,5458984072.866123,8678234522.601772,94735975901.89746,1694205642367.5215
5.823723841249277,6893344605308729.0,7623296329607886.0,367335067471967.8,360709028060742.75,5775518323.028024,9181434339.689728,100229158682.61163,1792442655099.9006
6.040198318074262,7020787196657526.0,7764307471578103.0,374126274871565.56,367377734746673.06,6104425131.8796425,9704303044.563667,105937056974.55116,1894519517195.3494
6.261002284435747,7148435629645856.0,7905550405571907.0,380928451235707.25,374057212537489.56,6446079036.704829,10247436047.727125,111866170580.62233,2000552467193.033
6.486222330124463,7276327642019944.0,8047066982721737.0,387743607547208.7,380749436141631.0,6800866644.76875,10811447947.683788,118023208769.72557,2110661489585.2456
6.715946776726952,7404499293214921.0,8188897202684444.0,394573665354432.06,387456292446310.75,7169186949.782364,11396973034.034794,124415095768.82864,2224970413033.4175
6.950265712261491,7532985112810474.0,8331079377885059.0,401420464682243.25,394179588285778.0,7551451661.356328,12004665811.226515,131048976480.46645,2343607012615.429
7.18927102650672,7661818233668636.0,8473650280829019.0,408285771126708.06,400921057408039.7,7948085547.425588,12635201542.917967,137932222425.3388,2466703116098.394
7.433056447036854,7791030511646071.0,8616645276575256.0,415171282234362.3,407682366739056.7,8359526789.674639,13289276817.016665,145072437910.53207,2594394714246.3853
7.681717575977592,7920652633503107.0,8760098442164035.0,422078633252508.3,414465122029321.6,8786227352.036406,13967610131.497797,152477466424.6275,2726822075185.46
7.935351927497144,8050714214406518.0,8904042674543385.0,429009402324980.8,421270872955897.9,9228653362.375282,14670942501.183582,160155397261.61612,2864129862860.5737
8.194058966047088,8181243886232135.0,9048509788328410.0,435965115197646.4,428101117743041.9,9687285507.499264,15400038085.712425,168114572376.13678,3006467259629.2466
8.45794014536803,8312269377712031.0,9193530604548230.0,442947249489318.3,434957307356079.75,10162619441.676643,16155684838.97707,176363593473.08014,3153988093046.375
8.72709894827539,8443817587334366.0,9339135031384518.0,449957238576466.4,441840849316044.7,10655166208.860352,16938695180.354733,184911329335.08585,3306850966903.325
9.0016409272409,8575914649787326.0,9485352137777056.0,456996475133907.0,448753111176497.25,11165452678.848995,17749906688.09356,193766923391.9056,3465219396592.371
9.281673745785717,8708585996638440.0,9632210220660684.0,464066314368312.9,455695423698708.06,11694021997.637383,18590182815.25681,202939801536.02438,3629261948874.871
9.567307220701432,8841856411856059.0,9779736866503844.0,471168076976847.1,462669083756928.06,12241434052.23086,19460413628.66106,212439680189.29608,3799152386138.4346
9.85865336511546,8975750082704573.0,9927959007737884.0,478303051859298.1,469675357001596.1,12808265950.219612,20361516571.27976,222276574625.73102,3975069815234.86
10.155826432417769,9110290646483400.0,1.0076902974595492e+16,485472498608716.8,476715480305055.6,13395112514.427525,21294437248.61179,232460807555.9092,4157198840996.6006
10.458942961066125,9245501233522944.0,1.0226594542816518e+16,492677649802609.4,483790664011414.56,14002586792.97015,22260150239.546734,243003017978.80536,4345729724535.511
10.768121820287448,9381404506804996.0,1.0377058977626242e+16,499919713114233.25,490902094009755.4,14631320585.073992,23259659932.287354,253914170307.1549,4540858546433.164
11.083484256693197,9518022698531702.0,1.0528321074345796e+16,507199873261303.2,498050933647695.94,15281964983.026096,24294001385.9158,265205563772.7606,4742787374937.407
11.405153941827061,9655377643932486.0,1.068040519595396e+16,514519293807509.2,505238325500407.1,15955190930.641521,25364241218.21942,276888842118.45734,4951724439285.16
11.733257020663602,9793490812566186.0,1.083333530788548e+16,521879118830550.3,512465393008562.2,16651689798.65117,26471478520.416153,288976003583.7346,5167884308276.664
12.067922161076874,9932383337348040.0,1.0987135010319424e+16,529280474468941.7,519733241997235.3,17372173977.42993,27616845799.447453,301479411191.29816,5391488074231.359
12.409280604298411,1.0072076041506568e+16,1.1141827568184794e+16,536724470358495.5,527042962086478.8,18117377487.500942,28801509948.531166,314411803342.1281,5622763542460.517
12.75746621638438,1.0212589463654488e+16,1.129743593908698e+16,544212200968314.06,534395628003217.06,18888056608.267097,30026673246.692455,327786304726.87915,5861945426396.9795
13.112615540712067,1.0353943881138572e+16,1.1453982799337706e+16,551744746845069.1,541792300803071.1,19684990525.43811,31293574388.015396,341616437561.73065,6109275548526.88
13.474867851526309,1.0496159331816806e+16,1.1611490568252112e+16,559323175773458.2,549234029009897.56,20508981997.635323,32603489541.38495,355916133157.0772,6365003047273.334
13.844365208556836,1.0639255634396022e+16,1.1769981430861276e+16,566948543859980.5,556721849680001.94,21360858042.67428,33957733441.51056,370699743827.7109,6629384589987.104
14.221252512727972,1.0783252407450756e+16,1.1929477359173032e+16,574621896546405.4,564256789397335.8,22241470644.03833,35357660512.05093,385982055153.43695,6902684592203.604
14.605677562982532,1.0928169087231216e+16,1.2090000132100716e+16,582344269558738.5,571839865205337.6,23151697478.075054,36804666021.68292,401778298599.312,7185175443331.006
14.997791114242183,1.1074024944359006e+16,1.225157135416986e+16,590116689796912.9,579472085480579.4,24092442662.459705,38300187273.98063,418104164504.9936,7477137738938.657
15.397746936527026,1.1220839099498644e+16,1.2414212473098992e+16,597940176169887.5,587154450752804.8,25064637526.488274,39845704831.99964,434975815452.91864,7778860519820.098
15.805701875257567,1.1368630538085324e+16,1.2577944796344602e+16,605815740380471.8,594887954475590.5,26069241403.77562,41442743778.480804,452409900025.34546,8090641518009.415
16.221815912762718,1.1517418124180476e+16,1.2742789506689884e+16,613744387663668.5,602673583751372.1,27107242447.951378,43092875012.61564,470423566960.50415,8412787409934.633
16.64625223101797,1.1667220613521306e+16,1.2908767676949312e+16,621727117482056.1,610512320014292.8,28179658471.960026,44797716584.33751,489034479718.40186,8745614076896.344
17.079177275638333,1.1818056665821614e+16,1.3075900283854162e+16,629764924181290.1,618405139673857.2,29287537811.58567,46558935067.12601,508260831467.0526,9089446873064.31
17.5207608211511,1.1969944856377638e+16,1.3244208221177338e+16,637858797608544.1,626353014722245.1,30431960213.83675,48378246970.33361,528121360500.1432,9444620901188.64
17.97117603757412,1.212290368702465e+16,1.3413712312148952e+16,646009723696376.9,634356913307627.8,31614037750.838116,50257420192.06441,548635366097.38654,9811481296226.953
18.430599558325603,1.2276951596485708e+16,1.3584433321208838e+16,654218685014202.5,642417800275698.2,32834915759.89016,52198275513.65239,569822724838.9962,10190383517091.596
18.899211549492115,1.2432106970148278e+16,1.3756391965134856e+16,662486661289273.1,650536637681250.5,34095773810.364044,54202688136.80573,591703907385.9058,10581693646724.906
19.37719578048196,1.2588388149299318e+16,1.3929608923581956e+16,670814629898787.2,658714385271419.6,35397826698.11164,56272589264.49352,614299995737.5082,10985788700712.844
19.864739696091597,1.274581343984307e+16,1.4104104849058222e+16,679203566334461.2,666952000941867.9,36742325468.07419,58409967726.66389,637632700978.7673,11403056944649.07
20.36203449001343,1.2904401120521636e+16,1.4279900376361266e+16,687654444640584.0,675250441166937.0,38130558465.77741,60616871651.8847,661724381528.6782,11833898220462.92
20.869275179813698,1.3064169450651722e+16,1.4457016131488968e+16,696168237826300.9,683610661404493.5,39563852418.39897,62895410186.00244,686598061901.9318,12278724281924.105
21.38666068340997,1.3225136677385226e+16,1.463547274003392e+16,704745918252506.8,692033616475847.9,41043573546.092896,65247755258.9008,712277451995.7017,12737959139536.08
21.91439389707817,1.3387321042495166e+16,1.4815290835063514e+16,713388457993460.4,700520260920852.8,42571128704.242256,67676143400.432175,738786966913.1742,13212039415026.768
22.452681775019734,1.355074078868139e+16,1.4996491064479218e+16,722096829172830.8,709071549327856.6,44147966557.298584,70182877606.56639,766151747335.2954,13701414705640.521
23.00173541052013,1.371541416538399e+16,1.5179094097842272e+16,730872004273436.9,717688436637899.6,45775578784.84504,72770329256.7685,794397680451.7194,14206547958429.047
23.561770118730532,1.3881359434083292e+16,1.536312063264267e+16,739714956419718.0,726371878422056.5,47455501320.48616,75440940083.5684,823551421461.5002,14727915854728.1
24.133005521105144,1.4048594873058958e+16,1.5548591399981208e+16,748626659631313.8,735122831130457.8,49189315624.13524,78197224195.224,853640415653.3712,15266009204997.076
24.715665631527248,1.4217138781570598e+16,1.5735527169622874e+16,757608089045853.2,743942252311049.4,50978649988.21398,81041770152.30281,884692921074.582,15821333354181.32
25.309978944157795,1.4387009483413392e+16,1.5923948754371004e+16,766660221108429.1,752831100795655.9,52825180878.2259,83977243098.90996,916738031796.2969,16394408597739.475
25.91617852304095,1.4558225329793458e+16,1.6113877013700178e+16,775784033724804.2,761790336850429.0,54730634308.087715,87006386949.17935,949805701782.2205,16985770608456.197
26.53450209350177,1.4730804701455782e+16,1.63053328565752e+16,784980506374832.2,770820922287209.1,56696787250.52187,90132026629.50438,983926769365.706,17595970874132.883
27.165192135371807,1.4904766009989528e+16,1.6498337243371338e+16,794250620181994.5,779923820531812.1,58725469082.70962,93357070376.83041,1019132982338.8119,18225577146219.023
27.808495978079243,1.5080127698222216e+16,1.6692911186799546e+16,803595357934413.1,789099996644668.4,60818563067.29108,96684512093.14218,1055457023654.8124,18875173899410.402
28.464665897640828,1.5256908239605848e+16,1.6889075751728282e+16,813015704052138.8,798350417288695.6,62978007868.66504,100117433756.07751,1092932537743.365,19545362802200.09
29.133959215593645,1.5435126136485876e+16,1.708685205378222e+16,822512644494900.6,807676050638714.6,65205799104.3942,103659007885.35031,1131594157434.9146,20236763198320.69
29.816638399905518,1.561479991713338e+16,1.7286261256584962e+16,832087166603967.6,817077866226162.0,67503990931.35222,107312500064.41292,1171477531488.0552,20950012598965.566
30.51297116790363,1.5795948131411976e+16,1.7487324567503062e+16,841740258871233.8,826556834712338.0,69874697666.06253,111081271516.4793,1212619352710.3315,21685767185618.95
31.223230591261704,1.5978589344939428e+16,1.769006323173754e+16,851472910628105.6,836113927582913.8,72320095438.47873,114968781733.71881,1255057386659.434,22444702323260.293
31.947695203086937,1.6162742131596932e+16,1.789449852459877e+16,861286111646328.6,845750116755946.4,74842423878.22917,118978591158.06232,1298830500907.7751,23227513083640.637
32.686649107148675,1.634842506422965e+16,1.810065174179222e+16,871180851642446.4,855466374095289.0,77443987832.10432,123114363911.69128,1343978694849.4265,24034914778252.902
33.44038208929165,1.653565670337748e+16,1.8308544187535868e+16,881158119677262.4,865263670820876.6,80127159111.31511,127379870574.85304,1390543130023.6409,24867643500536.094
34.20918973107749,1.6724455583867506e+16,1.851819716032303e+16,891218903441393.2,875142976807164.9,82894378266.75893,131778991008.21628,1438566160924.5813,25726456676770.336
34.993373525699035,1.6914840199098322e+16,1.8729631936141772e+16,901364188417791.6,885105259760764.2,85748156390.2501,136315717216.50682,1488091366261.6677,26612133625024.84
35.793240996213015,1.710682898284343e+16,1.8942869748959044e+16,911594956912085.9,895151484268273.5,88691076939.35027,140994156249.67307,1539163580629.5342,27525476121427.8
36.60910581613728,1.7300440288402184e+16,1.915793176827926e+16,921912186941567.6,905282610705299.1,91725797583.12184,145818533137.31943,1591828926541.2043,28467308972925.703
37.44128793246003,1.7495692364928986e+16,1.93748390735889e+16,932316850973810.2,915499593997831.2,94855052065.78374,150793193851.61322,1646134846772.0261,29438480595595.78
38.29011369110923,1.7692603330776272e+16,1.959361262550459e+16,942809914506162.2,925803382227361.9,98081652084.91327,155922608293.32526,1702130136956.0913,30439863597469.727
39.15591596493141,1.7891191143695238e+16,1.9814273233450156e+16,953392334477791.4,936194915071571.8,101408489180.48045,161211373295.09784,1759864978370.7815,31472355364715.9
40.03903428423004,1.8091473567746924e+16,2.0036841519699264e+16,964065057506429.8,946675122072878.2,104838536630.65022,166664215635.49072,1819390970838.8384,32536878649918.895
40.93981496991464,1.8293468136789732e+16,2.0261337879633416e+16,974829017942689.5,957244920727844.9,108374851349.92271,172285995056.75034,1880761165671.138,33634382161082.816
41.85861126931294,1.8497192114423892e+16,2.048778243808215e+16,985685135735564.4,967905214391197.5,112020575784.83649,178081707278.71765,1944030098567.2695,34765841149874.895
42.7957834946992,1.870266245029162e+16,2.071619500163116e+16,996634314103726.6,978656889989117.0,115778939802.09273,184056487000.70462,2009253822384.7327,35932257997515.12
43.751699164593184,1.8909895732650204e+16,2.0946595006805756e+16,1007677437008243.9,989500815537541.2,119653262563.62529,190215610882.62558,2076489939681.69,37134662796611.984
44.72673314788505,1.9118908137159116e+16,2.117900146406194e+16,1018815366423515.8,1000437837462337.4,123646954382.79527,196564500496.14273,2145797634932.317,38374113927138.79
45.721267810842754,1.9329715371844612e+16,2.1413432897543372e+16,1030048939404525.2,1011468777719455.0,127763518555.57054,203108725236.05206,2217237706308.1733,39651698624644.914
