t(s),Total solute volume 1,Total retention volume 1,Total 1 volume 1,Total 2 volume 1,Total 3 volume 1,Total 4 volume 1,Total 5 volume 1,Total 6 volume 1
0.1,988500314890707.8,1201179625827040.0,98333854761724.14,114345456174609.27,0.0,0.0,0.0,0.0
0.202,1489056715497037.0,1809468911884388.5,148128113890992.62,172247665211497.8,45124693.27569588,93043886.09812257,1500268536.4393356,34778847743.67214
0.30604000000000003,1870336378117274.2,2272838216993674.0,186056983074102.25,216352454064969.88,114489591.9287327,236069403.96515158,3806479916.3637934,88244698414.72821
0.41216080000000005,2192843405370978.2,2664805494251389.0,218139278666290.16,253658677555784.9,203363239.09673682,419320598.4663239,6761314218.603907,156748660281.04187
0.5204040160000001,2479248793064791.0,3012917788701845.0,246630261896968.06,286788818888812.6,309645651.4525807,638467449.5096304,10294950561.835434,238671787609.47073
0.6308120963200001,2740849224116427.0,3330901395135272.5,272653702145660.88,317049629693858.3,432210543.7838366,891187636.2206372,14369942152.262901,333145838999.5223
0.7434283382464002,2984210734052735.5,3626734535031470.0,296862774305479.6,345200640678557.2,570414139.4832274,1176153737.1265907,18964884722.982094,439674542095.8798
0.8582969050113283,3213539695110069.0,3905528303312717.5,319675919111674.9,371728426863401.8,723893362.8155086,1492617116.4636512,24067706750.7878,557978010339.0857
0.9754628431115548,3431718581787828.0,4170785202235756.0,341379878840139.4,396966420481036.8,892466411.3603544,1840202911.4423587,29672363673.164383,687916093755.1763
1.094972099973786,3640822961738752.0,4425027320244180.5,362181126433637.2,421154714255899.56,1076077696.3975797,2218796503.155987,35777007264.32232,829445934425.3473
1.2168715419732616,3842405322269310.5,4670141198033754.0,382234099943026.2,444472893231292.8,1274764760.6329525,2628475303.2431602,42382885717.0374,982596464348.2126
1.3412089728127268,4037662471950093.0,4907581230172212.0,401657855274331.4,467059399066584.9,1488637173.7307303,3069465237.9554057,49493641963.16676,1147452136814.6963
1.4680331522689813,4227539968125168.5,5138496549181950.0,420546454409605.3,489023609761662.56,1717862443.6992812,3542111698.4249926,57114845257.12429,1324142066117.9495
1.597393815314361,4412800266094664.0,5363813829396790.0,438975744738961.25,510453722860792.0,1962656276.6945233,4046859457.0670137,65253667335.27926,1512832519307.691
1.729341691620648,4594068874731362.0,5584293367536565.0,457007950520639.3,531422094535503.3,2223275657.9387794,4584238400.924418,73918652371.52866,1713721582627.3823
1.863928525453061,4771866603620039.0,5800568263881237.0,474694880756087.6,551988969794763.44,2500013833.459338,5154853184.370586,83119550131.09268,1927035293207.071
2.001207095962122,4946632696449547.0,6013172529910420.0,492080230449347.3,572205158456095.8,2793196614.204928,5759375608.462847,92867193090.5489,2153024790112.4175
2.1412312378813647,5118741808497917.0,6222561716334009.0,509201269490233.4,592113999027929.9,3103179625.8329177,6398538950.202882,103173404999.3735,2391964194361.8765
2.284055862638992,5288516715621957.0,6429128354805046.0,526090106916908.4,611752828830752.0,3430346251.3038635,7073133720.317877,114050932475.83038,2644149022991.365
2.4297369798917723,5456237994938583.0,6633213720191444.0,542774653928932.6,631154103816624.0,3775106092.0667143,7784004490.339358,125513393844.86873,2909895002870.842
2.578331719489608,5622151513288778.0,6835116929286675.0,559279368823335.6,650346264802434.2,4137893825.050067,8532047535.806792,137575241135.70938,3189537189624.668
2.7298983538794,5786474300070415.0,7035102076528894.0,575625841211206.0,669354416813886.6,4519168367.18704,9318209113.584269,150251732304.24985,3483429323610.9644
2.884496320956988,5949399210167473.0,7233403899697518.0,591833255875723.4,688200868473073.9,4919412282.892506,10143484240.12818,163558911533.1048,3791943373178.024
3.0421862473761276,6111098667680507.0,7430232328799365.0,607918765190298.0,706905565057082.2,5339131386.507423,11008915871.764112,177513596013.87683,4115469228208.5312
3.2030299723236504,6271727702167671.0,7625776175375178.0,623897791157210.0,725486439717279.9,5778854503.564092,11915594412.441154,192133368009.87338,4454414516088.488
3.3670905717701234,6431426433867928.0,7820206152340320.0,639784272632180.9,743959700959213.8,6239133363.311374,12864657492.13615,207436571282.93768,4809204518856.087
3.5344323832055258,6590322125114159.0,8013677366768840.0,655590869394486.2,762340069941266.0,6720542601.258835,13857289972.109423,223442311178.16345,5180282175156.605
3.7051210308696363,6748530886818391.0,8206331393612340.0,671329131904375.0,780640977873484.9,7223679855.214261,14894724142.937674,240170457817.06937,5568108154265.196
3.879223451487029,6906159108192625.0,8398298013172958.0,687009643528592.4,798874731401556.2,7749165941.851876,15978240088.5964,257641651968.23904,5973160992185.22
4.0568079205167695,7063304662527015.0,8589696676508075.0,702642140488552.0,817052652086011.6,8297645103.572475,17109166195.479397,275877313255.03,6395937281929.781
4.237944078927105,7220057930350360.0,8780637748976732.0,718235613642104.6,835185194757025.5,8869785317.521046,18288879789.583805,294899650429.87537,6836951911716.087
4.422702960505647,7376502672593554.0,8971223571561841.0,733798395343947.8,853282048518213.9,9466278660.269806,19518807888.47381,314731673499.35675,7296738346068.446
4.61115701971576,7532716779718863.0,9161549371512054.0,749338233967364.0,871352223402673.5,10087841722.969093,20800428057.305233,335397207527.22095,7775848945823.052
4.803380160110075,7688772917638039.0,9351704047604008.0,764862358158742.5,889404125089997.4,10735216072.796465,22135269360.316456,356920907976.72565,8274855323821.24
4.9994477633122765,7844739087241209.0,9541770850463054.0,780377532498309.9,907445619630187.9,11409168757.360514,23524913400.88772,379328277481.1372,8794348733712.815
5.199436718578522,8000679111217896.0,9731827974564934.0,795890105927991.9,925484089756996.4,12110492849.381369,24970995444.65001,402645683953.35815,9334940489806.332
5.403425452950093,8156653059367059.0,9921949075523336.0,811406054060369.2,943526484085966.4,12840008029.514297,26475205621.24273,426900379963.7299,9897262416320.578
5.611493962009095,8312717618623935.0,1.0112203723995586e+16,826931015993025.5,961579359939211.5,13598561204.492847,28039290251.08017,452120543944.0428,10481971044023.59
5.823723841249277,8468926433418601.0,1.0302657804811126e+16,842470328146911.9,979648922629571.8,14387027166.029188,29665052996.348366,478335219921.57007,11089733315958.104
6.040198318074262,8625330377672582.0,1.049337387041138e+16,858029051353788.5,997741057055164.9,15206309272.691523,31354356576.843407,505574462814.12646,11721249201179.926
6.261002284435747,8781977823947065.0,1.0684411453653054e+16,873611997610523.5,1015861358745467.2,16057340176.223759,33109124062.09858,533869281243.49695,12377237604517.805
6.486222330124463,8938914868943806.0,1.08758273461257e+16,889223752516455.8,1034015159968331.0,16941082575.198183,34931340476.508316,563251682825.595,13058440591224.361
6.715946776726952,9096185537287516.0,1.1067675846414226e+16,904868695545220.5,1052207553302668.6,17858530002.25464,36823054422.583046,593754700344.9086,13765623994056.965
6.950265712261491,9253831963750638.0,1.126000898219156e+16,920551018172068.5,1070443412717423.6,18810707643.643124,38786379770.81065,625412419002.7812,14499578044998.18
7.18927102650672,9411894556641540.0,1.1452876709447692e+16,936274740127374.6,1088727412471611.8,19798673191.019016,40823497416.0247,658260004738.0648,15261118031837.98
7.433056447036854,9570412144681498.0,1.1646327091681698e+16,952043724007634.9,1107064044104424.5,20823517725.564266,42936657100.42535,692333733622.5295,16051084979673.691
7.681717575977592,9729422109365148.0,1.1840406461479386e+16,967861688442386.9,1125457631746103.5,21886366634.61239,45128179303.6235,727671022336.9938,16870346357464.326
7.935351927497144,9888960504520498.0,1.2035159566563804e+16,983732219987804.6,1143912345948141.5,22988380561.050316,47400457200.269035,764310459737.2354,17719796809850.516
8.194058966047088,1.0049062164551362e+16,1.2230629702119164e+16,999658783894390.0,1162432216204300.2,24130756385.854794,49755958686.00305,802291839521.5417,18600358914515.402
8.45794014536803,1.0209760802646012e+16,1.2426858830949676e+16,1015644733876576.8,1181021142310937.2,25314728244.19597,52197228472.623985,841656194014.3962,19512983965420.434
8.72709894827539,1.0371089100067938e+16,1.2623887692829118e+16,1031693320995163.0,1199682904695816.2,26541568575.61374,54726890253.51014,882445829082.9224,20458652782304.25
9.0016409272409,1.0533078787501328e+16,1.2821755904223754e+16,1047807701749401.1,1218421173827775.5,27812589208.82987,57347648940.46238,924704360205.0244,21438376546881.355
9.281673745785717,1.0695760719301136e+16,1.3020502049421382e+16,1063990945463214.1,1237239518805669.0,29129142481.82504,60062292973.261185,968476749709.9739,22453197666222.5
9.567307220701432,1.0859164941392324e+16,1.3220163763972836e+16,1080246041039686.5,1256141415212644.8,30492622397.85905,62873696703.33828,1013809345214.0688,23504190663842.055
9.85865336511546,1.1023320753473006e+16,1.3420777811240438e+16,1096575903148863.6,1275130252311546.0,31904465818.16728,65784822853.07408,1060749919275.7457,24592463099056.22
10.155826432417769,1.1188256766097128e+16,1.3622380152755608e+16,1112983377906248.8,1294209339647987.0,33366153692.114677,68798725052.3319,1109347710296.0842,25719156515214.36
10.458942961066125,1.1354000953146154e+16,1.382500601300366e+16,1129471248092553.2,1313381913120067.5,34879212325.63436,71918550453.935,1159653464692.239,26885447417441.145
10.768121820287448,1.1520580700139662e+16,1.402868993918392e+16,1146042237959522.2,1332651140566694.8,36445214688.82406,75147542429.88728,1211719480372.8164,28092548280563.78
11.083484256693197,1.1688022848783816e+16,1.4233465856430746e+16,1162699017661541.8,1352020126920799.2,38065781763.61743,78489043350.22496,1265599651545.6748,29341708587927.973
11.405153941827061,1.1856353738113244e+16,1.443936711892808e+16,1179444207348312.8,1371491918968426.2,39742583932.48527,81946497446.47673,1321349514889.9573,30634215901843.453
11.733257020663602,1.2025599242541402e+16,1.4646426557301434e+16,1196280380950055.2,1391069509750250.0,41477342409.170586,85523453761.7921,1379026297125.654,31971396966428.594
12.067922161076874,1.2195784807102288e+16,1.485467652263129e+16,1213210069683243.5,1410755842638184.2,43271830712.49379,89223569189.88412,1438688964015.2346,33354618843655.41
12.409280604298411,1.236693548013493e+16,1.5064148927395148e+16,1230235765302007.2,1430553815116165.5,45127876184.30938,93050611605.01146,1500398270833.253,34785290083428.543
12.75746621638438,1.2539075943636624e+16,1.5274875283613084e+16,1247359923117599.5,1450466282291305.2,47047361552.73488,97008463085.31058,1564216814341.1863,36264861928560.09
13.112615540712067,1.2712230541487628e+16,1.5486886738444166e+16,1264584964806124.5,1470496060158792.5,49032226541.809105,101101123231.86479,1630209086306.0364,37794829555534.63
13.474867851526309,1.2886423305729058e+16,1.5700214107455978e+16,1281913281022605.8,1490645928641599.5,51084469528.777985,105332712585.9862,1698441528602.4768,39376733351987.37
13.844365208556836,1.3061677981058146e+16,1.591488790576709e+16,1299347233837740.8,1510918634424010.2,53206149250.2488,109707476147.25768,1768982589939.8103,41012160231849.93
14.221252512727972,1.3238018047688702e+16,1.6130938377243612e+16,1316889159011974.0,1531316893595996.0,55399386558.48492,114229786994.97012,1841902784256.0874,42702744989148.13
14.605677562982532,1.3415466742709832e+16,1.6348395521912522e+16,1334541368120246.8,1551843394123917.8,57666366229.16175,118904150015.67143,1917274750823.2268,44450171691466.25
14.997791114242183,1.3594047080064222e+16,1.65672891217399e+16,1352306150539377.0,1572500798161512.0,60009338821.937996,123735205739.62039,1995173316108.219,46256175114123.86
15.397746936527026,1.3773781869254862e+16,1.6787648764908112e+16,1370185775308964.0,1593291744213807.2,62430622595.24011,128727734289.03017,2075675557436.8481,48122542216141.19
15.805701875257567,1.3954693732879454e+16,1.7009503868713106e+16,1388182492875685.0,1614218849165452.0,64932605476.6966,133886659441.06119,2158860868507.7483,50051113659101.94
16.221815912762718,1.4136805123082938e+16,1.7232883701193514e+16,1406298536729942.8,1635284710183842.0,67517747090.70022,139217052808.61502,2244811026805.9097,52043785370051.875
16.64625223101797,1.4320138337009528e+16,1.7457817401590664e+16,1424536124943001.8,1656491906506552.2,70188580844.61885,144724138142.05914,2333610262966.177,54102510149605.32
17.079177275638333,1.4504715531329198e+16,1.76843339997334e+16,1442897461612066.5,1677843001121704.2,72947716075.21555,150413295755.1089,2425345332138.7173,56229299326463.18
17.5207608211511,1.4690558735906438e+16,1.7912462434429896e+16,1461384738220000.8,1699340542349134.2,75797840256.88298,156290067078.16812,2520105587409.71,58426224459580.38
17.97117603757412,1.48776898666736e+16,1.814223157094422e+16,1480000134915954.2,1720987065329456.0,78741721273.34138,162360159342.5344,2617983055332.181,60695419089249.836
18.430599558325603,1.5066130737765098e+16,1.83736702176275e+16,1498745821722428.0,1742785093427765.8,81782209754.48691,168629450398.94653,2719072513623.0645,63039080538410.13
18.899211549492115,1.5255903072964824e+16,1.86068071417684e+16,1517623959674058.2,1764737139557786.5,84922241480.13243,175103993674.06775,2823471571084.332,65459471765512.83
19.37719578048196,1.5447028516513736e+16,1.884167108472179e+16,1536636701892731.8,1786845707432077.8,88164839852.41803,181790023268.56284,2931280749807.458,67958923270323.484
19.864739696091597,1.5639528643321988e+16,1.9078290776370132e+16,1555786194603439.5,1809113292743285.2,91513118438.71884,188693959200.55048,3042603569721.752,70539835054062.84
20.36203449001343,1.5833424968624388e+16,1.9316694948967556e+16,1575074578094811.8,1831542384281083.0,94970283586.92653,195822412798.28326,3157546635549.132,73204678635334.25
20.869275179813698,1.602873895711709e+16,1.9556912350413076e+16,1594503987628005.0,1854135464989044.5,98539637115.02156,203182192246.0299,3276219726229.0615,75955999123317.52
21.38666068340997,1.6225492031608108e+16,1.979897175699465e+16,1614076554297229.8,1876895012965308.5,102224579076.9086,210780308287.20282,3398735886879.113,78796417349743.92
21.91439389707817,1.6423705581213734e+16,2.004290198564477e+16,1633794405845116.2,1899823502410700.0,106028610606.53326,218623980088.9138,3525211523358.393,81728632061211.78
22.452681775019734,1.6623400969128334e+16,2.0288731905742556e+16,1653659667435649.2,1922923404527502.5,109955336842.34543,226720641272.20557,3655766499502.439,84755422173432.5
23.00173541052013,1.6824599539994798e+16,2.0536490450496356e+16,1673674462387323.0,1946197188372045.8,114008469934.22916,235077946112.3311,3790524237100.093,87879649089038.39
23.561770118730532,1.7027322626898912e+16,2.0786206627939056e+16,1693840912869003.5,1969647321663792.0,118191832135.07013,243703775913.56192,3929611818684.4224,91104259080626.6
24.133005521105144,1.7231591558010984e+16,2.1037909531563628e+16,1714161140560535.8,1993276271553591.5,122509358979.17714,252606245563.0937,4073160093211.635,94432285740745.78
24.715665631527248,1.7437427662894354e+16,2.1291628350626252e+16,1734637267280355.2,2017086505353440.8,126965102549.83562,261793710268.7494,4221303784703.462,97866852500579.97
25.309978944157795,1.7644852278500336e+16,2.1547392380142476e+16,1755271415581840.2,2041080491229929.8,131563234838.31967,271274772485.2672,4374181603930.482,101411175219116.64
25.91617852304095,1.785388675486697e+16,2.1805231030598696e+16,1776065709320199.2,2065260698863487.8,136308051196.74036,281058289034.0956,4531936363215.426,105068564844636.36
26.53450209350177,1.8064552460537396e+16,2.2065173837401164e+16,1797022274191497.8,2089629600075118.8,141203973887.17038,291153378421.7064,4694715094437.545,108842430150396.92
27.165192135371807,1.8276870787712976e+16,2.232725047008161e+16,1818143238245260.5,2114189669422510.5,146255555729.53006,301569428361.5663,4862669170320.755,112736280546423.9
27.808495978079243,1.8490863157154428e+16,2.259149074127927e+16,1839430732372037.8,2138943384766969.5,151467483850.78415,312316103505.0187,5035954429090.208,116753728969370.9
28.464665897640828,1.870655102284311e+16,2.2857924615514732e+16,1860886890767090.2,2163893227812618.8,156844583538.048,323403353386.42523,5214731302583.588,120898494852447.53
29.133959215593645,1.8923955876413924e+16,2.312658221777267e+16,1882513851371389.8,2189041684619191.8,162391822198.25998,334841420588.0668,5399164947905.738,125174407177454.3
29.816638399905518,1.9143099251369772e+16,2.33974938419064e+16,1904313756290814.0,2214391246089511.2,168114313427.12704,346640849130.3683,5589425382716.304,129585407611013.25
30.51297116790363,1.9364002727085456e+16,2.367068995887832e+16,1926288752194516.5,2239944408432685.8,174017321190.11417,358812493093.1621,5785687624242.693,134135553727110.81
31.223230591261704,1.958668793261009e+16,2.3946201224846884e+16,1948440990693092.0,2265703673603894.0,180106264118.28964,371367525473.8053,5988131832111.623,138829022318125.34
31.947695203086937,1.9811176550272124e+16,2.4224058489109696e+16,1970772628697294.5,2291671549721470.5,186386719921.89725,384317447288.04816,6196943455094.871,143670112796536.9
32.686649107148675,2.0037490319093816e+16,2.450429280191152e+16,1993285828757627.0,2317850551461820.5,192864429924.5738,397674096919.6898,6412313381866.076,148663250689558.06
33.44038208929165,2.0265651038016744e+16,2.4786935422122812e+16,2015982759385238.0,2344243200432555.0,199545303721.16693,411449659725.1114,6634438095866.951,153812991228964.72
34.20918973107749,2.049568056894034e+16,2.507201782479317e+16,2038865595354190.0,2370852025523980.0,206435423962.17014,425656677898.8986,6863519834383.002,159124023038422.16
34.993373525699035,2.0727600839573056e+16,2.5359571708581532e+16,2061936517985081.0,2397679563238899.5,213541051267.80103,440308060606.80646,7099766751929.328,164601171920648.44
35.793240996213015,2.096143384609302e+16,2.564962900306151e+16,2085197715409703.2,2424728358000354.0,220868629274.7977,455417094392.4008,7343393088048.953,170249404746754.4
36.60910581613728,2.119720165561255e+16,2.5942221875899068e+16,2108651382816259.5,2452000962436779.5,228424789819.01932,470997453863.74445,7594619339625.734,176073833450137.3
37.44128793246003,2.143492640843909e+16,2.6237382739892816e+16,2132299722674208.5,2479499937643475.5,236216358256.9487,487063212666.50867,7853672437815.379,182079719127295.2
38.29011369110923,2.1674630320119584e+16,2.6535144259867716e+16,2156144944937692.2,2507227853419114.0,244250358929.19302,503628854749.9039,8120785929696.831,188272476247931.75
39.15591596493141,2.191633568325384e+16,2.6835539359403372e+16,2180189267225877.5,2535187288475478.5,252534020769.05362,520709285931.7674,8396200164746.69,194657676976712.12
40.03903428423004,2.2160064869056044e+16,2.7138601227376548e+16,2204434914978332.0,2563380830618139.5,261074783059.21692,538319845769.0772,8680162486237.4,201241055608989.84
40.93981496991464,2.2405840328640196e+16,2.744436332428973e+16,2228884121582873.8,2591811076895101.0,269880301339.5392,556476319740.0533,8972927427658.56,208028513122788.72
41.85861126931294,2.265368459399877e+16,2.775285938835048e+16,2253539128472930.0,2620480633710025.5,278958453468.82935,575194951743.826,9274756914257.57,215026121849264.5
42.7957834946992,2.290362027863749e+16,2.8064123441260132e+16,2278402185190679.5,2649392116895636.0,288317345843.43506,594492456923.4326,9585920469792.59,222240130263767.7
43.751699164593184,2.3155670077823388e+16,2.8378189793660276e+16,2303475549411728.5,2678548151742446.5,297965319775.2631,614386034817.6223,9906695428585.76,229676967899545.84
44.72673314788505,2.3409856768393956e+16,2.869509305017658e+16,2328761486926148.5,2707951372976663.5,307910958031.72754,634893382846.5464,10237367152958.887,237343250385958.97
