t(s),Total solute volume 1,Total retention volume 1,Total 1 volume 1,Total 2 volume 1,Total 3 volume 1,Total 4 volume 1,Total 5 volume 1,Total 6 volume 1
0.1,898666397951953.1,1036126891881881.2,66325422320955.914,71135071608968.8,0.0,0.0,0.0,0.0
0.202,1353994905961027.0,1561104103775787.5,99930613091305.42,107177174296787.62,2680739.0094063585,4881018.363645365,65311459.138455465,1337553452.2345717
0.30604000000000003,1700773223731644.0,1960927987514462.2,125524335621040.66,134626849438133.25,6801827.824371113,12384588.769761363,165714871.74497148,3393822356.69317
0.41216080000000005,1994096576586732.5,2299121016077209.5,147172853180953.22,157845229377508.3,12082098.989973614,21998768.300385237,294359898.2861286,6028491251.58564
0.5204040160000001,2254590256993377.0,2599463272130129.5,166398400546859.72,178464935180151.78,18396799.43193618,33496409.744833063,448207113.8953192,9179309410.961966
0.6308120963200001,2492529639872826.0,2873801822267708.5,183959344322465.1,197299327113478.3,25679034.308879763,46755712.70268805,625626728.5409635,12812897466.756124
0.7434283382464002,2713886666624618.5,3129022059141332.5,200296439316903.6,214821121732753.25,33890578.71387736,61707078.25533713,825687451.8360852,16910181951.185606
0.8582969050113283,2922486964397816.0,3369534768546396.5,215692033170625.12,231333141380586.0,43009886.67182392,78311276.05326112,1047864349.6533911,21460411850.93074
0.9754628431115548,3120952045386955.5,3598362444920969.5,230339604692070.34,247042895161296.34,53026183.65835805,96548688.12603675,1291894917.2859623,26458210857.606678
1.094972099973786,3311169555897095.5,3817681468239412.5,244378470249308.62,262099802098993.53,63936195.36652633,116413352.70498356,1557699380.9002964,31901945083.258305
1.2168715419732616,3494551427699920.5,4029119741304390.5,257912836443887.12,276615625433850.03,75742182.28209665,137909385.62869745,1845332813.0373087,37792742355.28226
1.3412089728127268,3672186130514857.0,4233932230189660.0,271023036994909.28,290676524359304.75,88450685.92144679,161048697.52546993,2154954586.6746087,44133866617.9952
1.4680331522689813,3844933646530048.5,4433110465674351.5,283772542264754.6,304350571850071.8,102071691.91300316,185849469.97368538,2486807985.0322056,50930300330.54121
1.597393815314361,4013487449185126.0,4627454002029280.0,296212533558246.1,317692660670867.44,116618051.43706737,212335102.07448837,2841206105.8744287,58188455779.874725
1.729341691620648,4178416478983368.0,4817618813255604.0,308385001117054.1,330747826024766.75,132105070.28102048,240533462.21419704,3218521849.4959636,65915970029.87553
1.863928525453061,4340194469934538.5,5004151105159310.0,320324908536568.94,343553566924775.2,148550210.83230078,270476345.4608831,3619180658.2574334,74121556223.64487
2.001207095962122,4499220987453151.0,5187511571102293.0,332061745452739.56,356141511475196.7,165972872.64259747,302199074.0213889,4043655170.3836927,82814894090.85664
2.1412312378813647,4655836867823645.0,5368093193010414.0,343620667040615.94,368538639001978.94,184394229.1825311,335740200.0085233,4492461242.753716,92006548492.70789
2.284055862638992,4810335775775357.0,5546234566737157.0,355023347012797.75,380768194907130.25,203837105.76410013,371141283.16546834,4966154976.677199,101707908508.49829
2.4297369798917723,4962973008062109.0,5722230052195531.0,366288627361247.56,392850387527170.9,224325888.28078744,408446724.7021629,5465330494.494097,111931141899.39444
2.578331719489608,5113972303424670.0,5896337624940300.0,377433020961637.75,404802927184297.7,245886455.47096035,447703643.9623127,5990618289.281412,122689161309.67683
2.7298983538794,5263531183302319.0,6068785033771698.0,388471105740696.8,416641448937138.94,268546129.46064955,488961788.37300295,6542684019.907755,133995599588.89412
2.884496320956988,5411825192272094.0,6239774689776025.0,399415837638757.75,428379848238080.1,292333640.749365,532273469.69182414,7122227657.969233,145864792320.68973
3.0421862473761276,5559011302587167.0,6409487591611883.0,410278801879243.2,440030550423785.7,317279104.7885939,577693521.3616691,7729982917.162459,158311766136.0499
3.2030299723236504,5705230675303634.0,6578086509022096.0,421070416754363.7,451604729285880.75,343414008.09038776,625279274.1386974,8366717170.341113,171352267757.65375
3.3670905717701234,5850610920538474.0,6745718588621996.0,431800100430795.2,463112485943339.9,370771201.7244068,675090540.5811055,9033230272.796705,185002617374.66425
3.5344323832055258,5995267962824333.0,6912517504875236.0,442476408637525.06,474562996559345.75,399384902.2009998,727189622.1442307,9730356105.88448,199279923402.85004
3.7051210308696363,6139307593225051.0,7078605249427992.0,453107149207374.1,485964635158970.3,429290697.0844081,781641315.7550373,10458961702.416216,214201942884.00928
3.879223451487029,6282826769568055.0,7244093630280569.0,463699478042555.4,497325076561320.6,460525555.819852,838512934.4344505,11219947762.48477,229787122373.6192
4.0568079205167695,6425914713082401.0,7409085536175525.0,474259980051238.1,508651383185298.7,493127844.66665715,897874334.4872708,12014249017.28668,246054605392.9431
4.237944078927105,6568653838980012.0,7573676009531087.0,484794737828431.7,519950078710939.5,527137345.33805543,959797949.4411025,12842834683.250769,263024241729.62482
4.422702960505647,6711120550644382.0,7737953162120803.0,495309390270503.4,531227210944418.56,562595276.9626833,1024358830.0333467,13706708997.094618,280716598395.71783
4.61115701971576,6853385921036340.0,7901998960720684.0,505809182865834.5,542488405755581.6,599544321.0597463,1091634689.6854024,14606911824.304178,299152972089.44507
4.803380160110075,6995516280252796.0,8065889904555831.0,516299011059174.06,553738913586897.6,638028649.2809588,1161705955.0145483,15544519335.0214,318355403037.498
4.9994477633122765,7137573724535751.0,8229697612183785.0,526783457818678.7,564983649744718.9,678093953.7214264,1234655821.0232673,16520644742.52001,338346690119.15125
5.199436718578522,7279616559172817.0,8393489332158359.0,537266826323853.75,576227229457607.5,719787479.6412593,1310570310.6780162,17536439100.41504,359150407193.2899
5.403425452950093,7421699685471175.0,8557328389213978.0,547753168525906.44,587473998507782.9,763158060.472103,1389538338.6482866,18593092155.54036,380790920565.4981
5.611493962009095,7563874940189258.0,8721274575636450.0,558246310199238.5,598728060099220.1,808256155.0092194,1471651779.0250633,19691833254.0744,403293407545.7095
5.823723841249277,7706191394366300.0,8885384495822351.0,568749872996347.6,609993298511921.0,855133886.7118177,1557005536.877943,20833932299.028908,426683876057.7857
6.040198318074262,7848695617327695.0,9049711870688534.0,579267293932557.0,621273399999565.8,903845085.0526112,1645697623.5434551,22020700757.664696,450989185271.6085
6.261002284435747,7991431910698311.0,9214307807503182.0,589801842657198.4,632571871313142.4,954445328.8729886,1737829235.565091,23253492717.770805,476237067235.90027
6.486222330124463,8134442516485836.0,9379221039821216.0,600356636811040.0,643892056172039.9,1006991991.71325,1833504837.2295873,24533705992.062782,502456149496.55396
6.715946776726952,8277767802662547.0,9544498141478086.0,610934655723035.2,655237149954012.9,1061544289.098471,1932832246.663881,25862783270.226856,529675978690.749
6.950265712261491,8421446429153176.0,9710183717992766.0,621538752660918.6,666610212834163.2,1118163327.7701283,2035922725.474905,27242213318.369335,557927045111.9458
7.18927102650672,8565515496703213.0,9876320578234028.0,632171665818332.4,678014181568784.5,1176912156.8619564,2142891071.9293778,28673532225.83442,587240808244.9921
7.433056447036854,8710010680742621.0,1.0042949888788226e+16,642836028194540.9,689451880091528.8,1237855821.0256858,2253855717.6839542,30158324699.52765,617649723274.1573
7.681717575977592,8854966352058820.0,1.0210111313119068e+16,653534376500606.8,700926029065420.1,1301061415.5188286,2368938828.087711,31698225406.041218,649187268570.1663
7.935351927497144,9000415685839810.0,1.037784313732046e+16,664269159207248.2,712439254514305.4,1366598143.2722297,2488266406.0894604,33294920362.01379,681887974165.0771
8.194058966047088,9146390760435920.0,1.054618238401562e+16,675042743833871.4,723994095640456.6,1434537373.9602873,2611968399.791421,34950148373.28164,715787451226.4208
8.45794014536803,9292922647007906.0,1.0715164915750296e+16,685857423564985.5,735593011920791.2,1504952705.1013577,2740178813.699413,36665702523.49196,750922422544.3463
8.72709894827539,9440041491076318.0,1.0884825529048826e+16,696715423268895.2,747238389562004.6,1577920025.2199764,2873035823.7271533,38443431712.949615,787330754047.5433
9.0016409272409,9587776586856954.0,1.1055198040154706e+16,707618904983971.0,758932547384692.4,1653517579.1065197,3010681896.0196037,40285242248.56495,825051487365.7296
9.281673745785717,9736156445155192.0,1.1226315363345206e+16,718569972929553.5,770677742197611.1,1731826035.2134657,3153263909.6664248,42193099485.85485,864124873458.2118
9.567307220701432,9885208855496778.0,1.1398209582602636e+16,729570678091458.9,782476173715719.1,1812928555.2307158,3300933283.38322,44169029524.034874,904592407329.7491
9.85865336511546,1.0034960943090754e+16,1.157091201732777e+16,740623022426086.0,794329989069145.1,1896910865.8857381,3453846106.2435265,46215120955.315605,946496863856.5364
10.155826432417769,1.0185439221148048e+16,1.1744453282700362e+16,751728962721759.4,806241286944535.9,1983861333.0172045,3612163272.550424,48333526669.58753,989882334746.5691
10.458942961066125,1.0336669639019514e+16,1.1918863345220526e+16,762890414151517.4,818212121395486.2,2073871037.973694,3776050620.94159,50526465715.755424,1034794266660.1575
10.768121820287448,1.0488677626562538e+16,1.2094171573903192e+16,774109253547564.4,830244505354425.0,2167033856.391941,3945679077.826845,52796225221.04245,1081279500517.749
11.083484256693197,1.0641488135099878e+16,1.2270406787544618e+16,785387322424206.2,842340413874778.9,2263446539.4115453,4121224805.26214,55145162369.65895,1129386312023.4722
11.405153941827061,1.0795125675293832e+16,1.2447597298433868e+16,796726429773102.9,854501787128927.8,2363208797.38599,4302869353.368641,57575706442.287865,1179164453434.2725
11.733257020663602,1.0949614352222708e+16,1.2625770952840302e+16,808128354652105.1,866730533184747.0,2466423386.152236,4490799817.410528,60090360917.90571,1230665196605.6614
12.067922161076874,1.110497789791746e+16,1.280495516857329e+16,819594848586561.5,879028530581075.0,2573196195.923696,4685208999.649228,62691705639.51888,1283941377346.486
12.409280604298411,1.126123970158707e+16,1.2985176969879502e+16,831127637800097.8,891397630720248.0,2683636342.8740344,4886295576.09722,65382399045.45731,1339047441116.3137
12.75746621638438,1.141842283773882e+16,1.3166463019913928e+16,842728425290006.5,903839660093988.0,2797856263.4815803,5094264268.298239,68165180467.927284,1396039490100.2766
13.112615540712067,1.157655009237808e+16,1.3348839650998274e+16,854398892760904.2,916356422357288.1,2915971811.706898,5309326020.265944,71042872500.5867,1454975331697.5676
13.474867851526309,1.173564398745318e+16,1.353233289285786e+16,866140702428874.1,928949700263373.2,3038102359.078236,5531698180.717418,74018383436.96979,1515914528460.873
13.844365208556836,1.1895726803695434e+16,1.3716968499009104e+16,877955498707147.0,941621257471628.2,3164370897.7623506,5761604690.742209,77094709781.64452,1578918449525.4148
14.221252512727972,1.205682060198834e+16,1.3902771971453538e+16,889844909783246.0,954372840239106.1,3294904146.7006826,5999276277.052636,80274938836.05197,1644050323567.49
14.605677562982532,1.2218947243388386e+16,1.408976858381831e+16,901810549096612.2,967206179005306.9,3429832660.893311,6244950650.965777,83562251361.03563,1711375293333.6335
14.997791114242183,1.2382128407907534e+16,1.427798340307102e+16,913854016724819.5,980122989878916.9,3569290943.915724,6498872713.271473,86959924318.1365,1780960471782.8499
15.397746936527026,1.2546385612156946e+16,1.4467441309923046e+16,925976900685763.0,993124976034429.0,3713417563.756158,6761294765.146466,90471333691.7853,1852874999885.6982
15.805701875257567,1.2711740225942938e+16,1.4658167018026796e+16,938180778162522.5,1006213829025813.5,3862355272.063766,7032476725.278816,94099957394.59525,1927190106125.2117
16.221815912762718,1.2878213487897442e+16,1.485018509206162e+16,950467216656936.6,1019391230023762.9,4016251126.9005294,7312686353.372016,97849378258.01767,2003979167746.0627
16.64625223101797,1.304582652021768e+16,1.5043519964794608e+16,962837775077471.5,1032658850982439.0,4175256619.0927143,7602199480.202985,101723287110.6959,2083317773799.7466
17.079177275638333,1.321460034258385e+16,1.5238195953195408e+16,975294004766392.4,1046018355741133.5,4339527802.280175,7901300244.413061,105725485946.9102,2165283790034.8142
17.5207608211511,1.3384555885316416e+16,1.5434237273676656e+16,987837450470844.8,1059471401065765.2,4509225426.76486,8210281336.216477,109859891187.58281,2249957425682.685
17.97117603757412,1.3555714001830746e+16,1.5631668056526044e+16,1000469651262033.2,1073019637634714.6,4684515077.262471,8529444248.215771,114130537036.37985,2337421302191.0146
18.430599558325603,1.37280954804401e+16,1.5830512359589372e+16,1013192141406361.5,1086664710973145.9,4865567314.664407,8859099533.518759,118541578933.51251,2427760523957.7817
18.899211549492115,1.390172105555552e+16,1.603079418126016e+16,1026006451192015.9,1100408262339507.6,5052557821.919552,9199567071.357187,123097297109.91678,2521062751121.1606
19.37719578048196,1.4076611418325346e+16,1.6232537472825924e+16,1038914107714210.6,1114251929567741.1,5245667554.149163,9551176340.412811,127802100244.56108,2617418274461.1816
19.864739696091597,1.4252787226754864e+16,1.6435766150216482e+16,1051916635622052.0,1128197347868299.8,5445082893.110492,9914266700.061285,132660529227.70049,2716920092471.2046
20.36203449001343,1.4430269115341736e+16,1.664050410519748e+16,1065015557829700.0,1142246150590879.0,5650995806.12795,10289187679.751009,137677261032.98193,2819663990658.2495
20.869275179813698,1.460907770426176e+16,1.6846775216046702e+16,1078212396194284.6,1156399969951490.0,5863604009.614174,10676299276.73871,142857112701.3659,2925748623133.331
21.38666068340997,1.4789233608134148e+16,1.7054603357748664e+16,1091508672162839.8,1170660437726303.2,6083111137.305627,11075972262.40953,148205045439.91333,3035275596553.807
21.91439389707817,1.4970757444394578e+16,1.7264012411740044e+16,1104905907390271.4,1185029185914452.0,6309726913.341424,11488588497.41522,153726168838.5637,3148349556481.895
22.452681775019734,1.5153669841301628e+16,1.7475026275233642e+16,1118405624330256.1,1199507847371745.0,6543667330.31619,11914541255.869215,159425745208.09637,3265078276224.764
23.00173541052013,1.5337991445598004e+16,1.7687668870148482e+16,1132009346800678.8,1214098056417127.5,6785154832.441637,12354235558.843594,165309194042.55753,3385572748223.009
23.561770118730532,1.552374292984762e+16,1.7901964151667952e+16,1145718600525147.8,1228801449413477.8,7034418503.954242,12808088517.417685,171382096609.49002,3509947278056.246
24.133005521105144,1.5710944999465894e+16,1.8117936116447516e+16,1159534913651832.8,1243619665324037.5,7291694262.909029,13276529685.534168,177650200671.3866,3638319581135.424
24.715665631527248,1.589961839945765e+16,1.8335608810488204e+16,1173459817250787.8,1258554346245823.8,7557225060.502917,13760001422.922771,184119425341.8567,3770810882153.449
25.309978944157795,1.6089783920876172e+16,1.855500633669147e+16,1187494845790639.5,1273607137920864.0,7831261086.073063,14258959268.357197,190795866080.0496,3907546017366.5264
25.91617852304095,1.6281462407011944e+16,1.8776152862105304e+16,1201641537595332.2,1288779690226080.5,8114059977.91844,14773872323.51479,197685799826.9424,4048653539780.014
26.53450209350177,1.6474674759318036e+16,1.899907262487012e+16,1215901435281457.8,1304073657642340.5,8405887040.094759,15305223647.712303,204795690287.15216,4194265827313.625
27.165192135371807,1.666944194307553e+16,1.922378994086831e+16,1230276086176404.0,1319490699702883.8,8707015465.334454,15853510663.794296,212132193359.97314,4344519194021.6177
27.808495978079243,1.6865784992798372e+16,1.9450329210076068e+16,1244767042717214.8,1335032481421157.8,9017726564.244911,16419245575.452522,219702162723.35135,4499554004444.057
28.464665897640828,1.7063725017373016e+16,1.9678714922613172e+16,1259375862829961.8,1350700673697662.0,9338310000.938433,17002955796.256096,227512655574.5582,4659514791165.728
29.133959215593645,1.7263283204924328e+16,1.990897166448087e+16,1274104110288838.8,1366496953705107.0,9669064035.247137,17605184390.67206,235570938531.28476,4824550375659.089
29.816638399905518,1.7464480827393708e+16,2.014112412297104e+16,1288953355054054.8,1382423005250796.5,10010295771.675932,18226490527.353218,243884493696.8728,4994813992487.106
30.51297116790363,1.7667339244809634e+16,2.037519709172452e+16,1303925173587027.0,1398480519114671.8,10362321415.242966,18867449944.968105,252461024893.34827,5170463416940.806
31.223230591261704,1.7871879909225418e+16,2.0611215475409656e+16,1319021149140999.2,1414671193361022.2,10725466534.35558,19528655430.83949,261308464065.84308,5351661096185.012
31.947695203086937,1.8078124368291692e+16,2.0849204293983144e+16,1334242872024690.2,1430996733621242.0,11100066330.863821,20210717312.65297,270434977861.86765,5538574283982.836
32.686649107148675,1.8286094268423396e+16,2.1089188686487336e+16,1349591939836054.0,1447458853344525.8,11486465917.428137,20914263963.482273,279848974388.7645,5731375179067.135
33.44038208929165,1.8495811357513548e+16,2.1331193914329068e+16,1365069957662562.8,1464059274012697.2,11885020602.329338,21639942320.365543,289559110152.4714,5930241067222.578
34.20918973107749,1.8707297487136892e+16,2.157524536397426e+16,1380678538243837.5,1480799725314627.8,12296096181.839617,22388418416.648502,299574297180.45825,6135354467137.245
34.993373525699035,1.8920574614177156e+16,2.182136854898149e+16,1396419302091739.0,1497681945275032.2,12720069240.260153,23160377928.287384,309903710331.44635,6346903280076.5205
35.793240996213015,1.9135664801800988e+16,2.206958911128727e+16,1412293877562277.0,1514707680331581.8,13157327457.717304,23956526734.27746,320556794794.11816,6565080943424.589
36.60910581613728,1.9352590219692468e+16,2.231993282164206e+16,1428303900872879.5,1531878685353446.8,13608269925.790718,24777591491.342766,331543273776.6151,6790086588130.459
37.44128793246003,1.957137314344871e+16,2.257242557908417e+16,1444451016057828.8,1549196723593487.2,14073307471.027428,25624320222.984013,342873156388.1475,7022125200084.715
38.29011369110923,1.979203595302832e+16,2.2827093409324468e+16,1460736874853704.8,1566663566565374.0,14552862986.371521,26497482922.938747,354556745713.4176,7261407785441.973
39.15591596493141,2.0014601130129564e+16,2.3083962461902516e+16,1477163136505919.0,1584280993836129.5,15047371770.512651,27397872173.06118,366604647079.9539,7508151539890.531
40.03903428423004,2.0239091254366384e+16,2.3343059005960296e+16,1493731467486474.8,1602050792723383.0,15557281875.126127,28326303775.568947,379027776517.6753,7762580021855.136
40.93981496991464,2.046552899809662e+16,2.3604409424465748e+16,1510443541112251.2,1619974757886008.8,16083054459.942856,29283617399.548298,391837369409.1932,8024923329602.162
41.85861126931294,2.069393711974578e+16,2.3868040206706628e+16,1527301037052304.0,1638054690795648.5,16625164155.549974,30270677241.533764,405044989328.4218,8295418282197.455
42.7957834946992,2.092433845545904e+16,2.413397793886018e+16,1544305640711718.8,1656292399075941.0,17184099433.780376,31288372699.90615,418662537064.05566,8574308604246.055
43.751699164593184,2.1156755908904316e+16,2.440224929243485e+16,1561459042479035.0,1674689695695328.5,17760362985.504173,32337619062.76788,432702259823.3419,8861845114320.494
44.72673314788505,2.1391212439037736e+16,2.4672881010367636e+16,1578762936823315.8,1693248397998668.0,18354472105.584785,33419358208.863457,447176760610.3873,9158285916958.666
