t(s),Total solute volume 1,Total retention volume 1,Total 1 volume 1,Total 2 volume 1,Total 3 volume 1,Total 4 volume 1,Total 5 volume 1,Total 6 volume 1
0.1,941999071437344.5,1111941895936827.4,80338108873842.89,89604715625638.98,0.0,0.0,0.0,0.0
0.202,1397861494408944.5,1693522234778324.0,119216199460094.81,132967204058941.83,67175380128.91855,129910637733.04544,1902651095056.6274,41377599737424.53
0.30604000000000003,1729679364518736.8,2150395000367604.0,147515187311378.2,164530341656522.75,167896507896.58966,324701972229.1805,4755559602176.702,103421948798663.38
0.41216080000000005,1997990681103888.8,2548615611032443.5,170398037724134.62,190052616848774.22,293815435175.20483,568233297458.744,8322325588925.995,180989901034085.75
0.5204040160000001,2225846495553189.0,2912720047313158.5,189830652733592.2,211726688875215.22,440801109734.78925,852518321230.4445,12485984077114.594,271536906643083.34
0.6308120963200001,2424925273393578.5,3254849822299294.5,206809026781923.06,230663435265577.22,606313403740.7479,1172647153434.445,17174627298623.842,373498499002414.06
0.7434283382464002,2602127839988268.0,3582025009211459.5,221921694697016.28,247519275459342.12,788612659773.9553,1525257785861.588,22339017710900.523,485803310910305.1
0.8582969050113283,2761947030196239.0,3898727634338975.5,235551826556285.34,262721576326004.28,986429453225.4784,1907897516339.5933,27943235407453.35,607669638883422.6
0.9754628431115548,2907510214370910.0,4208025098932068.5,247966139205000.25,276567819192520.84,1198798997236.486,2318702746676.143,33959988461220.145,738503435958505.6
1.094972099973786,3041103449516149.0,4512128414156168.0,259359598330980.5,289275458083675.5,1424967705253.426,2756218312110.435,40367966846850.21,877840755361150.1
1.2168715419732616,3164461375454205.5,4812697317913309.0,269880142172607.06,301009495188821.6,1664335902724.163,3219286711748.067,47150220129276.65,1025312462353912.1
1.3412089728127268,3278939491916213.5,5111019450034915.0,279643374118983.62,311898868181550.2,1916420464124.197,3706975867878.2803,54293099442953.17,1180621220043208.2
1.4680331522689813,3385622456328088.0,5408121644965672.0,288741798854218.2,322046751707985.1,2180829252469.925,4218529707124.712,61785533717061.52,1343525745398738.5
1.597393815314361,3485395312710885.0,5704842255111869.0,297250897092894.7,331537332813248.0,2457242954916.724,4753333042901.738,69618515355705.336,1513829621141306.0
1.729341691620648,3578992116786843.5,6001879931460791.0,305233272557689.9,340440436252631.56,2745401768143.9395,5310885835524.456,77784723261801.0,1691373094998164.0
1.863928525453061,3667030182139817.5,6299827567745424.0,312741572652933.9,348814782050546.0,3045095384808.951,5890783835322.13,86278239345399.58,1876026912336597.5
2.001207095962122,3750034847779286.0,6599196556490579.0,319820600758895.44,356710341437602.1,3356155298323.331,6492703708503.364,95094330685631.17,2067687576822329.8
2.1412312378813647,3828457804370707.0,6900434523863722.0,326508879178852.2,364170080075971.2,3678448779683.646,7116391396156.528,104229279044599.75,2266273641017750.0
2.284055862638992,3902690926484641.5,7203938558416600.0,332839828818324.56,371231273808836.44,4011874088206.6455,7761652859191.016,113680245325374.25,2471722757032030.0
2.4297369798917723,3973076896628092.5,7510065254048384.0,338842675252408.4,377926519238153.7,4356356611181.6177,8428346619513.862,123445160337373.45,2683989299361648.5
2.578331719489608,4039917492120701.0,7819138454799365.0,344543155469531.44,384284521987838.8,4711845715202.206,9116377677408.627,133522635717430.23,2903042426111266.5
2.7298983538794,4103480138497120.0,8131455311867724.0,349964076776419.3,390330720075675.4,5078312151272.531,9825692499808.738,143911890535081.2,3128864481332338.5
2.884496320956988,4164003156361090.5,8447291081161093.0,355125764274468.75,396087783003905.3,5455745896824.986,10556274853518.46,154612690272912.84,3361449666498373.5
3.0421862473761276,4221700009136924.5,8766902967412903.0,360046423127965.94,401576015813304.06,5844154346760.046,11308142313453.56,165625295693264.0,3600802926981225.5
3.2030299723236504,4276762776769916.0,9090533237113000.0,364742434817588.44,406813689508072.44,6243560786445.008,12081343316245.918,176950419692378.56,3846939012222364.0
3.3670905717701234,4329365022571118.5,9418411764059586.0,369228601638400.0,411817313755477.8,6654003094827.625,12875954658981.54,188589190674076.22,4099881677666679.0
3.5344323832055258,4379664179105024.0,9750758129896178.0,373518350179573.06,416601863835963.94,7075532637107.7,13692079364666.486,200543121294644.12,4359663003479198.0
3.7051210308696363,4427803549098058.0,1.0087783372172092e+16,377623901971264.2,421180970973311.06,7508213314894.516,14529844852421.22,212814081670924.38,4626322810291200.0
3.879223451487029,4473913995367733.0,1.042969145069929e+16,381556417609723.9,425567083083864.94,7952120748236.0625,15389401362890.049,225404276326470.78,4899908156200380.0
4.0568079205167695,4518115377425394.0,1.0776680486902186e+16,385326119277525.2,429771601428876.25,8407341568876.767,16270920598965.04,238316224291395.66,5180472902311138.0
4.237944078927105,4560517780103700.0,1.1128943818836002e+16,388942395526694.0,433804997483854.5,8873972807967.156,17174594549399.29,251552741881036.34,5468077336483321.0
4.422702960505647,4601222570203384.0,1.1486670905472366e+16,392413891394511.94,437676913448780.75,9352121364486.113,18100634468756.867,265116927764579.2,5762787846827861.0
4.61115701971576,4640323309965478.0,1.1850048106921706e+16,395748586308724.1,441396249139301.75,9841903543042.232,19049269991801.254,279012150002919.7,6064676637970455.0
4.803380160110075,4677906550601241.0,1.221925936192745e+16,398953861763496.25,444971237468778.6,10343444651644.09,20020748364139.18,293242034789503.6,6373821484288660.0
4.9994477633122765,4714052524752642.0,1.2594486779823576e+16,402036560375702.8,448409510316427.3,10856878651577.758,21015333773935.68,307810456671738.2,6690305515281546.0
5.199436718578522,4748835753318465.0,1.2975911160901904e+16,405003037637911.06,451718156249752.3,11382347852785.879,22033306771940.47,322721530066147.9,7014217029004904.0
5.403425452950093,4782325579350265.0,1.3363712456576022e+16,407859207451535.44,454903771309734.06,11920002649167.38,23074963769052.176,337979601909476.2,7345649330136785.0
5.611493962009095,4814586639536913.0,1.3758070178693372e+16,410610582337252.2,457972503859314.9,12470001289061.36,24140616602275.85,353589245311846.6,7684700589756720.0
5.823723841249277,4845679282035699.0,1.4159163765721672e+16,413262309069615.25,460930094328286.56,13032509676873.451,25230592161275.96,369555254097773.56,8031473724352111.0
6.040198318074262,4875659937981599.0,1.4567172912224624e+16,415819200361091.5,463781910551933.9,13607701202383.76,26345232068850.363,385882638137292.1,8386076291921473.0
6.261002284435747,4904581452841250.0,1.4982277866982756e+16,418285763121504.2,466532979290058.75,14195756594759.098,27484892409583.184,402576619383147.9,8748620403342459.0
6.486222330124463,4932493382824846.0,1.5404659704249948e+16,420666223737420.3,469188014422229.2,14796863798697.951,28649943501724.83,419642628541506.94,9119222647423520.0
6.715946776726952,4959442260781314.0,1.5834500571931274e+16,422964550748946.44,471751442240218.94,15411217870481.312,29840769708009.695,437086302313417.75,9498004028268878.0
6.950265712261491,4985471835350135.0,1.6271983919884776e+16,425184475245719.94,474227424196592.3,16039020891991.76,31057769281684.67,454913481152436.9,9885089913766264.0
7.18927102650672,5010623286600354.0,1.6717294711069802e+16,427329509257617.3,476619877416678.44,16680481901011.922,32301354244502.37,473130207490914.2,1.028060999415875e+16
7.433056447036854,5034935420932459.0,1.7170619617864228e+16,429402962376900.75,478932493238007.4,17335816836324.182,33571950293840.793,491742724393375.9,1.0684698249793374e+16
7.681717575977592,5058444847637612.0,1.7632147205541818e+16,431407956816023.6,481168754004954.6,18005248496315.523,34869996736465.137,510757474600654.9,1.1097492927249802e+16
7.935351927497144,5081186139186294.0,1.8102068104619492e+16,433347441077792.7,483331948315696.44,18689006509947.305,36195946446748.22,530181099932808.7,1.1519136523150216e+16
8.194058966047088,5103191977045904.0,1.858057517355235e+16,435224202391384.5,485425184892654.7,19387327319085.324,37550265847428.95,550020441022717.0,1.1949775775033186e+16
8.45794014536803,5124493284594779.0,1.906786365305428e+16,437040878047878.8,487451405225526.8,20100454171301.633,38933434911215.945,570282537355582.5,1.2389561658747978e+16
8.72709894827539,5145119348502489.0,1.9564131313155924e+16,438799965752132.3,489413395117201.8,20828637122362.734,40345947181739.07,590974627592459.4,1.2838649391887516e+16
9.0016409272409,5165097929776226.0,2.006957859396835e+16,440503833093344.56,491313795246709.44,21572133047705.766,41788309812527.15,612104150158442.0,1.3297198442833446e+16
9.281673745785717,5184455365528265.0,2.0584408741000144e+16,442154726224264.1,493155110849528.0,22331205662283.93,43261043622838.29,633678744078385.5,1.3765372545034568e+16
9.567307220701432,5203216662393637.0,2.1108827935770056e+16,443754777828286.3,494939720603647.3,23106125548228.27,44764683169303.375,655706250044937.6,1.4243339716182008e+16
9.85865336511546,5221405582418636.0,2.1643045422371736e+16,445306014444423.06,496669884799440.44,23897170189835.402,46299776832459.87,678194711705408.1,1.4731272281981536e+16
10.155826432417769,5239044722146916.0,2.2187273630565504e+16,446810363212148.25,498347752862490.8,24704624015440.79,47866886917356.69,701152377155523.6,1.5229346904255668e+16
10.458942961066125,5256155585548285.0,2.2741728295910228e+16,448269658091101.6,499975370290710.75,25528778445786.15,49466589767501.27,724587700629378.6,1.573774461313742e+16
10.768121820287448,5272758651363884.0,2.3306628577389064e+16,449685645604596.56,501554685060337.0,26369931948528.926,51099475891500.45,748509344376176.5,1.625665084314401e+16
11.083484256693197,5288873435379132.0,2.3882197172933756e+16,451059990150561.3,503087553549456.44,27228390098580.51,52766150101821.664,772926180715351.1,1.6786255472938816e+16
11.405153941827061,5304518548081361.0,2.4468660433208172e+16,452394278918845.7,504575746022506.25,28104465643990.316,54467231665161.414,797847294262611.1,1.7326752868613702e+16
11.733257020663602,5319711748111244.0,2.5066248473976012e+16,453690026449813.1,506020951714675.06,28998478577123.645,56203354463968.91,823281984320331.6,1.7878341930338894e+16
12.067922161076874,5334469991874687.0,2.5675195287342624e+16,454948678865473.3,507424783551070.2,29910756210905.574,57975167168721.46,849239767426394.5,1.8441226142245372e+16
12.409280604298411,5348809479644610.0,2.6295738852133576e+16,456171617801263.56,508788782532024.2,30841633259928.61,59783333420596.914,875730380056346.9,1.9015613625418876e+16
12.75746621638438,5362745698449633.0,2.6928121243647468e+16,457360164063787.94,510114421812723.25,31791451926239.305,61628532024227.94,902763781474305.9,1.9601717193896548e+16
13.112615540712067,5376293462016667.0,2.7572588742996668e+16,458515581037320.0,511403110502638.94,32760561989641.375,63511457150261.75,930350156728571.5,2.0199754413571604e+16
13.474867851526309,5389466948009337.0,2.8229391946232316e+16,459639077859667.9,512656197207716.6,33749320902366.914,65432818547483.15,958499919788496.2,2.080994766391722e+16
13.844365208556836,5402279732780847.0,2.8898785873431436e+16,460731812386055.75,513874973336117.2,34758093887982.977,67393341764288.39,987223716819494.2,2.143252420245665e+16
14.221252512727972,5414744823838816.0,2.95810300779087e+16,461794893957884.8,515060676186350.75,35787254044415.42,69393768379325.0,1016532429593587.9,2.2067716231908304e+16
14.605677562982532,5426874690202445.0,3.027638875570277e+16,462829385991734.0,516214491834898.9,36837182450983.62,71434856241141.55,1046437179033193.1,2.2715760969948256e+16
14.997791114242183,5438681290814909.0,3.098513085547405e+16,463836308402494.0,517337557838851.5,37908268279348.48,73517379716710.17,1076949328886240.8,2.3376900721535516e+16
15.397746936527026,5450176101159503.0,3.1707530188942148e+16,464816639873333.06,518430965767695.94,39000908908291.46,75642129948707.2,1108080489530980.0,2.405138295375363e+16
15.805701875257567,5461370138215477.0,3.2443865541977776e+16,465771319984036.06,519495763577152.5,40115510042245.42,77809915121458.62,1139842521909189.2,2.4739460373128184e+16
16.221815912762718,5472273983876662.0,3.319442078646083e+16,466701251208252.5,520532957836797.94,41252485833509.66,80021560735475.02,1172247541586669.0,2.544139100538348e+16
16.64625223101797,5482897806945997.0,3.3959484993004948e+16,467607300789306.75,521543515822229.44,42412259008089.04,82277909890510.77,1205307922940235.0,2.615743827760861e+16
17.079177275638333,5493251383809348.0,3.473935254464234e+16,468490302503344.25,522528367481606.44,43595260995102.734,84579823577108.06,1239036303470603.5,2.6887871102805196e+16
17.5207608211511,5503344117883205.0,3.553432325155956e+16,469351058317935.44,523488407285529.5,44801932059712.53,86928180976589.7,1273445588240781.8,2.763296396679582e+16
17.97117603757412,5513185057922945.0,3.634470246696571e+16,470190339953474.56,524424495968576.0,46032721439530.94,89323879769487.14,1308548954439742.0,2.8392997017471924e+16
18.430599558325603,5522782915271447.0,3.717080120417247e+16,471008890354239.4,525337462170016.8,47288087484470.02,91767836452392.67,1344359856071407.2,2.9168256156368536e+16
18.899211549492115,5532146080121354.0,3.8012936254960056e+16,471807425075301.5,526228103980701.25,48568497799996.7,94260986663245.06,1380892028769041.2,2.9959033132550476e+16
19.37719578048196,5541282636858068.0,3.887143030929826e+16,472586633591059.25,527097190402533.1,49874429393767.26,96804285515061.72,1418159494735408.8,3.0765625638802316e+16
19.864739696091597,5550200378546079.0,3.974661207649015e+16,473347180530683.3,527945462726411.94,51206368825614.23,99398707938143.64,1456176567809078.8,3.158833741011409e+16
20.36203449001343,5558906820615190.0,4.063881640780176e+16,474089706845366.25,528773635834115.2,52564812360863.54,102045249030787.0,1494957858657562.8,3.242747832445789e+16
20.869275179813698,5567409213800090.0,4.154838442063714e+16,474814830911846.3,529582399429122.5,53950266126963.57,104744924418545.2,1534518280097910.8,3.328336450585265e+16
21.38666068340997,5575714556381615.0,4.2475663624317336e+16,475523149576415.75,530372419201026.9,55363246273407.44,107498770622092.86,1574873052545638.8,3.415631842971719e+16
21.91439389707817,5583829605775144.0,4.342100804751854e+16,476215239143226.7,531144337927851.44,56804279134936.625,110307845433748.33,1616037709592977.5,3.5046669030510644e+16
22.452681775019734,5591760889507623.0,4.4384778367421816e+16,476891656310464.1,531898776520197.44,58273901398010.76,113173228302724.78,1658028103717457.0,3.5954751811665344e+16
23.00173541052013,5599514715622157.0,4.53673420406269e+16,477552939057701.3,532636335010955.94,59772660270535.72,116096020729177.73,1700860412122018.2,3.6880908957814296e+16
23.561770118730532,5607097182545939.0,4.636907343587718e+16,478199607487480.7,533357593493954.9,61301113654839.37,119077346667133.22,1744551142707919.0,3.782548944931999e+16
24.133005521105144,5614514188454769.0,4.739035396864536e+16,478832164623963.6,534063113014738.4,62859830323886.875,122118352936380.36,1789117140181812.2,3.878884917910982e+16
24.715665631527248,5621771440165247.0,4.843157223762395e+16,479451097171299.8,534753436416401.2,64449390100730.73,125220209643418.44,1834575592298413.5,3.977135107182844e+16
25.309978944157795,5628874461583224.0,4.94931241631665e+16,480056876234147.0,535429089143224.25,66070384041188.65,128384110611556.78,1880944036240344.5,4.077336520531266e+16
25.91617852304095,5635828601735326.0,5.057541312772053e+16,480649958002645.8,536090580004653.75,67723414619742.98,131611273820272.78,1928240365136747.0,4.179526893440109e+16
26.53450209350177,5642639042408547.0,5.1678850118296984e+16,481230784403954.75,536738401901987.56,69409095918661.375,134902941853929.52,1976482834722364.5,4.283744701708752e+16
27.165192135371807,5649310805421033.0,5.2803853871012424e+16,481799783722332.75,537373032519982.1,71128053820328.67,138260382359974.36,2025690070138943.2,4.390029174302992e+16
27.808495978079243,5655848759545625.0,5.3950851017747e+16,482357371189617.56,537994934985441.75,72880926202791.38,141684888516726.0,2075881072880701.0,4.4984203064426024e+16
28.464665897640828,5662257627106520.0,5.512027623495401e+16,482903949547818.1,538604558494699.06,74668363138508.28,145177779510882.8,2127075227885915.8,4.608958872926966e+16
29.133959215593645,5668541990267771.0,5.631257239465959e+16,483439909585428.5,539202338911791.94,76491027096301.17,148740401024870.5,2179292310776545.2,4.7216864416996984e+16
29.816638399905518,5674706297031340.0,5.7528190717686936e+16,483965630648966.44,539788699339009.44,78349593146506.34,152374125734165.7,2232552495248018.2,4.83664538765389e+16
30.51297116790363,5680754866961130.0,5.876759092914158e+16,484481481131153.56,540364050661374.0,80244749169316.31,156080353814729.0,2286876360611288.0,4.9538789066792536e+16
31.223230591261704,5686691896648544.0,6.003124141619078e+16,484987818937027.6,540928792066522.75,82177196066309.52,159860513460683.44,2342284899489408.0,5.0734310299522264e+16
31.947695203086937,5692521464933608.0,6.1319619388170504e+16,485484991929247.1,541483311541373.25,84147647975161.1,163716061412391.53,2398799525670814.5,5.195346638470794e+16
32.686649107148675,5698247537895908.0,6.263321103905173e+16,485973338353723.25,542027986346852.1,86156832487524.94,167648483495066.75,2456442082121819.0,5.319671477835085e+16
33.44038208929165,5703873973627261.0,6.397251171229727e+16,486453187246666.3,542563183471890.2,88205490870083.73,171659295168075.94,2515234849160497.0,5.446452173275272e+16
34.20918973107749,5709404526798604.0,6.533802606813927e+16,486924858824067.1,543089260067828.56,90294378288750.02,175750042085089.78,2575200552794587.5,5.575736244928038e+16
34.993373525699035,5714842853031931.0,6.673026825330646e+16,487388664854553.5,543606563864287.1,92424264036013.17,179922300665234.22,2636362373225882.5,5.707572123362851e+16
35.793240996213015,5720192513087974.0,6.81497620732292e+16,487844909016541.1,544115433567502.8,94595931761418.3,184177678675409.25,2698743953523646.0,5.84200916535967e+16
36.60910581613728,5725456976879340.0,6.9597041166749256e+16,488293887240492.5,544616199242073.8,96810179705157.47,188517815823936.8,2762369408469752.0,5.979097669938847e+16
37.44128793246003,5730639627318584.0,7.107264918336118e+16,488735888037094.3,545109182676983.56,99067820934765.78,192944384365709.78,2827263333578257.0,6.1188888946449624e+16
38.29011369110923,5735743764009768.0,7.257713996300814e+16,489171192812093.3,545594697736762.25,101369683584895.92,197459089719011.44,2893450814291983.5,6.261435072085348e+16
39.15591596493141,5740772606791826.0,7.411107771845926e+16,489600076168492.5,546073050698526.6,103716611100154.84,202063671094180.8,2960957435359243.5,6.4067894267247176e+16
40.03903428423004,5745729299141489.0,7.567503722028955e+16,490022806196764.44,546544540575677.3,106109462480976.75,206759902134302.06,3029809290393156.5,6.555006191936719e+16
40.93981496991464,5750616911443046.0,7.726960398448034e+16,490439644753719.9,547009459428929.0,108549112532511.5,211549591568103.56,3100032991616942.5,6.7061406273137144e+16
41.85861126931294,5755438444131846.0,7.88953744626691e+16,490850847730591.2,547468092665321.1,111036452116494.38,216434583875243.7,3171655679797672.5,6.860249036235173e+16
42.7957834946992,5760196830718178.0,8.055295623505854e+16,491256665310921.2,547920719325847.1,113572388406068.64,221416759964173.6,3244705034371951.5,7.017388783696141e+16
43.751699164593184,5764894940697183.0,8.22429682060099e+16,491657342218754.44,548367612362274.56,116157845143529.27,226498037862771.7,3319209283766233.0,7.177618314395907e+16
