t(s),Total solute volume 1,Total retention volume 1,Total 1 volume 1,Total 2 volume 1,Total 3 volume 1,Total 4 volume 1,Total 5 volume 1,Total 6 volume 1
0.1,1171626138357391.5,1690659390667246.5,218249522949102.88,300783729360751.56,0.0,0.0,0.0,0.0
0.202,1761154703375169.5,2547683698286254.0,328066406906747.75,452129467351557.94,3203341213.0295157,8577964832.902602,204563911248.77695,6116775435487.081
0.30604000000000003,2208557665030951.5,3203005470664476.5,411408252155811.25,566988239579561.9,8114469109.15667,21729111017.8089,518215519924.6675,15503254798098.852
0.41216080000000005,2585372821480327.0,3759172944932723.5,481601060623883.5,663725475496556.1,14391150488.081526,38536985567.21078,919085347102.5377,27501573848798.617
0.5204040160000001,2918520041260270.0,4254724489492632.5,543659442766908.06,749252133753879.1,21878498734.53859,58586829333.22248,1397279640343.599,41815126743165.47
0.6308120963200001,3221430344815328.5,4708871644431333.0,600085317735242.1,827016270608663.1,30490982859.716293,81649606743.98611,1947335295460.4512,58280235387042.63
0.7434283382464002,3501914694036200.5,5132784147157834.0,652333704908294.6,899023142138432.2,40177357913.53355,107588094660.75111,2565979266920.935,76798861355400.66
0.8582969050113283,3764977408268354.0,5533621067925384.0,701336804661777.9,966557473810157.5,50906227910.68686,136318222222.30573,3251206331548.6084,97310950403410.84
0.9754628431115548,4014046538417404.0,5916292114082418.0,747733191418466.0,1030499326220899.6,62658917129.73072,167789981373.53522,4001823737546.0044,119780785389602.08
1.094972099973786,4251588502612642.0,6284336707428092.0,791982307460616.6,1091481886409672.9,75425511416.6486,201976826151.26425,4817198348109.58,144189410259489.47
1.2168715419732616,4479445757555542.5,6640406515548965.0,834427364063450.1,1149978155967869.2,89202470808.10289,238869279703.61804,5697104154017.346,170530062057574.5
1.3412089728127268,4699036084523563.0,6986549990399027.0,875332464323465.6,1206352112403739.8,103991098946.37427,278470835653.66736,6641624512886.766,198805242700769.66
1.4680331522689813,4911476980036884.0,7324389827149999.0,914905774546646.1,1260890643127106.5,119796514460.09058,320795203642.5225,7651086450430.296,229024751270821.12
1.597393815314361,5117666878011205.0,7655238746967960.0,953314654242387.2,1313824397069843.2,136626933424.95978,365864387891.8281,8726014831051.169,261204311492156.28
1.729341691620648,5318340188412452.0,7980177896444421.0,990695908677529.8,1365341914391813.8,154493153527.48862,413707305892.52356,9867099411526.342,295364585091679.7
1.863928525453061,5514105770101662.0,8300111611372182.0,1027162955565349.5,1415599503357174.5,173408173974.15796,464358770596.85284,11075170564910.295,331530444838520.3
2.001207095962122,5705474543868790.0,8615806696451367.0,1062810968798140.8,1464728329243946.0,193386909654.5139,517858725006.4262,12351181024517.535,369730427881312.2
2.1412312378813647,5892879767055485.0,8927921248745311.0,1097720655186778.4,1512839619312362.5,214445972511.8394,574251656730.8854,13696191920496.408,409996317640939.2
2.284055862638992,6076692217650372.0,9237026232593418.0,1131961082941140.0,1560028560916138.0,236603501947.21606,633586143849.8518,15111361948188.574,452362819491781.25
2.4297369798917723,6257231765452851.0,9543621913325878.0,1165591837136711.2,1606377272089998.0,259879031719.53427,695914498505.1024,16597938867499.47,496867306248599.4
2.578331719489608,6434776326809843.0,9848150570212944.0,1198664687795353.2,1651957100439341.5,284293384491.86456,761292484525.289,18157252768051.207,543549616531346.6
2.7298983538794,6609568890378587.0,1.015100646802296e+16,1231224898638477.8,1696830426817380.8,309868587650.1371,829779092014.6538,19790710693005.73,592451893815834.6
2.884496320956988,6781823097825124.0,1.0452543776215606e+16,1263312266654795.5,1741052098020507.8,336627805720.02924,901436356389.3323,21499792323024.527,643618457230059.5
3.0421862473761276,6951727726298649.0,1.0753082929365344e+16,1294961957091890.0,1784670577544000.0,364595285899.1139,976329212534.5062,23286046497907.06,697095697434465.9
3.2030299723236504,7119450325358001.0,1.105291578821252e+16,1326205180939764.5,1827728879265795.8,393796314071.2123,1054525377031.6093,25151088407737.914,752931992550113.8
3.3670905717701234,7285140195160649.0,1.135230986691792e+16,1357069749705400.0,1870265332017084.8,424257179286.28595,1136095253055.3198,27096597324738.508,811177640277693.6
3.5344323832055258,7448930845895384.0,1.1651511825418198e+16,1387580533553766.8,1912314210975966.8,456005145142.9367,1221111853755.0688,29124314775999.227,871884803218176.5
3.7051210308696363,7610942044643513.0,1.1950750377683236e+16,1417759842595410.5,1953906263144485.0,489068426849.01526,1309650740842.1543,31236043078886.14,935107465053239.8
3.879223451487029,7771281531129464.0,1.2250238731504964e+16,1447627746495024.5,1995069147821771.2,523476172991.5835,1401789975788.2964,33433644177247.344,1000901395732673.1
4.0568079205167695,7930046465505748.0,1.2550176649404878e+16,1477202344163588.0,2035827808284206.0,559258451242.7351,1497610081564.393,35719038729018.195,1069324124189515.4
4.237944078927105,8087324657590601.0,1.2850752200737914e+16,1506499992739747.8,2076204787359397.5,596446237378.6183,1597194013252.0862,38094205405456.18,1140434917392053.2
4.422702960505647,8243195616579906.0,1.3152143260300466e+16,1535535503129225.2,2116220496911658.8,635071407106.4993,1700627136175.5552,40561180369744.02,1214294764766643.2
4.61115701971576,8397731452299630.0,1.3454518797455096e+16,1564322307889388.8,2155893449214567.8,675166730287.2402,1807997210448.4539,43122056908604.39,1290966367202144.5
4.803380160110075,8550997652924372.0,1.3758039991066368e+16,1592872606101996.8,2195240456609417.2,716765867213.8442,1919394381027.4714,45778985195255.8,1370514129987087.8
4.9994477633122765,8703053759303426.0,1.4062861198757678e+16,1621197488986073.2,2234276804620456.2,759903366665.4319,2034911172520.9788,48534172165785.86,1453004159142760.0
5.199436718578522,8853953952280827.0,1.4369130803671492e+16,1649307049303407.8,2273016402733610.0,804614665503.2711,2154642488127.821,51389881494035.61,1538504260705989.0
5.403425452950093,9003747566424761.0,1.4676991957706002e+16,1677210477055634.5,2311471916282816.0,850936089613.7802,2278685612183.9707,54348433652538.734,1627083942588462.0
5.611493962009095,9152479541215290.0,1.4986583236847348e+16,1704916143531071.5,2349654882280438.5,898904856034.8279,2407140215878.75,57412206049059.016,1718814418699565.8
5.823723841249277,9300190818840740.0,1.5298039221528136e+16,1732431675405922.2,2387575811540830.0,948559076127.3193,2540108365770.9937,60583633229916.51,1813768615068831.8
6.040198318074262,9446918696220892.0,1.5611491012774822e+16,1759764020318878.5,2425244279052981.5,999937759675.4463,2677694534793.165,63865207142650.51,1912021177744940.0
6.261002284435747,9592697137632240.0,1.5927066693146404e+16,1786919505106617.8,2462669004238592.5,1053080819816.6522,2820005615478.14,67259477451704.57,2013648482281939.8
6.486222330124463,9737557053293034.0,1.624489174003067e+16,1813903887698457.5,2499857922471438.5,1108029078717.2642,2967150935183.9287,70769051901762.08,2118728644652078.0
6.715946776726952,9881526548434178.0,1.6565089397686214e+16,1840722403513043.5,2536818249019653.0,1164824273922.1812,3119242273124.425,74396596724163.97,2227341533448124.2
6.950265712261491,1.00246311466927e+16,1.688778101344622e+16,1867379807071910.8,2573556536396031.0,1223509065317.6487,3276393879043.1143,78144837082512.02,2339568783258680.5
7.18927102650672,1.0166893991095292e+16,1.7213086342696086e+16,1893880409438476.8,2610078725955156.5,1284127042655.1455,3438722493390.4336,82016557554140.73,2455493809116935.5
7.433056447036854,1.0308336025423254e+16,1.7541123826565312e+16,1920228112002620.2,2646390194454084.0,1346722733592.0713,3606347368886.408,86014602644629.72,2575201821938235.5
7.681717575977592,1.0448976158354678e+16,1.7872010845715964e+16,1946426437056922.8,2682495796191418.0,1411341612211.6663,3779390293367.686,90141877332955.08,2698779844874396.0
7.935351927497144,1.0588831412444526e+16,1.820586395313793e+16,1972478555548514.0,2718399901253962.0,1478030107990.213,3957975613833.8364,94401347645245.11,2826316730523879.5
8.194058966047088,1.0727917059722274e+16,1.8542799088466644e+16,1998387312338147.8,2754106430327833.0,1546835615184.6846,4142230261620.7666,98796041255421.44,2957903178946191.5
8.45794014536803,1.0866246745449204e+16,1.888293177600272e+16,2024155249253551.5,2789618886469798.0,1617806502618.289,4332283778641.237,103329048111292.5,3093631756437601.0
8.72709894827539,1.1003832601373708e+16,1.9226377308328604e+16,2049784626186562.5,2824940384182582.5,1690992123845.2695,4528268344642.222,108003521084906.52,3233596915032333.0
9.0016409272409,1.1140685349651816e+16,1.957325091717603e+16,2075277440451339.2,2860073676093675.5,1766442827679.6418,4730318805438.755,112822676646188.1,3377895012699898.5
9.281673745785717,1.1276814398451138e+16,1.99236679329894e+16,2100635444593401.2,2895021177499125.0,1844209969075.7212,4938572702090.978,117789795559082.7,3526624334215444.0
9.567307220701432,1.1412227930130954e+16,2.0277743934453372e+16,2125860162815706.5,2929784989001357.0,1924345920350.773,5153170300999.365,122908223599596.53,3679885112684401.0
9.85865336511546,1.1546932982780404e+16,2.063559488910101e+16,2150952906167554.2,2964366917441997.0,2006904082742.7766,5374254624898.993,128181372295280.25,3837779551708135.5
10.155826432417769,1.1680935525804312e+16,2.0997337285985276e+16,2175914786624636.8,2998768495306462.5,2091938898298.337,5601971484739.565,133612719685846.36,4000411848180994.5
10.458942961066125,1.1814240530162986e+16,2.136308826128478e+16,2200746730173235.2,3032990998756189.5,2179505862087.79,5836469512443.759,139205811104730.81,4167888215713101.0
10.768121820287448,1.1946852033802264e+16,2.173296571761437e+16,2225449488998474.2,3067035464426029.5,2269661534746.482,6077900194540.669,144964259981532.3,4340316908676824.0
11.083484256693197,1.2078773202747654e+16,2.210708843772637e+16,2250023652864927.5,3100902705108564.5,2362463555342.656,6326417906676.13,150891748665366.03,4517808246877822.0
11.405153941827061,1.221000638828354e+16,2.2485576193212256e+16,2274469659767848.5,3134593324433306.5,2457970654574.0815,6582179949005.452,156992029269262.72,4700474640854738.0
11.733257020663602,1.2340553180589588e+16,2.286854984875128e+16,2298787805924548.5,3168107730636439.0,2556242668296.9937,6845346582478.017,163268924535849.22,4888430617814049.0
12.067922161076874,1.2470414459166568e+16,2.3256131462391964e+16,2322978255167695.0,3201446149506281.0,2657340551391.9736,7116081066026.766,169726328724600.8,5081792848209415.0
12.409280604298411,1.2599590440346254e+16,2.364844438230631e+16,2347041047795383.0,3234608636580230.5,2761326391972.9946,7394549694678.754,176368208521074.66,5280680172976742.0
12.75746621638438,1.2728080722148632e+16,2.4045613340408424e+16,2370976108927110.0,3267595088660591.0,2868263425946.629,7680921838606.031,183198603968562.44,5485213631438988.0
13.112615540712067,1.2855884326720606e+16,2.4447764543193336e+16,2394783256409213.5,3300405254709637.5,2978216051929.818,7975369983139.052,190221629422711.47,5695516489896126.0
13.474867851526309,1.2982999740565798e+16,2.485502576011628e+16,2418462208308866.5,3333038746177477.0,3091249846535.2173,8278069769767.3955,197441474529688.72,5911714270918146.0
13.844365208556836,1.3109424952752146e+16,2.5267526409801296e+16,2442012590031331.5,3365495046810910.0,3207431580034.563,8589200038155.114,204862405228545.62,6133934783360162.0
14.221252512727972,1.323515749126478e+16,2.568539764434389e+16,2465433941091745.5,3397773521985970.0,3326829232410.7886,8908942869200.521,212488764778502.0,6362308153121271.0
14.605677562982532,1.3360194457653272e+16,2.6108772431945428e+16,2488725721569210.0,3429873427602783.5,3449512009811.092,9237483629172.041,220324974811886.25,6596966854669274.0
14.997791114242183,1.3484532560107422e+16,2.6537785638098184e+16,2511887318268087.5,3461793918576793.0,3575550361413.313,9575011014954.545,228375536413577.4,6838045743355898.0
15.397746936527026,1.3608168145080712e+16,2.6972574105519772e+16,2534918050608802.0,3493534056957297.0,3705015996719.286,9921717100441.979,236645031227770.88,7085682088548040.0
15.805701875257567,1.3731097227568644e+16,2.7413276733019436e+16,2557817176268064.0,3525092819700622.5,3837981903289.008,10277797384113.803,245138122593000.94,7340015607601675.0
16.221815912762718,1.3853315520138048e+16,2.7860034553463228e+16,2580583896586426.5,3556469106122526.5,3974522364930.5703,10643450837835.518,253859556706342.44,7601188500707104.0
16.64625223101797,1.397481846079194e+16,2.8312990810992292e+16,2603217361758927.5,3587661745051891.5,4114712980361.0186,11018879956923.854,262814163817792.47,7869345486634408.0
17.079177275638333,1.4095601239747686e+16,2.8772291037635816e+16,2625716675823300.0,3618669501705191.5,4258630682354.1377,11404290811519.71,272006859455836.16,8144633839409938.0
17.5207608211511,1.421565882519565e+16,2.9238083129450236e+16,2648080901458271.0,3649491084299380.0,4406353757391.6455,11799893099312.979,281442645685263.25,8427203425954993.0
17.97117603757412,1.4334985988099952e+16,2.971051742230541e+16,2670309064603435.0,3680125150418850.0,4557961865834.589,12205900199664.592,291126612398311.06,8717206744719344.0
18.430599558325603,1.4453577326095558e+16,3.0189746767431372e+16,2692400158910761.0,3710570313150298.5,4713536062632.5205,12622529229172.822,301063938640254.25,9014798965342674.0
18.899211549492115,1.457142728652964e+16,3.0675926606830724e+16,2714353150036743.0,3740825146998075.5,4873158818588.016,13050001098731.371,311259893970588.2,9320137969378328.0
19.37719578048196,1.46885301886907e+16,3.1169215048653816e+16,2736166979783211.5,3770888193590851.5,5036914042195.05,13488540572128.275,321719839860950.44,9633384392113790.0
19.864739696091597,1.480488024526365e+16,3.1669772942630504e+16,2757840570093974.5,3800757967189668.5,5204887102069.433,13938376326235.676,332449231131007.25,9954701665523856.0
20.36203449001343,1.4920471583044242e+16,3.2177763955642252e+16,2779372826913460.0,3830432960005778.0,5377164849990.466,14399741012840.832,343453617423472.4,1.028425606239244e+16
20.869275179813698,1.5035298262942932e+16,3.269335464751777e+16,2800762643913055.5,3859911647336168.5,5553835644572.769,14872871322169.95,354738644719520.06,1.0622216741639328e+16
21.38666068340997,1.5149354299305068e+16,3.3216714547128004e+16,2822008906090036.5,3889192492523425.0,5734989375587.678,15358008048156.941,366310056895810.4,1.096875579488997e+16
21.91439389707817,1.5262633678569926e+16,3.3748016228852668e+16,2843110493243339.0,3918273951745995.5,5920717488953.861,15855396155510.023,378173697324408.7,1.1324048294324502e+16
22.452681775019734,1.53751303772895e+16,3.428743538948711e+16,2864066283330121.5,3947154478644044.0,6111113012417.126,16365284848628.654,390335510516836.56,1.1688272341845532e+16
23.00173541052013,1.5486838379525044e+16,3.483515092565595e+16,2884875155706336.5,3975832528785474.5,6306270581938.692,16887927642425.5,402801543813573.94,1.2061609119601166e+16
23.561770118730532,1.5597751693636706e+16,3.5391345011794736e+16,2905535994254343.0,4004306563976326.0,6506286468812.829,17423582435106.145,415577949120249.6,1.2444242941903224e+16
24.133005521105144,1.5707864368480288e+16,3.595620317875944e+16,2926047690399984.0,4032575056418773.5,6711258607533.41,17972511582961.43,428670984691857.1,1.2836361308578064e+16
24.715665631527248,1.5817170509023118e+16,3.652991439312233e+16,2946409146021467.5,4060636492720095.0,6921286624429.486,18534981977226.402,442087016966261.75,1.3238154959789676e+16
25.309978944157795,1.5925664291388888e+16,3.711267113720737e+16,2966619276252023.5,4088489377755104.5,7136471867090.629,19111265123060.445,455832522448304.2,1.3649817932372848e+16
25.91617852304095,1.6033339977341524e+16,3.77046694899207e+16,2986677012177796.5,4116132238384422.0,7356917434601.635,19701637220702.51,469914089645802.7,1.4071547617715868e+16
26.53450209350177,1.6140191928214854e+16,3.830610920842534e+16,3006581303432791.0,4143563627030582.0,7582728208606.999,20306379248855.89,484338421058734.9,1.4503544821230872e+16
27.165192135371807,1.6246214618296052e+16,3.89171938107115e+16,3026331120691795.5,4170782125113843.5,7814010885225.264,20925777050356.977,499112335222902.75,1.4946013823451284e+16
27.808495978079243,1.6351402647667964e+16,3.953813065911038e+16,3045925458062761.0,4197786346349156.5,8050874007833.031,21560121420180.82,514242768809360.75,1.539916244279325e+16
28.464665897640828,1.645575075451622e+16,4.016913104479926e+16,3065363335379293.0,4224574939905662.0,8293428000738.942,22209708195838.723,529736778780881.25,1.5863202100020626e+16
29.133959215593645,1.6559253826905924e+16,4.081041027334204e+16,3084643800394409.5,4251146593430047.0,8541785203766.665,22874838350218.992,545601544606733.7,1.633834788445094e+16
29.816638399905518,1.666190691403177e+16,4.146218775131406e+16,3103765930876191.5,4277500035934709.0,8796059907767.186,23555818086925.035,561844370537020.9,1.682481862193962e+16
30.51297116790363,1.6763705236945868e+16,4.212468707405113e+16,3122728836606232.0,4303634040551829.0,9056368391079.223,24252958938162.98,578472687937855.9,1.7322836944680148e+16
31.223230591261704,1.6864644198766984e+16,4.279813611457006e+16,3141531661281291.0,4329547427154373.0,9322828956957.406,24966577865229.812,595494057688560.5,1.783262936285672e+16
31.947695203086937,1.6964719394374704e+16,4.348276711370061e+16,3160173584319178.0,4355239064844718.0,9595561971986.57,25696997361653.805,612916172642160.5,1.835442633818629e+16
32.686649107148675,1.7063926619591434e+16,4.417881677147304e+16,3178653822569186.5,4380707874311992.0,9874689905501.75,26444545559037.715,630746860150350.0,1.888846235938558e+16
33.44038208929165,1.716226187985687e+16,4.488652633980206e+16,3196971631927915.5,4405952830058931.5,10160337370031.318,27209556335654.227,648994084654122.5,1.9434976019598584e+16
34.20918973107749,1.7259721398397236e+16,4.5606141716509304e+16,3215126308861064.5,4430972962499150.5,10452631162782.371,27992369427843.234,667665950341249.0,1.999421009581991e+16
34.993373525699035,1.7356301623893494e+16,4.633791354072369e+16,3233117191831838.5,4455767359925729.5,10751700308185.682,28793330544259.406,686770703871759.6,2.056641163034839e+16
35.793240996213015,1.74519992376524e+16,4.708209728970277e+16,3250943662636785.5,4480335170352255.0,11057676101518.002,29612791483017.188,706316737172553.9,2.115183201430426e+16
36.60910581613728,1.7546811160284452e+16,4.783895337711334e+16,3268605147649753.5,4504675603227104.0,11370692153619.277,30451110251780.82,726312590302275.6,2.1750727073244356e+16
37.44128793246003,1.764073455789284e+16,4.860874725281221e+16,3286101118974767.0,4528787931022379.0,11690884436721.348,31308651190844.953,746766954387546.4,2.2363357154907144e+16
38.29011369110923,1.7733766847778124e+16,4.939174950416786e+16,3303431095508654.5,4552671490698375.0,12018391331405.1,32185785099251.15,767688674631624.4,2.298998721912044e+16
39.15591596493141,1.782590570366405e+16,5.018823595896205e+16,3320594643914572.0,4576325685045214.0,12353353674702.79,33082889363985.297,789086753396590.4,2.363088692990301e+16
40.03903428423004,1.7917149060449164e+16,5.099848778991212e+16,3337591379507068.5,4599749983902690.0,12695914809360.633,34000348092299.05,810970353360050.6,2.4286330749791516e+16
40.93981496991464,1.8007495118490754e+16,5.182279162085218e+16,3354420967050160.5,4622943925259996.0,13046220634278.674,34938552247198.348,833348800747421.1,2.495659803642228e+16
41.85861126931294,1.8096942347426784e+16,5.266143963461569e+16,3371083121469194.5,4645907116236971.0,13404419656142.406,35897899786140.195,856231588640781.2,2.564197314139962e+16
42.7957834946992,1.818548948954276e+16,5.351472968265677e+16,3387577608478074.0,4668639233948419.0,13770663042261.59,36878795802980.78,879628380365269.5,2.634274551147703e+16
