t(s),Total solute volume 1,Total retention volume 1,Total 1 volume 1,Total 2 volume 1,Total 3 volume 1,Total 4 volume 1,Total 5 volume 1,Total 6 volume 1
0.1,1252217186918146.0,2056959543180943.2,321479351742078.75,483263004520719.3,0.0,0.0,0.0,0.0
0.202,1882897736216664.0,3095386240308913.5,483392785361012.7,726659002779351.9,790793808.979771,2420328484.995022,70416964075.10779,2363087865514.5034
0.30604000000000003,2363283639047948.5,3888246583845386.0,606721353366100.1,912052371875138.9,2004930002.6233342,6136376648.839274,178560974251.61948,6002517275293.273
0.41216080000000005,2769166941637677.0,4559778719998943.0,710923008769660.0,1068693254082486.0,3559218140.794343,10893516947.086338,317009031964.60144,10664053742072.988
0.5204040160000001,3129146724770558.0,5156845271253883.0,803339940020757.1,1207618778074762.2,5416453729.687339,16577877854.505283,482445298044.5686,16235388758175.377
0.6308120963200001,3457495836073820.5,5702829017691821.0,887636388469454.4,1334337206089343.5,7556484061.110362,23127778441.487194,673074017056.0165,22655828779635.38
0.7434283382464002,3762515251563933.0,6211329268712497.0,965943448068864.4,1452052100005783.2,9967601811.08529,30507386464.662144,887852049795.6064,29890142035846.6
0.8582969050113283,4049523899625789.0,6691062084499012.0,1039626637288349.5,1562816172153836.5,12643004835.336374,38695882861.82272,1126173329317.8232,37917863214023.12
0.9754628431115548,4322166407184264.0,7148003024711270.0,1109621634333429.8,1668035978513648.5,15579050209.783306,47682117916.89007,1387713269977.6758,46728030241824.21
1.094972099973786,4583066343244599.0,7586457196740124.0,1176601983132026.2,1768724022345431.2,18774286263.36901,57461648622.58488,1672342515473.9172,56316269567712.13
1.2168715419732616,4834185039671322.0,8009646867109184.0,1241071212718037.0,1865637232433109.0,22228870115.638855,68034955952.1948,1980075040783.2185,66683043419868.28
1.3412089728127268,5077033311666570.0,8420058090394867.0,1303417191831223.5,1959358671505742.0,25944195356.978127,79406305310.92043,2311034979312.721,77832529911351.6
1.4680331522689813,5312803576092325.0,8819656961289778.0,1363946047405349.2,2050348524122648.5,29922642821.54322,91582983734.2028,2665434417938.147,89771873624966.69
1.597393815314361,5542456095744627.0,9210030748076222.0,1422904305898232.2,2138977380573931.2,34167407641.207443,104574770557.41121,3043557988640.916,102510665692606.53
1.729341691620648,5766777404236748.0,9592483481858802.0,1480493892601990.0,2225548784556978.5,38682375768.673706,118393559494.46353,3445751867707.189,116060572660128.83
1.863928525453061,5986421133558764.0,9968102742740242.0,1536882613225471.8,2310314989589595.5,43472033808.41175,133053082660.75235,3872415742499.9336,130435065507449.19
2.001207095962122,6201937307984438.0,1.0337807571938738e+16,1592211674463769.0,2393488264287694.0,48541401993.497696,148568705438.05682,4323996840391.8843,145649218255010.8
2.1412312378813647,6413793845856506.0,1.0702383635358898e+16,1646601204111061.2,2475249190461359.5,53895983687.471344,164957271917.0819,4800985429960.122,161719556244421.34
2.284055862638992,6622392657246443.0,1.106250954748261e+16,1700154383782456.8,2555752875618812.0,59541726964.507286,182236987307.72852,5303911398262.035,178663940722355.0
2.4297369798917723,6828081906904841.0,1.1418776924084246e+16,1752960597158141.5,2635133685556650.5,65484995202.07304,200427327933.6142,5833341631045.667,196501480510425.62
2.578331719489608,7031165500737617.0,1.17717058953827e+16,1805097865428518.2,2713508905436783.5,71732544523.39049,219548972191.58423,6389878003214.536,215252464259859.8
2.7298983538794,7231910525710529.0,1.2121757273783054e+16,1856634757326896.8,2790981611038360.0,78291506533.07262,239623747711.89368,6974155840863.43,234938308612157.25
2.884496320956988,7430553156875008.0,1.2469342216493572e+16,1907631905629093.5,2867642948432015.0,85169375205.34161,260674591228.0823,7586842753268.2705,255581518837750.44
3.0421862473761276,7627303399631460.0,1.281482998507493e+16,1958143224625739.2,2943573964142184.5,92373997075.6443,282725518557.4767,8228637759175.612,277205659400725.97
3.2030299723236504,7822348935354299.0,1.3158554240369544e+16,2008216897402359.2,3018847089273379.5,99913564094.33304,305801602729.41296,8900270650255.469,299835332522435.1
3.3670905717701234,8015858268571420.0,1.3500818196853702e+16,2057896183808822.8,3093527354088309.5,107796608651.75696,329928958759.4529,9602501548005.45,323496163269727.44
3.5344323832055258,8207983324178809.0,1.3841898879137734e+16,2107220087237366.0,3167673390340264.5,116032000394.97336,355134733907.1875,10336120620270.996,348214790026717.3
3.7051210308696363,8398861607300759.0,1.418205066467464e+16,2156223909119387.2,3241338264819092.5,124628944538.95737,381447102508.22943,11101947930911.523,374018859457441.6
3.879223451487029,8588618012168308.0,1.4521508253830218e+16,2204939713315484.2,3314570177444335.5,133596981437.5865,408895264662.00073,11900833401702.096,400937025254287.2
4.0568079205167695,8777366346955791.0,1.4860489176694058e+16,2253396717583761.0,3387413049739047.5,142945987227.32693,437509448202.7375,12733656869803.996,428998950110224.5
4.237944078927105,8965210626952415.0,1.5199195922203718e+16,2301621625573445.0,3459907023898272.5,152686175393.28476,467320913493.5808,13601328227411.953,458235310463298.75
4.422702960505647,9152246177419214.0,1.5537817757128868e+16,2349638909959170.5,3532088888410117.5,162828099135.90985,498361960671.253,14504787632734.648,488677803647814.9
4.61115701971576,9338560579045132.0,1.5876532288674144e+16,2397471055166180.5,3603992442931681.0,173382654439.11664,530665939037.57635,15445005783468.756,520359157154196.75
4.803380160110075,9524234482404364.0,1.6215506813818756e+16,2445138766464453.5,3675648812609303.0,184361083758.39847,564267258348.6311,16422984245511.99,553313139753008.4
4.9994477633122765,9709342312746534.0,1.6554899490224252e+16,2492661150908111.0,3747086720075326.5,195774980261.71838,599201401795.832,17439755830928.543,587574574281306.4
5.199436718578522,9893952882470520.0,1.6894860357039912e+16,2540055874574685.5,3818332721817611.5,207636292567.38037,635504940508.1443,18496385020195.164,623179351923824.9
5.403425452950093,1.0078129925485024e+16,1.7235532228791876e+16,2587339299750508.0,3889411414403131.0,219957329932.33472,673215549432.9973,19593968424582.73,660164447849246.6
5.611493962009095,1.0261932565151168e+16,1.7577051481446888e+16,2634526605064701.5,3960345615069109.5,232750767851.87454,712372024476.3633,20733635285194.33,698567938084378.0
5.823723841249277,1.0445415725491788e+16,1.791954874645759e+16,2681631891058221.0,4031156520419397.0,246029654037.85278,753014300801.443,21916548005732.582,738429017527608.1
6.040198318074262,1.0628630493730054e+16,1.826314952594675e+16,2728668273257665.0,4101863846337459.0,259807414747.59586,795183472200.7742,23143902716517.59,779788019018126.0
6.261002284435747,1.0811624440902286e+16,1.860797474003768e+16,2775647964485586.0,4172485951719187.5,274097861439.88956,838921811469.4622,24416929867650.906,822686433390093.4
6.486222330124463,1.099444190621552e+16,1.895414121558273e+16,2822582347863157.5,4243039948213868.5,288915197737.8822,884272791717.8555,25736894849530.797,867166930451245.9
6.715946776726952,1.1177124249938354e+16,1.9301762124102572e+16,2869482041734252.0,4313541797821278.0,304274026681.64417,931281108570.8414,27105098639180.996,913273380834270.2
6.950265712261491,1.1359710078885168e+16,1.965094737555975e+16,2916356957553655.5,4384006399911924.5,320189358255.5594,979992703208.3682,28522878471073.016,961050878676438.9
7.18927102650672,1.1542235447952054e+16,2.0001803973607788e+16,2963216351626969.0,4454447669004921.5,336676617177.7464,1030454786208.0469,29991608531301.547,1010545765089202.5
7.433056447036854,1.1724734040659524e+16,2.0354436337136524e+16,3010068871461058.0,4524878604444177.0,353751650940.42487,1082715862155.9202,31512700674126.1,1061805652384543.1
7.681717575977592,1.1907237331239336e+16,2.0708946592249744e+16,3056922597376187.5,4595311352951837.0,371430738091.6095,1136825754995.8684,33087605160022.02,1114879449029239.0
7.935351927497144,1.2089774730447792e+16,2.1065434838236924e+16,3103785079940501.5,4665757264901395.0,389730596749.6947,1192835634092.004,34717811414490.477,1169817385301912.8
8.194058966047088,1.2272373716993658e+16,2.1423999390616176e+16,3150663373711233.5,4736226945039238.0,408668393343.5785,1250798040981.3892,36404848806971.79,1226671039630772.5
8.45794014536803,1.2455059956215864e+16,2.1784737003914124e+16,3197564067702556.0,4806730298285345.0,428261751571.83765,1310766916797.2998,38150287449285.22,1285493365592695.0
8.72709894827539,1.2637857407433062e+16,2.2147743076502132e+16,3244493312945319.5,4877276571162225.0,448528761575.18176,1372797630345.4414,39955739013081.4,1346338719556485.0
9.0016409272409,1.2820788421206372e+16,2.2513111839511824e+16,3291456847457045.0,4947874389331339.0,469487989317.12915,1436947006817.4692,41822857565856.77,1409262888955070.0
9.281673745785717,1.300387382759991e+16,2.288093653159716e+16,3338460018900976.5,5018531791654848.0,491158486168.2939,1503273357127.8652,43753340425120.11,1474323121173061.2
9.567307220701432,1.3187133016391838e+16,2.3251309561095852e+16,3385507805178414.0,5089256261151310.0,513559798690.2136,1571836507861.6733,45748929030348.87,1541578153037414.0
9.85865336511546,1.3370584010072862e+16,2.3624322656953116e+16,3432604833169562.5,5160054753167707.0,536711978614.9869,1642697831821.6167,47811409832403.414,1611088240900162.8
10.155826432417769,1.3554243530371562e+16,2.400006700961261e+16,3479755395812393.5,5230933721053175.0,560635593017.363,1715920279164.4102,49942615200099.56,1682915191303195.8
10.458942961066125,1.3738127058959384e+16,2.4378633402936708e+16,3526963467687367.0,5301899139586678.0,585351734676.1555,1791568409116.6863,52144424343663.445,1757122392215826.0
10.768121820287448,1.3922248892914552e+16,2.476011233809953e+16,3574232719256559.5,5372956526382023.0,610882032622.1554,1869708422261.7556,54418764254813.38,1833774844836709.0
11.083484256693197,1.4106622195459934e+16,2.5144594150289924e+16,3621566529889470.5,5444110961468885.0,637248662869.8368,1950408193389.2441,56767610663234.734,1912939195952165.2
11.405153941827061,1.4291259042432922e+16,2.553216911896982e+16,3668967999793246.5,5515367105226681.0,664474359330.4258,2033737304899.7603,59192989009223.055,1994683770843577.5
11.733257020663602,1.447617046489737e+16,2.592292757235409e+16,3716439960952231.5,5586729214829707.0,692582424903.9209,2119767080757.5752,61696975432288.734,2079078606736829.8
12.067922161076874,1.4661366488263828e+16,2.6316959986706216e+16,3763984987171307.0,5658201159344564.0,721596742747.8613,2208570620984.3877,64281697775524.16,2166195486787246.8
12.409280604298411,1.4846856168246498e+16,2.6714357080984132e+16,3811605403307060.0,5729786433607024.0,751541787720.7314,2300222836687.71,66949336605542.555,2256107974593616.5
12.75746621638438,1.5032647623953648e+16,2.7115209907315644e+16,3859303293762983.0,5801488170992272.0,782442637997.8533,2394800485617.486,69702126247806.27,2348891449235319.5
13.112615540712067,1.5218748068376746e+16,2.751960993773394e+16,3907080510316915.5,5873309155181575.0,814324986857.9106,2492382208245.0073,72542355837169.14,2444623140826508.0
13.474867851526309,1.5405163836519264e+16,2.792764914756397e+16,3954938679342509.0,5945251831017961.0,847215154638.0477,2593048564358.073,75472370383457.39,2543382166581814.0
13.844365208556836,1.5591900411383534e+16,2.8339420095810084e+16,4002879208480771.0,6017318314535100.0,881140100855.7188,2696882070166.656,78494571851924.16,2645249567387782.5
14.221252512727972,1.577896244801213e+16,2.8755016002865252e+16,4050903292812136.5,6089510402235572.0,916127436495.4113,2803967235913.3975,81611420258411.94,2750308344874628.0
14.605677562982532,1.5966353795764102e+16,2.9174530825829776e+16,4099011920575421.0,6161829579687791.0,952205436458.4141,2914390603983.469,84825434779059.19,2858643498982914.0
14.997791114242183,1.615407751898887e+16,2.959805933170298e+16,4147205878475478.0,6234277029504725.0,989403052173.8472,3028240787508.0083,88139194874393.75,2970342066019789.0
15.397746936527026,1.6342135916248078e+16,3.0025697168688692e+16,4195485756617799.5,6306853638761840.0,1027749924369.1577,3145608509456.1167,91555341427653.69,3085493157199472.0
15.805701875257567,1.6530530538220394e+16,3.0457540935831436e+16,4243851953105379.5,6379560005907405.0,1067276395998.3569,3266586642209.666,95076577897180.58,3204187997662901.0
16.221815912762718,1.6719262204415978e+16,3.0893688251185224e+16,4292304678329653.0,6452396447212639.0,1108013525326.2297,3391270247615.9067,98705671482730.88,3326519965971251.5
16.64625223101797,1.6908331018814252e+16,3.133423781869707e+16,4340843958985202.5,6525363002807017.0,1149993099166.8599,3519756617512.545,102445454305555.58,3452584634068326.5
17.079177275638333,1.7097736384531248e+16,3.1779289493975204e+16,4389469641835306.5,6598459442338686.0,1193247646274.7236,3652145314720.1733,106298824602094.98,3582479807706829.5
17.5207608211511,1.7287477017614274e+16,3.222894434909562e+16,4438181397253326.0,6671685270298116.0,1237810450886.7795,3788538214496.9556,110268747931146.02,3716305567333452.5
17.97117603757412,1.747755096005296e+16,3.2683304736590976e+16,4486978722563146.0,6745039731039522.0,1283715566413.841,3929039546450.7393,114358258394355.33,3854164309428103.0
18.430599558325603,1.7667955592091396e+16,3.314247435275217e+16,4535860945199886.0,6818521813532328.0,1330997829279.737,4073755936903.6265,118570459869897.72,3996160788292482.0
18.899211549492115,1.7858687643917212e+16,3.3606558300367656e+16,4584827225710947.0,6892130255872392.0,1379692872906.6663,4222796451704.4297,122908527259205.92,4142402158283268.0
19.37719578048196,1.8049743206800464e+16,3.407566315101039e+16,4633876560615615.0,6965863549580657.0,1429837141845.288,4376272639484.3726,127375707746617.19,4292998016485690.5
19.864739696091597,1.8241117743748364e+16,3.454989700698026e+16,4683007785140437.0,7039719943715220.0,1481467906048.1208,4534298575351.823,131975322071810.52,4448060445823013.0
20.36203449001343,1.843280609973851e+16,3.502936956299853e+16,4732219575846355.0,7113697448820471.0,1534623275284.8577,4696990905021.804,136710765814914.97,4607704058597941.0
20.869275179813698,1.8624802511588196e+16,3.5514192167746148e+16,4781510453162515.0,7187793840736075.0,1589342213698.4194,4864468889376.362,141585510694178.28,4772046040462049.0
21.38666068340997,1.88171006175146e+16,3.600447788533114e+16,4830878783840536.0,7262006664286312.0,1645664554500.4326,5036854449452.488,146603105876081.84,4941206194809616.0
21.91439389707817,1.9009693466436076e+16,3.6500341556765496e+16,4880322783342473.0,7336333236869804.0,1703631014805.144,5214272211853.77,151767179297818.5,5115306987592676.0
22.452681775019734,1.9202573527062304e+16,3.7001899861525864e+16,4929840518174553.0,7410770651967674.0,1763283210600.753,5396849554583.276,157081439002037.56,5294473592554186.0
23.00173541052013,1.9395732696818132e+16,3.750927137926917e+16,4979429908178057.0,7485315782587362.0,1824663671857.3625,5584716653294.949,162549674483779.7,5478833936876615.0
23.561770118730532,1.9589162310642588e+16,3.8022576651768744e+16,5029088728788325.0,7559965284658380.0,1887815857770.759,5778006527961.213,168175758049556.5,5668518747244203.0
24.133005521105144,1.978285314970168e+16,3.854193824513546e+16,5078814613271690.0,7634715600395040.0,1952784172141.584,5976855089955.407,173963646188499.06,5863661596316528.0
24.715665631527248,1.997679545005395e+16,3.906748081238088e+16,5128605054949968.0,7709562961640423.0,2019613978889.4036,6181401189547.673,179917380955569.47,6064398949612498.0
25.309978944157795,2.0170978911300852e+16,3.959933115637972e+16,5178457409421416.0,7784503393204969.0,2088351617701.5645,6391786663813.757,186041091366794.25,6270870212804185.0
25.91617852304095,2.0365392705256412e+16,4.013761829328621e+16,5228368896786397.0,7859532716212248.0,2159044419816.8052,6608156384956.964,192338994806541.03,6483217779419945.0
26.53450209350177,2.0560025484665856e+16,4.0682473516452776e+16,5278336603885717.0,7934646551463713.0,2231740723943.803,6830658309043.453,198815398446839.22,6701587078957661.0
27.165192135371807,2.0754865392002096e+16,4.123403046090035e+16,5328357486558966.0,8009840322833549.0,2306489892315.1924,7059443525152.979,205474700678798.7,6926126625409402.0
27.808495978079243,2.094990006836732e+16,4.179242516838784e+16,5378428371929675.0,8085109260703857.0,2383342326877.6743,7294666304946.574,212321392556183.5,7156988066198978.0
28.464665897640828,2.1145116662523944e+16,4.235779615312335e+16,5428545960724054.0,8160448405450196.0,2462349485619.257,7536484152654.604,219360059251230.16,7394326231535646.0
29.133959215593645,2.134050184008032e+16,4.293028446815998e+16,5478706829628917.0,8235852610986267.0,2543563899034.812,7785057855488.854,226595381522815.66,7638299184187246.0
29.816638399905518,2.1536041792850532e+16,4.351003377251753e+16,5528907433694937.0,8311316548376450.0,2627039186731.5464,8040551534483.59,234032137197126.75,7889068269677381.0
30.51297116790363,2.173172224841167e+16,4.409719039906833e+16,5579144108789942.0,8386834709523926.0,2712830074176.324,8303132695771.209,241675202660984.56,8146798166911879.0
31.223230591261704,2.192752847987558e+16,4.469190342322647e+16,5629413074107832.0,8462401410941905.0,2800992409586.938,8572972282299.466,249529554368032.16,8411656939241275.0
31.947695203086937,2.2123445315892824e+16,4.529432473247584e+16,5679710434736827.0,8538010797614563.0,2891583180969.9775,8850244725998.113,257600270358014.53,8683816085966616.0
32.686649107148675,2.2319457150906444e+16,4.590460909677237e+16,5730032184291718.0,8613656846953962.0,2984660533308.307,9135128000404.018,265892531789405.38,8963450594297144.0
33.44038208929165,2.251554795566788e+16,4.652291423985583e+16,5780374207613943.0,8689333372858717.0,3080283785901.3853,9427803673755.07,274411624485694.7,9250738991769992.0
34.20918973107749,2.271170128803105e+16,4.714940091150345e+16,5830732283542400.0,8765034029879493.0,3178513449862.299,9728456962564.514,283162940495658.6,9545863399142454.0
34.993373525699035,2.290790030403447e+16,4.778423296075824e+16,5881102087758718.0,8840752317495970.0,3279411245775.6216,10037276785688.55,292151979667992.9,9849009583769594.0
35.793240996213015,2.3104127769283296e+16,4.842757741016358e+16,5931479195709263.0,8916481584509410.0,3383040121520.812,10354455818901.11,301384351240720.9,1.0160367013480398e+16
36.60910581613728,2.330036607064013e+16,4.907960453103551e+16,5981859085606613.0,8992215033554566.0,3489464270266.227,10680190549992.164,310865775445840.75,1.0480128910968168e+16
37.44128793246003,2.3496597228233424e+16,4.974048791980274e+16,6032237141512285.0,9067945725733794.0,3598749148639.273,11014681334406.08,320602085129688.06,1.0808492308710432e+16
38.29011369110923,2.36928029077887e+16,5.0410404575441544e+16,6082608656502638.0,9143666585376354.0,3710961495078.959,11358132451438.771,330599227389580.56,1.1145658104437744e+16
39.15591596493141,2.388896443329015e+16,5.108953497804067e+16,6132968835919434.0,9219370404924468.0,3826169348377.224,11710752161014.564,340863265227321.25,1.1491831117169916e+16
40.03903428423004,2.4085062799974908e+16,5.177806316851743e+16,6183312800705756.0,9295049849948302.0,3944442066416.3525,12072752761063.36,351400379220192.3,1.184722014384074e+16
40.93981496991464,2.4281078687663852e+16,5.247617682951843e+16,6233635590828552.0,9370697464290830.0,4065850345110.0273,12444350645522.9,362216869210130.25,1.221203801653444e+16
41.85861126931294,2.447699247443082e+16,5.318406736753131e+16,6283932168787737.0,9446305675342848.0,4190466237556.2407,12825766362990.404,373319156011807.9,1.2586501660357556e+16
42.7957834946992,2.467278425060937e+16,5.390192999623273e+16,6334197423212264.0,9521866799448716.0,4318363173410.9497,13217224676050.85,384713783140411.5,1.2970832151972598e+16
