t(s),Total solute volume 1,Total retention volume 1,Total 1 volume 1,Total 2 volume 1,Total 3 volume 1,Total 4 volume 1,Total 5 volume 1,Total 6 volume 1
0.1,1171626138357391.5,1690659390667246.5,218249522949102.88,300783729360751.56,0.0,0.0,0.0,0.0
0.202,1753318950501309.5,2555861891822986.0,326606769542787.5,450117847213737.06,13059023366.378857,34969734471.59167,833944962550.1718,24936350844763.766
0.30604000000000003,2188862920210371.8,3223678104989660.5,407739531861284.5,561932140054280.56,32931657412.99065,88185324374.14073,2103127063774.6267,62919268818164.92
0.41216080000000005,2550745859839098.0,3795770254888951.5,475150779679101.4,654835928164450.8,58141034141.24739,155691953162.6825,3713174659450.7344,111110679559544.25
0.5204040160000001,2866350959542430.0,4310268016834778.5,533941430610234.56,735859115651692.1,87988718068.52913,235619358989.3954,5619475241483.499,168173427711875.62
0.6308120963200001,3149393640961662.0,4786151746456791.0,586666381818304.9,808522771184901.2,122065227373.42686,326871051752.46844,7795875417590.663,233324140795205.12
0.7434283382464002,3407880938406515.0,5234447783847557.0,634817176886193.9,874882487197791.5,160103972453.27063,428733183025.0656,10225349136491.445,306052995065088.3
0.8582969050113283,3646962371573042.5,5662222552617805.0,679353063987357.8,936260265468377.5,201920885663.26932,540712884648.11066,12896141280567.818,386008076538151.6
0.9754628431115548,3870178936730456.5,6074325539303397.0,720933656910741.2,993565162298243.4,247384490583.17657,662458119482.7981,15799855834146.145,472938084919745.75
1.094972099973786,4080088157488137.0,6474258175275828.0,760035368989838.2,1047453753624123.2,296399211305.1337,793712986711.0228,18930389796748.41,566660393178970.9
1.2168715419732616,4278608087480126.5,6864650207501255.0,797015493632049.2,1098418448529765.2,348895262580.4278,934290649539.3365,22283287449606.49,667041704497593.4
1.3412089728127268,4467220690387372.0,7247540279155442.0,832150089777282.1,1146839701640307.0,404822137969.23236,1084055897723.0809,25855324439052.316,773985594875738.1
1.4680331522689813,4647099007502918.0,7624550722310510.0,865657670564441.6,1193018660001522.8,464144211527.2318,1242913369766.8916,29644226856439.902,887424099803894.9
1.597393815314361,4819190336555920.0,7997001475908807.0,897714697812408.1,1237198517023350.0,526837652723.40326,1410799291723.3594,33648474196162.867,1007311813376522.2
1.729341691620648,4984272692614839.0,8365987140491544.0,928466099509306.5,1279579007310178.5,592888195051.3352,1587675502029.7993,37867156839894.06,1133621620520235.2
1.863928525453061,5142994341768429.0,8732430747630607.0,958032634113149.2,1320326555878449.0,662289480646.0603,1773525018784.5154,42299870330592.66,1266341531040556.5
2.001207095962122,5295902222834213.0,9097122288790188.0,986516184923646.6,1359581574671870.2,735041805867.3068,1968348680739.6577,46946635256311.7,1405472280617545.0
2.1412312378813647,5443462849981299.0,9460746961733344.0,1014003653805081.5,1397463828752017.0,811151153521.4076,2172162555861.9885,51807835441601.35,1551025480043946.8
2.284055862638992,5586077992368810.0,9823906295310936.0,1040569881976095.6,1434076461627049.0,890628434746.725,2384995911336.321,56884169530076.03,1703022165462824.0
2.4297369798917723,5724096641783021.0,1.0187134227625296e+16,1066279879330992.5,1469509067623149.2,973488887358.9972,2606889602542.424,62176612560033.12,1861491647838210.0
2.578331719489608,5857824288431117.0,1.0550909535152094e+16,1091190552326767.8,1503840073197087.5,1059751593031.474,2837894780252.5156,67686385130015.69,2026470589693818.2
2.7298983538794,5987530209444296.0,1.0915665575729454e+16,1115352061679269.9,1537138608064810.5,1149439086159.5256,3078071843345.9272,73414928420245.81,2198002257191309.8
2.884496320956988,6113453266583829.0,1.1281798022361408e+16,1138808902354999.0,1569465993607797.8,1242577034463.8816,3327489583629.9473,79363883796004.81,2376135909400691.5
3.0421862473761276,6235806569402096.0,1.16496710724261e+16,1161600772220782.0,1600876940015173.5,1339193976443.0542,3586224482895.911,85535076041989.56,2560926296286733.5
3.2030299723236504,6354781263674906.0,1.2019622484877424e+16,1183763277749762.0,1631420518862631.0,1439321104398.8213,3854360132015.3433,91930499507454.08,2752433243846279.0
3.3670905717701234,6470549637404722.0,1.2391967705799854e+16,1205328512605008.2,1661140960495843.8,1542992084383.2554,4131986748909.297,98552306609580.97,2950721309851402.5
3.5344323832055258,6583267688644967.0,1.2767003277170832e+16,1226325535971698.0,1690078313250838.8,1650242906350.5347,4419200777404.834,105402798266096.22,3155859497353483.5
3.7051210308696363,6693077264687946.0,1.3145009676464862e+16,1246780771043197.2,1718268992633392.0,1761111759242.2668,4716104552863.411,112484415920466.53,3367921015867760.5
3.879223451487029,6800107856743518.0,1.3526253700222994e+16,1266718339332302.0,1745746242054906.2,1875638926828.4055,5022806023393.656,119799734892842.34,3586983082249212.0
4.0568079205167695,6904478115391022.0,1.391099047917512e+16,1286160342968345.5,1772540521884215.2,1993866700962.0974,5339418517700.57,127351458843333.78,3813126754869548.0
4.237944078927105,7006297137950834.0,1.4299465193383494e+16,1305127104507659.2,1798679839945898.5,2115839309553.3062,5666060552354.186,135142415175485.11,4046436795941731.0
4.422702960505647,7105665568204966.0,1.4691914541410338e+16,1323637371788612.2,1824190033844184.2,2241602857070.4624,6002855672611.377,143175551240036.06,4287001557802879.5
4.61115701971576,7202676540689464.0,1.5088568006456394e+16,1341708493833603.8,1849095013384825.5,2371205275776.6567,6349932321988.834,151453931224431.62,4534912889726303.0
4.803380160110075,7297416495439432.0,1.5489648953890176e+16,1359356572619057.5,1873416969739135.2,2504696286222.1636,6707423736628.62,159980733633675.97,4790266062436015.0
4.9994477633122765,7389965884123460.0,1.5895375587953624e+16,1376596594613559.0,1897176556725159.2,2642127365767.534,7075467861174.641,168759249284248.72,5053159707980246.0
5.199436718578522,7480399784619783.0,1.6305961790226032e+16,1393442545260585.5,1920393048583707.5,2783551724114.749,7454207283421.891,177792879745790.62,5323695773008625.0
5.403425452950093,7568788438010429.0,1.6721617858317252e+16,1409907509009300.5,1943084477837259.5,2929024284989.0225,7843789185442.974,187085136175793.06,5601979483814043.0
5.611493962009095,7655197719517096.0,1.7142551159988038e+16,1426003757040120.5,1965267756190185.8,3078601673248.4863,8244365309256.86,196639638501159.84,5888119321756991.0
5.823723841249277,7739689552933600.0,1.756896671527419e+16,1441742824464809.8,1986958780923225.2,3232342206809.9717,8656091935401.46,206460114907547.28,6182227007902804.0
6.040198318074262,7822322276519622.0,1.8001067717077272e+16,1457135578484882.8,2008172528826931.2,3390305892870.2246,9079129873016.693,216550401603259.1,6484417495876679.0
6.261002284435747,7903150967028012.0,1.8439055998970228e+16,1472192278751119.5,2028923139387043.8,3552554427978.2383,9513644460248.268,226914442829322.03,6794808972086484.0
6.486222330124463,7982227727481810.0,1.888313245756828e+16,1486922630970434.8,2049223988663543.8,3719151201577.694,9959805573952.055,237556291091407.2,7113522862585534.0
6.715946776726952,8059601943449750.0,1.9333497435668676e+16,1501335834644658.5,2069087755082571.5,3890161302691.7983,10417787647822.686,248480107592694.16,7440683845948506.0
6.950265712261491,8135320511852805.0,1.979035107141918e+16,1515440625692419.0,2088526478176365.2,4065651529467.8755,10887769698188.385,259690162849613.3,7776419871620282.0
7.18927102650672,8209428045739323.0,2.0253893617990464e+16,1529245314594494.0,2107551611153866.0,4245690401336.8286,11369935356818.463,271190837474857.72,8120862183269758.0
7.433056447036854,8281967057971984.0,2.0724325737580896e+16,1542757820610857.0,2126174068057374.8,4430348173575.312,11864472910174.342,282986623114108.94,8474145346742841.0
7.681717575977592,8352978126354191.0,2.1201848773034e+16,1555985702540279.5,2144404266154414.5,4619696854085.839,12371575344610.291,295082123524698.06,8836407282261740.0
7.935351927497144,8422500042375700.0,2.1686664999896456e+16,1568936186428533.8,2162252164124137.5,4813810222233.948,12891440397093.66,307482055785921.06,9207789300562848.0
8.194058966047088,8490569945462421.0,2.217897786135879e+16,1581616190576351.8,2179727296522436.5,5012763849601.886,13424270611068.324,320191251632071.56,9588436142704804.0
8.45794014536803,8557223444366895.0,2.2678992188196264e+16,1594032348151923.0,2196838804945669.8,5216635122535.954,13970273397132.938,333214658900320.0,9978496023311814.0
8.72709894827539,8622494727123460.0,2.3186914405553548e+16,1606191027673251.5,2213595466258724.5,5425503266380.046,14529661098246.99,346557343086626.94,1.0378120677046826e+16
9.0016409272409,8686416660811501.0,2.3702952728179292e+16,1618098351591983.2,2230005718206581.2,5639449371301.106,15102651059212.375,360224489003650.1,1.0787465408135074e+16
9.281673745785717,8749020882215748.0,2.42273173455209e+16,1629760213181509.2,2246077682688912.0,5858556419624.183,15689465700210.443,374221402535410.4,1.120668914277946e+16
9.567307220701432,8810337880339175.0,2.476022059791338e+16,1641182291907417.0,2261819186943072.0,6082909314604.552,16290332594201.607,388553512484119.1,1.1635954484330762e+16
9.85865336511546,8870397071609957.0,2.5301877144952996e+16,1652370067436965.5,2277237782851470.5,6312594910573.983,16905484548018.21,403226372505121.8,1.207542777109087e+16
10.155826432417769,8929226868524736.0,2.5852504127016884e+16,1663328832425905.2,2292340764563916.0,6547702044405.467,17535159687003.857,418245663126452.0,1.2525279136644484e+16
10.458942961066125,8986854742384868.0,2.6412321320780572e+16,1674063704204923.0,2307135184603454.5,6788321568248.419,18179601543069.68,433617193849935.94,1.2985682572626092e+16
10.768121820287448,9043307280707804.0,2.698155128949082e+16,1684579635474202.5,2321627868605215.0,7034546383492.314,18839059146056.62,449346905331161.6,1.3456815993842876e+16
11.083484256693197,9098610239830966.0,2.756041952866836e+16,1694881424102391.8,2335825428821028.5,7286471475922.154,19513787118306.33,465440871636020.9,1.3938861305683718e+16
11.405153941827061,9152788593168084.0,2.8149154607842564e+16,1704973722115815.5,2349734276508031.0,7544193952034.728,20204045772357.105,481905302571835.1,1.4432004473754418e+16
11.733257020663602,9205866575529794.0,2.8747988308858544e+16,1714861043954400.5,2363360633306692.0,7807813076488.32,20910101211694.406,498746546091347.06,1.4936435595688126e+16
12.067922161076874,9257867723874824.0,2.935715576124066e+16,1724547774062849.8,2376710541702659.0,8077430310663.49,21632225434494.54,515971090768167.6,1.5452348975087002e+16
12.409280604298411,9308814914821410.0,2.997689557505048e+16,1734038173878181.2,2389789874656799.0,8353149352315.127,22370696440310.883,533585568342430.6,1.5979943197559004e+16
12.75746621638438,9358730399213742.0,3.060744997163233e+16,1743336388268752.2,2402604344479199.5,8635076176300.448,23125798339661.91,551596756335696.5,1.6519421208819014e+16
13.112615540712067,9407635834008580.0,3.124906491260579e+16,1752446451474090.2,2415159511015219.5,8923319076369.701,23897821466485.637,570011580734284.6,1.7070990394830718e+16
13.474867851526309,9455552311721144.0,3.1901990227426892e+16,1761372292590024.5,2427460789204919.0,9217988708009.504,24687062493435.8,588837118740404.4,1.7634862663968964e+16
13.844365208556836,9502500387645086.0,3.256647973981752e+16,1770117740639198.2,2439513456071087.5,9519198132331.365,25493824549999.367,608080601590633.2,1.8211254531189216e+16
14.221252512727972,9548500105041400.0,3.3242791393329532e+16,1778686529263269.5,2451322657185794.5,9827062860999.492,26318417343421.83,627749417441422.4,1.8800387204193236e+16
14.605677562982532,9593571018471526.0,3.393118737629363e+16,1787082301069334.2,2462893412660562.0,10141700902195.738,27161157282433.367,647851114321428.0,1.9402486671586136e+16
14.997791114242183,9637732215434130.0,3.4631934246379148e+16,1795308611660453.2,2474230622701028.5,10463232807619.09,28022367603773.434,668393403150656.4,2.001778379302152e+16
15.397746936527026,9681002336449780.0,3.5345303054974864e+16,1803368933376970.2,2485339072763122.0,10791781720521.527,28902378501515.137,689384160826444.5,2.064651439133648e+16
15.805701875257567,9723399593724224.0,3.6071569471584184e+16,1811266658773122.8,2496223438344400.5,11127473424781.467,29801527259198.64,710831433376456.9,2.1288919346681988e+16
16.221815912762718,9764941788509686.0,3.681101390841452e+16,1819005103851060.5,2506888289441092.0,11470436395019.398,30720158384782.59,732743439179002.8,2.1945244692653796e+16
16.64625223101797,9805646327272072.0,3.7563921645327464e+16,1826587511072493.0,2517338094698577.0,11820801847760.258,31658623748430.445,755128572250973.6,2.261574171443712e+16
17.079177275638333,9845530236763014.0,3.83305829553065e+16,1834017052166267.2,2527577225280742.0,12178703793649.89,32617282723149.9,777995405603922.2,2.330066704897563e+16
17.5207608211511,9884610178086480.0,3.91112932305861e+16,1841296830748702.5,2537609958481205.0,12544279090732.7,33596502328308.164,801352694668784.4,2.400028278718179e+16
17.97117603757412,9922902459842028.0,3.990635310958093e+16,1848429884771869.5,2547440481097482.0,12917667498800.453,34596657376048.31,825209380789858.2,2.471485657820488e+16
18.430599558325603,9960423050419474.0,4.071606860474312e+16,1855419188813891.8,2557072892587348.5,13299011734821.482,35618130620636.34,849574594788732.5,2.5444661735778172e+16
18.899211549492115,9997187589513746.0,4.154075123146795e+16,1862267656223887.2,2566511208024975.0,13688457529462.78,36661312910769.29,874457660598948.2,2.618997734666614e+16
19.37719578048196,1.0033211398922516e+16,4.238071813816573e+16,1868978141133320.8,2575759360872827.0,14086153684715.97,37726603344880.61,899868098972156.4,2.6951088381235244e+16
19.864739696091597,1.0068509492683536e+16,4.323629223760705e+16,1875553440344407.8,2584821205584300.5,14492252132641.656,38814409429477.89,925815631256749.2,2.7728285806175876e+16
20.36203449001343,1.0103096586604528e+16,4.4107802339646376e+16,1881996295105344.8,2593700520050192.0,14906907995245.432,39925147240554.62,952310183249799.6,2.8521866699400776e+16
20.869275179813698,1.0136987107234048e+16,4.4995583285424616e+16,1888309392781361.8,2602401007901707.5,15330279645501.068,41059241588116.15,979361889123428.2,2.9332134367150444e+16
21.38666068340997,1.017019520031667e+16,4.589997608314443e+16,1894495368429776.8,2610926300681176.5,15762528769536.85,42217126183865.0,1006981095426559.8,3.015939846333684e+16
21.91439389707817,1.0202734738773886e+16,4.682132804551257e+16,1900556806286627.8,2619279959890851.5,16203820430001.02,43399243812092.125,1035178365163250.0,3.1003975111155896e+16
22.452681775019734,1.0234619330247026e+16,4.775999292893561e+16,1906496241171815.5,2627465478929403.5,16654323130624.93,44606046503822.1,1063964481948697.5,3.186618702700413e+16
23.00173541052013,1.0265862324236982e+16,4.871633107455607e+16,1912316159819060.8,2635486284924875.5,17114208882000.979,45837995714263.8,1093350454244184.8,3.2746363646734716e+16
23.561770118730532,1.0296476818871944e+16,4.969070955121324e+16,1918019002136581.5,2643345740472037.5,17583653268594.783,47095562503617.32,1123347519672174.2,3.3644841254288384e+16
24.133005521105144,1.032647566733163e+16,5.068350230040648e+16,1923607162403811.2,2651047145281722.0,18062835517011.12,48379227721293.414,1153967149412875.8,3.4561963112738148e+16
24.715665631527248,1.0355871483954966e+16,5.169509028334257e+16,1929082990409100.8,2658593737748744.5,18551938565533.383,49689482193601.766,1185221052683656.0,3.5498079597787e+16
25.309978944157795,1.038467665005502e+16,5.272586163014312e+16,1934448792532977.0,2665988696444791.5,19051149134958.047,51026826914963.37,1217121181302622.5,3.645354833375772e+16
25.91617852304095,1.0412903319464306e+16,5.377621179128735e+16,1939706832781058.2,2673235141541961.0,19560657800744.9,52391773242710.94,1249679734337841.2,3.74287343321188e+16
26.53450209350177,1.0440563423830326e+16,5.484654369136487e+16,1944859333770546.2,2680336136172293.0,20080659066506.016,53784843095534.81,1282909162843689.5,3.84240101325859e+16
27.165192135371807,1.0467668677680614e+16,5.593726788520959e+16,1949908477673701.2,2687294687728095.5,20611351438854.246,55206569155640.55,1316822174685789.8,3.943975594684675e+16
27.808495978079243,1.0494230583274902e+16,5.704880271648902e+16,1954856407121720.8,2694113749107576.5,21152937503636.746,56657495074680.055,1351431739456094.8,4.047635980495045e+16
28.464665897640828,1.0520260435259884e+16,5.818157447881813e+16,1959705226071851.2,2700796219909845.0,21705624003575.523,58138175683524.945,1386751093479737.5,4.1534217704409656e+16
29.133959215593645,1.0545769325142096e+16,5.933601757946707e+16,1964457000640519.8,2707344947583199.0,22269621917339.25,59649177205948.1,1422793744915216.2,4.261373376206275e+16
29.816638399905518,1.0570768145591482e+16,6.051257470573451e+16,1969113759905078.5,2713762728529971.5,22845146540072.496,61191077476282.82,1459573478949597.5,4.371532036874199e+16
30.51297116790363,1.0595267594589262e+16,6.171169699405313e+16,1973677496676403.2,2720052309171338.5,23432417565405.727,62764466161131.45,1497104363090409.0,4.483939834679922e+16
31.223230591261704,1.0619278179430546e+16,6.293384420189703e+16,1978150168244544.8,2726216386974944.0,24031659168972.984,64369944985193.375,1535400752555986.0,4.598639711053678e+16
31.947695203086937,1.064281022059291e+16,6.417948488255834e+16,1982533697099329.8,2732257611447990.0,24643100093463.215,66008127961287.48,1574477295765969.0,4.715675482959736e+16
32.686649107148675,1.0665873855480464e+16,6.54490965628612e+16,1986829971627812.8,2738178585098475.5,25266973735231.312,67679641624643.36,1614348939933772.0,4.83509185953608e+16
33.44038208929165,1.0688479042051988e+16,6.674316592388028e+16,1991040846790142.0,2743981864366620.0,25903518232496.8,69385125271537.38,1655030936762848.5,4.956934459040466e+16
34.20918973107749,1.0710635562342152e+16,6.8062188984731656e+16,1995168144775456.8,2749669960528787.5,26552976555156.95,71125231202350.56,1696538848248612.8,5.081249826107923e+16
34.993373525699035,1.0732353025882392e+16,6.9406671289503144e+16,1999213655639146.5,2755245340575767.5,27215596596242.902,72900624969127.72,1738888552587863.2,5.2080854493252584e+16
35.793240996213015,1.0753640873028986e+16,7.077712809739126e+16,2003179137922797.2,2760710428067160.0,27891631265046.35,74711985627718.34,1782096250197689.0,5.337489779128183e+16
36.60910581613728,1.0774508378204688e+16,7.217408457611325e+16,2007066319258029.8,2766067603963549.5,28581338581946.836,76560005994578.25,1826178469845714.8,5.469512246026478e+16
37.44128793246003,1.0794964653059292e+16,7.35980759986602e+16,2010876896955274.0,2771319207437911.0,29284981774967.17,78445392908317.84,1871152074893766.0,5.6042032791630744e+16
38.29011369110923,1.0815018649555058e+16,7.504964794345949e+16,2014612538578495.0,2776467536667717.0,30002829378088.48,80368867496078.0,1917034269656877.8,5.741614325212733e+16
39.15591596493141,1.0834679162981584e+16,7.652935649801611e+16,2018274882506785.0,2781514849608911.0,30735155331353.016,82331165444819.95,1963842605879721.0,5.881797867626284e+16
40.03903428423004,1.0853954834904656e+16,7.803776846609664e+16,2021865538483723.0,2786463364752942.5,31482239082786.992,84333037277615.38,2011594989332478.8,6.024807446226255e+16
40.93981496991464,1.087285415605316e+16,7.957546157853053e+16,2025386088155118.2,2791315261867956.5,32244365692171.66,86375248635023.11,2060309686528351.0,6.170697677159868e+16
41.85861126931294,1.0891385469148436e+16,8.114302470768942e+16,2028838085596051.2,2796072682725095.5,33021825936696.934,88458580561642.61,2110005331564654.5,6.319524273215672e+16
42.7957834946992,1.0909556971678564e+16,8.274105808572154e+16,2032223057827659.2,2800737731810694.0,33814916418525.996,90583829797931.48,2160700933089845.2,6.471344064509847e+16
