t(s),Total solute volume 1,Total retention volume 1,Total 1 volume 1,Total 2 volume 1,Total 3 volume 1,Total 4 volume 1,Total 5 volume 1,Total 6 volume 1
0.1,803801399340899.0,888695292650996.4,42833262785020.44,42060630525076.21,0.0,0.0,0.0,0.0
0.202,1210568247325814.2,1339691058005884.0,64509203328753.79,63345577616330.266,3839104194.328301,6103113257.822084,66624571844.448425,1191462945690.1191
0.30604000000000003,1519802859695186.5,1683533253823737.8,80987810411688.52,79526941377851.62,9735670188.62584,15477064683.28674,168955365775.09482,3021474238361.7144
0.41216080000000005,1780918364334302.8,1974719685060626.2,94902228886263.55,93190369702410.81,17283662102.084698,27476394220.53335,299946182637.93384,5364015898690.716
0.5204040160000001,2012405104420494.5,2233633611815714.8,107237778922327.7,105303409427791.66,26301572691.49353,41812577226.31995,456447351057.65265,8162757544125.458
0.6308120963200001,2223475008920130.2,2470427350430832.5,118485349159077.84,116348094479190.97,36690894327.32263,58329034581.08503,636749587589.8319,11387128355941.707
0.7434283382464002,2419481740152708.0,2691001024896067.5,128930227511659.4,126604566710385.6,48394194489.24919,76934485177.69507,839856436148.0907,15019305405502.766
0.8582969050113283,2603854256923358.0,2899134651859936.5,138755137590564.8,136252253738964.72,61377881750.82729,97575549051.40651,1065185189501.3108,19048864986736.598
0.9754628431115548,2778941443730466.0,3097419168933474.5,148085247611714.6,145414065979803.44,75623707824.31679,120223238263.2382,1312419416881.873,23470145248529.707
1.094972099973786,2946433719304039.5,3287721015463640.5,157010637226416.78,154178458215374.9,91124056121.57576,144865467217.158,1581427202864.4958,28280783991606.375
1.2168715419732616,3107594520624806.0,3471437128287245.5,165598632926412.66,162611542493121.38,107879106192.78947,171502545062.24063,1872211940216.2532,33480838651429.363
1.3412089728127268,3263396848705535.0,3649645310000911.5,173901084345397.94,170764233176077.94,125895020590.11742,200144293444.21674,2184880865889.3481,39072223593976.3
1.4680331522689813,3414608458456327.0,3823198015125049.5,181958903887710.88,178676704685132.84,145182730560.9654,230808116217.16324,2519623989094.1304,45058333260004.14
1.597393815314361,3561847460464867.5,3992783545780904.0,189805029656325.9,186381300981329.84,165757092798.25214,263517659025.75244,2876699458698.4995,51443780467862.25
1.729341691620648,3705619983239300.5,4158967492607511.5,197466432412222.06,193904506323435.1,187636286794.24457,298301851376.93646,3256423106076.306,58234209388309.914
1.863928525453061,3846346489411077.5,4322221684819454.5,204965517921823.4,201268322319641.3,210841374165.907,335194206200.2895,3659160798833.662,65436158787718.836
2.001207095962122,3984380656390287.5,4482944956576142.5,212321133076262.44,208491255898323.47,235395970509.15717,374232298298.6495,4085322747394.0015,73056960195066.17
2.1412312378813647,4120023234049330.0,4641478386403330.0,219549304344689.16,215589044441025.53,261325997567.28625,415457370477.8002,4535359205394.481,81104660994843.4
2.284055862638992,4253532412186466.5,4798116705218927.0,226663790240681.7,222575198286018.16,288659493660.9727,458914032698.3943,5009757256647.581,89587973722758.27
2.4297369798917723,4385131751045967.0,4953116984205001.0,233676503921769.7,229461415694316.7,317426469944.8526,504650032086.0795,5509038020563.234,98516199020353.45
2.578331719489608,4515016252419864.0,5106705358357344.0,240597836716031.4,236257900556607.0,347658795773.48535,552716073211.6528,6033755115854.422,107899238679993.67
2.7298983538794,4643357182542970.0,5259082298027526.0,247436915121199.78,242973614745625.0,379390113835.1001,603165681711.2877,6584492888393.194,117747536933794.03
2.884496320956988,4770305871317495.0,5410426795518571.0,254201803260428.38,249616476922784.72,412655773335.2753,656055098598.6204,7161865328392.617,128072067817547.47
3.0421862473761276,4895996768199998.0,5560899727073059.0,260899665725512.03,256193522444007.9,447492779558.2204,711443200219.9584,7766515196702.787,138884319527071.48
3.2030299723236504,5020549920287018.0,5710646580277657.0,267536899630018.38,262711033030866.75,483939756271.0771,769391438632.3373,8399113374057.398,150196282760797.4
3.3670905717701234,5144073000328906.0,5859799687314032.0,274119242678832.5,269174642890751.78,522036918580.0474,829963798603.4886,9060358391778.783,162020442306582.88
3.5344323832055258,5266662980360506.0,6008480069239420.0,280651862353199.16,275589426293186.4,561826054386.4902,893226768290.1952,9750976111808.148,174369771298055.22
3.7051210308696363,5388407523519596.0,6156798971053515.0,287139430078453.5,281959970399707.56,603350512993.223,959249321290.6763,10471719530906.494,187257727690565.22
3.879223451487029,5509386149713912.0,6304859148712465.0,293586183340512.06,288290436259887.8,646655199714.8015,1028102908249.2893,11223368689138.701,200698252601053.47
4.0568079205167695,5629671218274040.0,6452755955481572.0,299995978049834.7,294584610230759.75,691786575577.2795,1099861456560.0872,12006730666775.506,214705770228035.0
4.237944078927105,5749328761345161.0,6600578264701099.0,306372332951517.8,300845947585819.0,738792661371.6758,1174601376999.9949,12822639656848.988,229295189123384.16
4.422702960505647,5868419194663980.0,6748409258228960.0,312718467501425.8,307077609707954.5,787723045464.4766,1252401576343.5237,13671957103012.398,244481904630778.5
4.61115701971576,5986997926931086.0,6896327103849798.0,319037334338650.5,313282495976157.7,838628894877.9225,1333343475184.7988,14555571894252.63,260281802339597.4
4.803380160110075,6105115884792786.0,7044405540329065.0,325331647260943.7,319463271236331.1,891562969239.2761,1417511030330.261,15474400609506.018,276711262429935.94
4.9994477633122765,6222819967178919.0,7192714385200789.0,331603905435622.06,325622389575477.4,946579637267.4642,1504990761235.2537,16429387806427.346,293787164805839.6
5.199436718578522,6340153440177977.0,7341319977560375.0,337856414441828.5,331762114984392.0,1003734895520.9154,1595871780046.0183,17421506349524.797,311526894931083.9
5.403425452950093,6457156281602830.0,7490285565905996.0,344091304631869.75,337884539387804.56,1063086389175.325,1690245824879.9001,18451757773654.215,329948350295772.7
5.611493962009095,6573865482783945.0,7639671649297104.0,350310547213290.8,343991598436350.9,1124693434636.6658,1788207296034.7607,19521172679498.535,349069947453346.9
5.823723841249277,6690315313832081.0,7789536278677157.0,356515968384282.1,350085085387014.56,1188617043824.5688,1889853294866.0996,20630811158178.375,368910629576899.3
6.040198318074262,6806537557566250.0,7939935324058450.0,362709261799322.56,356166663343909.7,1254919949985.848,1995283665109.485,21781763242567.633,389489874491303.4
6.261002284435747,6922561716454815.0,8090922712337052.0,368891999596733.75,362237876086916.5,1323666634918.245,2104601036458.1758,22975149383236.758,410827703143982.7
6.486222330124463,7038415196224478.0,8242550639744133.0,375065642182899.75,368300157679413.0,1394923357501.3235,2217910870232.7944,24212120947245.773,432944688482362.8
6.715946776726952,7154123469223751.0,8394869762317186.0,381231546937642.25,374354841016623.06,1468758183445.56,2335321507002.1284,25493860738247.17,455861964710470.6
6.950265712261491,7269710220158660.0,8547929367259931.0,387390975980234.1,380403165451544.06,1545241016182.3152,2456944216032.9697,26821583536567.84,479601236900721.3
7.18927102650672,7385197476429633.0,8701777527633047.0,393545103114845.44,386446283615109.0,1624443628827.4797,2582893246462.6025,28196536658107.3,504184790940058.6
7.433056447036854,7500605724975861.0,8856461242463633.0,399695020056980.44,392485267530314.56,1706439697159.616,2713285880100.7944,29620000531039.12,529635503792185.1
7.681717575977592,7615954017261901.0,9012026564064354.0,405841742028048.4,398521114105871.2,1791304833560.7478,2848242485779.4736,31093289289418.027,555976854059788.3
7.935351927497144,7731260063815363.0,9168518714104060.0,411986212793122.6,404554750083089.25,1879116621873.6309,2987886575177.389,32617751382905.867,583232932832536.1
8.194058966047088,7846540319532470.0,9325982189762158.0,418129309206726.7,410587036499679.56,1969954653134.5942,3132344860055.7563,34194770201912.023,611428454808179.4
8.45794014536803,7961810060806636.0,9484460861121130.0,424271845322900.6,416618772725663.44,2063900562145.271,3281747310847.083,35825764717522.43,640588769675420.8
8.72709894827539,8077083455397672.0,9643998060800962.0,430414576118408.75,422650700119436.56,2161038064850.1028,3436227216545.584,37512190135653.77,670739873748386.5
9.0016409272409,8192373625842318.0,9804636666710672.0,436558200871787.2,428683505345856.06,2261452996489.8423,3595921245852.7812,39255538564923.625,701908421843463.8
9.281673745785717,8307692707106326.0,9966419178682798.0,442703366235529.4,434717823393013.7,2365233350503.7197,3760969509535.4795,41057339697776.234,734121739390124.9
9.567307220701432,8423051899092888.0,1.012938778966154e+16,448850669034172.1,440754240319845.0,2472469318155.405,3931515623957.884,42919161504440.266,767407834768076.2
9.85865336511546,8538461514547915.0,1.0293584452035498e+16,455000658817089.1,446793295762883.7,2583253328859.709,4107706775752.002,44842610939333.28,801795411863666.0
10.155826432417769,8653931022839495.0,1.0459050939635386e+16,461153840191431.94,452835485227106.44,2697680091188.845,4289693787593.6807,46829334659554.85,837313882839012.2
10.458942961066125,8769469090033065.0,1.0625828905856196e+16,467310674957663.5,458881262182965.3,2815846634538.237,4477631185053.679,48881019755135.03,873993381107775.1
10.768121820287448,8885083615637006.0,1.0793959938312374e+16,473471584067676.75,464931039989163.0,2937852351433.4404,4671677264495.428,50999394490729.82,911864774511858.0
11.083484256693197,9000781766350620.0,1.0963485610387028e+16,479636949423162.8,470985193658601.8,3063799040460.448,4871994161992.638,53186229058473.14,950959678693723.9
11.405153941827061,9116570007111198.0,1.1134447529998186e+16,485807115530067.2,477044061482984.1,3193790949802.956,5078747923241.599,55443336341708.74,991310470659195.0
11.733257020663602,9232454129704826.0,1.1306887385869114e+16,491982391023203.9,483107946529930.1,3327934821370.6406,5292108574444.427,57772572689344.99,1032950302525982.5
12.067922161076874,9348439279177652.0,1.1480846991559876e+16,498163050073672.75,489177118025006.1,3466339935503.453,5512250194140.216,60175838700584.81,1075913115453305.9
12.409280604298411,9464529978260226.0,1.1656368327490628e+16,504349333690397.75,495251812629785.7,3609118156237.3174,5739350985962.937,62655080019794.06,1120233653748224.9
12.75746621638438,9580730149996108.0,1.1833493581163166e+16,510541450925955.2,501332235625932.5,3756383977117.423,5973593352304.612,65212288141284.13,1165947479144462.5
13.112615540712067,9697043138746720.0,1.2012265185766812e+16,516739579995903.0,507418562014327.8,3908254567545.5664,6215163968864.664,67849501223791.3,1213090985249632.0
13.474867851526309,9813471729728154.0,1.2192725857336464e+16,522943869319853.7,513510937537372.2,4064849819648.488,6464253860065.347,70568804914445.06,1261701412156911.8
13.844365208556836,9930018167220108.0,1.237491863061415e+16,529154438491806.25,519609479631817.7,4226292395654.709,6721058475315.667,73372333182023.69,1311816861217431.0
14.221252512727972,1.0046684171575132e+16,1.2558886893751222e+16,535371379186538.3,525714278318798.3,4392707775767.438,6985777766105.058,76262269159305.34,1363476309969595.8
14.605677562982532,1.0163470955143232e+16,1.2744674421975162e+16,541594756008199.8,531825397037130.5,4564224306521.779,7258616263910.348,79240845994324.38,1416719627221836.2
14.997791114242183,1.0280379237217626e+16,1.293232541033387e+16,547824607286751.25,537942873425375.4,4740973249614.553,7539783158898.753,82310347710355.64,1471587588285273.5
15.397746936527026,1.0397409258097522e+16,1.3121884505620632e+16,554060945827347.5,544066720057708.75,4923088831195.565,7829492379411.131,85473110074451.86,1528121890352971.8
15.805701875257567,1.0514560792355402e+16,1.331339683757153e+16,560303759617325.1,550196925138153.56,5110708291609.322,8127962672210.147,88731521474364.25,1586365168022466.5
16.221815912762718,1.0631833161389232e+16,1.3506908049422938e+16,566553012495090.4,556333453157409.25,5303971935576.44,8435417683477.716,92088023803686.42,1646361008958452.2
16.64625223101797,1.0749225245332562e+16,1.3702464327904334e+16,572808644784789.8,562476245516063.1,5503023182804.657,8752086040548.218,95545113355065.8,1708153969692510.5
17.079177275638333,1.0866735494389844e+16,1.3900112432739608e+16,579070573900356.5,568625221117746.9,5708008619019.156,9078201434362.842,99105341721331.6,1771789591556958.8
17.5207608211511,1.0984361939658698e+16,1.4099899725720672e+16,585338694922200.4,574780276935427.9,5919078047402.52,9414002702632.209,102771316704395.72,1837314416749915.8
17.97117603757412,1.1102102203495584e+16,1.430187419941373e+16,591612881149581.4,580941288553814.1,6136384540434.899,9759733913694.295,106545703231790.52,1904776004528816.2
18.430599558325603,1.1219953509476482e+16,1.4506084505552022e+16,597892984631408.0,587108110690573.0,6360084492125.16,10115644451055.463,110431224280709.53,1974222947529661.0
18.899211549492115,1.133791269200073e+16,1.471257998316565e+16,604178836677987.0,593280577698864.8,6590337670623.907,10481989098602.633,114430661809423.58,2045704888209438.8
19.37719578048196,1.145597620558104e+16,1.4921410686493404e+16,610470248356102.9,599458504053474.5,6827307271209.952,10859028126475.805,118546857695953.61,2119272535409144.0
19.864739696091597,1.1574140133860156e+16,1.5132627412718294e+16,616767010969475.0,605641684822616.0,7071159969641.374,11247027377588.812,122782714683876.73,2194977681034927.2
20.36203449001343,1.1692400198390414e+16,1.5346281729565226e+16,623068896526618.0,611829896127344.9,7322065975862.937,11646258354789.186,127141197335160.08,2272873216855021.0
20.869275179813698,1.1810751767209204e+16,1.5562426002793902e+16,629375658197823.8,618022895590299.1,7580199088061.479,12056998308645.479,131625332989901.14,2353013151409974.0
21.38666068340997,1.1929189863241172e+16,1.5781113423618982e+16,635687030762874.4,624220422775339.9,7845736747060.9795,12479530325852.39,136238212732871.64,2435452627033832.5
21.91439389707817,1.20477091725536e+16,1.6002398036084138e+16,642002731050983.2,630422199619556.5,8118860091048.802,12914143418243.033,140982992366751.7,2520247936983950.5
22.452681775019734,1.2166304052490022e+16,1.6226334764414912e+16,648322458374207.6,636627930858852.0,8399754010624.597,13361132612398.176,145862893391940.4,2607456542676861.0
23.00173541052013,1.2284968539703142e+16,1.6452979440371564e+16,654645894955517.5,642837304448299.0,8688607204162.991,13820799039841.064,150881203992828.62,2697137091027783.0
23.561770118730532,1.2403696376372828e+16,1.6682388830036446e+16,660972707325590.4,649049992933067.8,8985612246557.787,14293450047384.031,156041280026337.53,2789349411084685.5
24.133005521105144,1.2522480944882032e+16,1.6914620663016642e+16,667302542843062.2,655265650034134.8,9290965593082.324,14779399210460.814,161346546036558.75,2884154614417313.5
24.715665631527248,1.2641315385720184e+16,1.7149733658037134e+16,673635035975503.4,661483916811914.6,9604867713497.643,15278966541577.727,166800496236952.12,2981614989037482.0
25.309978944157795,1.2760192531710214e+16,1.7387787551095218e+16,679969804795760.9,667704418228506.8,9927523096834.45,15792478505268.701,172406695535267.84,3081794099223332.0
25.91617852304095,1.2879104934226274e+16,1.7628843123024424e+16,686306452378740.4,673926764518594.5,10259140321065.65,16320268130336.494,178168780546862.9,3184756782902576.5
26.53450209350177,1.2998044870938054e+16,1.7872962227126182e+16,692644567214078.1,680150551594696.5,10599932110126.674,16862675103281.33,184090460616721.44,3290569169549211.0
27.165192135371807,1.3117004353538562e+16,1.812020781686777e+16,698983723617948.2,686375361451520.9,10950115391165.22,17420045862207.477,190175518846791.44,3399298698159556.5
27.808495978079243,1.323597513545744e+16,1.8370643973645116e+16,705323482144087.1,692600762569594.0,11309911352003.047,17992733691184.684,196427813128361.6,3511014135302436.0
28.464665897640828,1.3354948719561282e+16,1.862433593460453e+16,711663389994148.0,698826310318196.4,11679545498789.715,18581098815037.49,202851277179212.0,3625785593237870.0
29.133959215593645,1.3473916365840696e+16,1.8881350120516868e+16,718002981427311.1,705051547357597.8,12059247713827.275,19185508494532.62,209449921585200.94,3743684548097692.5
29.816638399905518,1.3592869099081482e+16,1.914175416369384e+16,724341778169073.5,711276004040472.9,12449252313541.783,19806337121931.78,216227834845944.78,3864783858121379.0
30.51297116790363,1.3711797716516652e+16,1.940561693593449e+16,730679289819021.6,717499198812306.5,12849798106575.324,20443966316872.656,223189184424181.62,3989157781938901.5
31.223230591261704,1.3830692795454874e+16,1.9673008576488028e+16,737015014257333.6,723720638610570.6,13261128451969.957,21098785022537.496,230338217798382.7,4116881996892393.5
31.947695203086937,1.3949544700879864e+16,1.9944000520016576e+16,743348438049732.6,729939819262379.1,13683491317411.934,21771189602064.754,237679263518129.38,4248033617386976.0
32.686649107148675,1.4068343593014098e+16,2.021866552454015e+16,749679036850551.6,736156225880272.4,14117139337502.355,22461583935154.86,245216732261727.16,4382691213260836.5
33.44038208929165,1.4187079434840744e+16,2.0497077699345892e+16,756006275803567.0,742369333255822.9,14562329872017.627,23170379514818.215,252955117895484.44,4520934828163416.0
34.20918973107749,1.430574199957695e+16,2.077931253284028e+16,762329609940224.8,748578606250684.1,15019325064120.049,23897995544207.55,260898998534052.06,4662845997930044.0
34.993373525699035,1.4424320878091618e+16,2.106544692032504e+16,768648484574938.1,754783500184750.8,15488391898478.479,24644859033476.473,269053037601164.16,4808507768940603.0
35.793240996213015,1.454280548626215e+16,2.1355559191675476e+16,774962335697109.1,760983461221105.0,15969802259253.229,25411404896599.945,277421984890104.28,4958004716449161.0
36.60910581613728,1.4661185072264192e+16,2.1649729138901216e+16,781270590359579.8,767177926747482.9,16463832987901.992,26198076048090.51,286010677623174.3,5111422962870788.0
37.44128793246003,1.4779448723790302e+16,2.1948038043568944e+16,787572667063318.4,773366325753991.5,16970765940757.945,27005323499542.906,294824041509429.8,5268850196011605.0
38.29011369110923,1.4897585375194758e+16,2.225056870406965e+16,793867976138142.4,779548079206981.2,17490888046333.045,27833606455936.992,303867091799931.6,5430375687227549.0
39.15591596493141,1.5015583814562504e+16,2.2557405462711772e+16,800155920119416.1,785722600418951.5,18024491362297.44,28683392411628.23,313144934339739.9,5596090309497214.0
40.03903428423004,1.5133432690703216e+16,2.286863423262678e+16,806435894120751.2,791889295414519.0,18571873132086.035,29555157245956.695,322662766615903.7,5766086555394365.0
40.93981496991464,1.5251120520072256e+16,2.318434252447326e+16,812707286202819.4,798047563292580.2,19133335841084.715,30449385318403.676,332425878800679.8,5940458554945422.0
41.85861126931294,1.5368635693623894e+16,2.3504619472930588e+16,818969477738533.1,804196796584913.5,19709187272348.844,31366569563231.168,342439654789284.6,6119302093358378.0
42.7957834946992,1.5485966483602876e+16,2.3829555862975644e+16,825221843774979.8,810336381611571.2,20299740561809.61,32307211583539.97,352709573231466.9,6302714628609367.0
43.751699164593184,1.5603101050284666e+16,2.4159244155939636e+16,831463753392576.8,816465698833565.4,20905314252925.883,33271821744687.438,363241208556290.9,6490795308874875.0
44.72673314788505,1.5720027448675476e+16,2.4493778515346444e+16,837694570062121.6,822584123203472.2,21526232350743.805,34260919267013.996,374040231989547.56,6683644989798046.0
