t(s),Total solute volume 1,Total retention volume 1,Total 1 volume 1,Total 2 volume 1,Total 3 volume 1,Total 4 volume 1,Total 5 volume 1,Total 6 volume 1
0.1,1144268928618327.0,1596229672649425.0,193012778181123.2,258947965849975.12,0.0,0.0,0.0,0.0
0.202,1716890146316981.2,2409182778139985.0,289601274041272.3,388532114325811.06,8243117913.469075,21179442722.03991,474809780254.63666,13655011115034.605
0.30604000000000003,2148800954785560.8,3033339247318270.5,362455044669126.1,486273500370744.44,20839640858.12744,53544400949.48975,1200428087934.7139,34534935363093.88
0.41216080000000005,2510359985458351.5,3565287391223145.5,423442031177022.4,568094283425768.1,36885049802.620514,94770838111.48772,2124730121622.8894,61134705152470.14
0.5204040160000001,2828063111713755.0,4041268441820688.5,477031499626787.75,639990478293514.8,55960981311.4221,143783844198.0008,3223613591428.194,92759993769694.25
0.6308120963200001,3115146117182775.0,4479336034733615.0,525456033072020.4,704957341986781.6,77829067474.1651,199970983047.63177,4483346761451.308,129015395680066.86
0.7434283382464002,3379315561323578.5,4889983576266655.0,570015557112149.0,764738868397596.2,102339811573.8712,262948160554.28696,5895317874583.944,169652983586620.75
0.8582969050113283,3625514208385128.5,5279937269234050.0,611543806411738.2,820453604735341.8,129395008152.63556,332463068441.2631,7453870044559.022,214509921580690.94
0.9754628431115548,3857131202681228.0,5653812290946124.0,650612454421450.4,872868514120715.5,158929150666.45346,408347414014.23535,9155230136011.41,263477613022040.56
1.094972099973786,4076607037575254.5,6014938912325823.0,687633158224030.9,922535880028857.6,190899084401.47427,490490334926.3443,10996912675018.666,316484534403332.56
1.2168715419732616,4285766155655162.0,6365815708477346.0,722913660804669.6,969868573687114.8,225277751034.2535,578822326820.7765,12977359482398.045,373485858770135.44
1.3412089728127268,4486013385247912.5,6708376666180154.0,756690925532728.1,1015184507644993.0,262050166697.80948,673304909633.621,15095707978601.691,434456784699580.8
1.4680331522689813,4678456642846894.0,7044157687162766.0,789151833338871.9,1058734403325056.2,301210709995.3144,773923659610.2721,17351634953376.885,499388038328968.0
1.597393815314361,4863987112429312.0,7374405170302553.0,820446707186979.6,1100719935596879.2,342761222676.8252,880683329336.8203,19745247151723.758,568282723385637.4
1.729341691620648,5043333618187126.0,7700149501375327.0,850698483547476.6,1141306037322235.8,386709637791.7206,993604323040.6115,22277002246747.676,641154046110891.4
1.863928525453061,5217100660705659.0,8022256364799342.0,880009128256755.8,1180629506939640.0,433068963197.5959,1112720084925.7761,24947650283843.22,718023629565323.8
2.001207095962122,5385795737592470.0,8341463532179139.0,908464244901106.9,1218805191120714.8,481856512065.0435,1238075122127.903,27758189353740.703,798920237576909.6
2.1412312378813647,5549849419108270.0,8658407847420480.0,936136461130221.5,1255930527884032.5,533093309689.6069,1369723480664.1816,30709831422179.582,883878791085420.1
2.284055862638992,5709630395245723.0,8973645418562937.0,963087966765522.8,1292088951747967.5,586803629076.7499,1507727552247.4563,33803975577873.934,972939598044532.5
2.4297369798917723,5865456951855232.0,9287666993220080.0,989372449567993.5,1327352490777165.5,643014622486.9521,1652157127656.644,37042186808500.43,1066147742461031.6
2.578331719489608,6017605859283086.0,9600909849686954.0,1015036594554167.6,1361783778080660.8,701756025766.2052,1803088637119.815,40426178969674.64,1163552594136484.8
2.7298983538794,6166319352284762.0,9913767121856612.0,1040121261352688.2,1395437631365816.5,763059918761.4912,1960604534800.8796,43957800984853.31,1265207411414919.5
2.884496320956988,6311810679219130.0,1.0226595203684298e+16,1064662420230211.4,1428362308720525.0,826960529569.6782,2124792795911.6016,47639025570387.58,1371169016618562.0
3.0421862473761276,6454268563281759.0,1.0539719695637584e+16,1088691904602500.5,1460600518190009.5,893494073487.7101,2295746502985.377,51471939959654.15,1481497529027188.8
3.2030299723236504,6593860825587881.0,1.0853440229738236e+16,1112238022168127.4,1492190237680226.5,962698619759.0452,2473563503571.615,55458738228490.01,1596256143950185.8
3.3670905717701234,6730737354875059.0,1.1168034421852592e+16,1135326055831427.2,1523165387001355.8,1034613980827.6147,2658346125762.103,59601714917264.35,1715510949120912.8
3.5344323832055258,6865032562334823.0,1.1483761137400452e+16,1157978677778126.8,1553556383396041.2,1109281620000.778,2850200941019.1655,63903259713491.92,1839330771616952.0
3.7051210308696363,6996867426684465.0,1.1800863211590736e+16,1180216294433576.8,1583390604338976.8,1186744574311.4707,3049238566058.495,68365853010078.805,1967787049983255.5
3.879223451487029,7126351210147559.0,1.2119569732350516e+16,1202057335910593.5,1612692775863160.2,1267047390040.985,3255573497264.4966,72992062192971.44,2100953727348938.5
4.0568079205167695,7253582907897750.0,1.2440097969727236e+16,1223518500498483.5,1641485300568961.0,1350236068877.155,3469323972434.567,77784538541541.27,2238907162179164.8
4.237944078927105,7378652479940516.0,1.2762655017280946e+16,1244614962454138.8,1669788536398810.8,1436358023078.8167,3690611855666.9595,82746014647862.67,2381726053960873.5
4.422702960505647,7501641904116649.0,1.3087439197161426e+16,1265360549620371.5,1697621034931877.5,1525462038326.482,3919562542000.3633,87879302278841.94,2529491381633354.0
4.61115701971576,7622626081036605.0,1.3414641269994514e+16,1285767896068269.0,1724999746170605.8,1617598243182.0999,4156304879038.0786,93187290619152.47,2682286352977646.5
4.803380160110075,7741673615671563.0,1.3744445482550518e+16,1305848573934251.0,1751940195414707.8,1712818084273.5547,4400971103284.572,98672944844033.17,2840196363498398.0
4.9994477633122765,7858847495587869.0,1.4077030479819468e+16,1325613207823181.5,1778456636745612.5,1811174306473.4941,4653696789318.126,104339304979883.19,3003308963587115.5
5.199436718578522,7974205682090324.0,1.441257010314054e+16,1345071574521113.2,1804562186802101.0,1912720937466.25,4914620810241.706,110189485017725.42,3171713832961550.0
5.403425452950093,8087801627593572.0,1.4751234092096404e+16,1364232690264371.5,1830268941861441.0,2017513276196.8096,5183885308112.5205,116226672250401.05,3345502761542325.5
5.611493962009095,8199684730194797.0,1.5093188704750822e+16,1383104887415891.0,1855588080709161.8,2125607884777.944,5461635673261.006,122454126809074.11,3524769636063855.0
5.823723841249277,8309900734537229.0,1.543859726829528e+16,1401695882081970.8,1880529955354399.5,2237062583498.6816,5748020531582.605,128875181378496.05,3709610431828118.0
6.040198318074262,8418492086534167.0,1.5787620670147158e+16,1420012833946369.5,1905104171303957.2,2351936448632.68,6043191739028.24,135493241073674.52,3900123209101351.5
6.261002284435747,8525498248288661.0,1.6140417797896594e+16,1438062399390256.8,1929319658828599.5,2470289812791.0127,6347304382637.06,142311783463229.0,4096408113730416.5
6.486222330124463,8630955978536215.0,1.649714593516057e+16,1455850778796669.5,1953184736427178.0,2592184267602.1377,6660516787553.667,149334358726926.62,4298567381618428.5
6.715946776726952,8734899583109352.0,1.685796111930206e+16,1473383758798349.8,1976707167506807.8,2717682668533.8423,6982990529553.8545,156564589936730.28,4506705346752754.0
6.950265712261491,8837361139241399.0,1.7223018466066246e+16,1490666750112790.2,1999894211142734.5,2846849141698.5474,7314890452672.082,164006173452237.78,4720928452522722.0
7.18927102650672,8938370696959299.0,1.759247246543465e+16,1507704821512751.5,2022752667653570.0,2979749092506.613,7656384691582.545,171662879422704.94,4941345266102235.0
7.433056447036854,9037956460344816.0,1.7966477252373922e+16,1524502730400984.8,2045288919620633.8,3116449216050.774,8007644698434.257,179538552388938.1,5168066495704074.0
7.681717575977592,9136144951048458.0,1.8345186855633284e+16,1541064950391435.2,2067508968891187.5,3257017509121.6616,8368845273883.037,187637111979298.2,5401205010539914.0
7.935351927497144,9232961156110018.0,1.8728755427307064e+16,1557395696243253.5,2089418470030197.0,3401523283768.092,8740164602098.911,195962553694835.62,5640875863342896.0
8.194058966047088,9328428661859722.0,1.9117337455509708e+16,1573498946446983.5,2111022760622135.8,3550037182327.521,9121784289557.863,204518949779290.6,5887196315329682.0
8.45794014536803,9422569775438164.0,1.951108796219809e+16,1589378463722233.2,2132326888770977.8,3702631193862.5815,9513889407452.904,213310450170247.84,6140285863495170.0
8.72709894827539,9515405635272394.0,1.991016268791193e+16,1605037813652588.8,2153335638100893.0,3859378671947.975,9916668537582.273,222341283528260.94,6400266270148273.0
9.0016409272409,9606956311674906.0,2.0314718264976948e+16,1620480381654392.8,2174053550521774.0,4020354353759.9355,10330313821591.822,231615758341194.78,6667261594609326.0
9.281673745785717,9697240898585134.0,2.072491238052257e+16,1635709388451528.5,2194484946990408.5,4185634380426.776,10755021013465.182,241138264101394.75,6941398227000261.0
9.567307220701432,9786277597349440.0,2.114090393050246e+16,1650727904207221.8,2214633946469805.5,4355296318604.4688,11190989535170.334,250913272553637.78,7222804924068560.0
9.85865336511546,9874083793325896.0,2.156285316576107e+16,1665538861445587.8,2234504483264887.2,4529419183246.768,11638422535383.037,260945339012087.3,7511612846994005.0
10.155826432417769,9960676126008576.0,2.1990921831071364e+16,1680145066880021.2,2254100322891592.0,4708083461542.794,12097526951219.605,271239103744727.4,7807955601133684.0
10.458942961066125,1.0046070553285016e+16,2.2425273297958228e+16,1694549212252031.8,2273425076618365.5,4891371137999.549,12568513572919.77,281799293423960.44,8111969277667965.0
10.768121820287448,1.0130282410371076e+16,2.2866072692035224e+16,1708753884272219.2,2292482214803090.0,5079365720649.228,13051597111430.01,292630722642251.94,8423792497114501.0
11.083484256693197,1.0213326463906564e+16,2.3313487015498376e+16,1722761573745030.0,2311275079134927.5,5272152268364.856,13546996268843.959,303738295491844.3,8743566454682804.0
11.405153941827061,1.029521696164222e+16,2.3767685265354668e+16,1736574683949830.2,2329806893878490.5,5469817419269.739,14054933811663.793,315127007207744.9,9071434967445436.0
11.733257020663602,1.0375967678102984e+16,2.4228838547900108e+16,1750195538343283.0,2348080776207400.5,5672449420228.423,14575636646851.316,326801945873275.44,9407544523306014.0
12.067922161076874,1.0455591956571032e+16,2.469712018991012e+16,1763626387640997.0,2366099745705099.0,5880138157409.142,15109335900643.285,338768294187619.5,9752044331747280.0
12.409280604298411,1.0534102747698014e+16,2.5172705846959148e+16,1776869416330489.0,2383866733102760.5,6092975187909.161,15656267000109.129,351031331294874.94,1.0105086376344968e+16
12.75746621638438,1.0611512645023662e+16,2.5655773609243428e+16,1789926748662431.5,2401384588317144.5,6311053772435.758,16216669757433.906,363596434674230.06,1.0466825469036108e+16
13.112615540712067,1.0687833917650672e+16,2.614650410524778e+16,1802800454162177.5,2418656087844962.5,6534468909037.657,16790788456912.059,376469082090944.6,1.0837419306133018e+16
13.474867851526309,1.076307854030239e+16,2.6645080603562464e+16,1815492552699802.2,2435683941564874.5,6763317367881.867,17378871944641.02,389654853607885.3,1.1217028526075e+16
13.844365208556836,1.0837258220966982e+16,2.715168911313147e+16,1828005019153062.5,2452470798993389.5,6997697727073.01,17981173720906.836,403159433657436.0,1.1605816768912662e+16
14.221252512727972,1.0910384426313864e+16,2.7666518482185016e+16,1840339787694646.5,2469019255036652.0,7237710409512.52,18597952035255.934,416988613173674.75,1.2003950737521424e+16
14.605677562982532,1.0982468405051562e+16,2.818976049609079e+16,1852498755732019.5,2485331855276201.5,7483457720796.172,19229469984249.49,431148291784709.3,1.2411600260541242e+16
14.997791114242183,1.1053521209379194e+16,2.872160997433582e+16,1864483787525894.8,2501411100823556.0,7735043888149.273,19875995611899.754,445644480065174.7,1.282893835704193e+16
15.397746936527026,1.1123553714673032e+16,2.926226486683548e+16,1876296717510888.2,2517259452775229.0,7992575100399.567,20537802012788.137,460483301848899.1,1.325614130291428e+16
15.805701875257567,1.1192576637535754e+16,2.981192634975001e+16,1887939353340052.0,2532879336297303.5,8256159548988.398,21215167437868.605,475670996601789.8,1.3693388698988258e+16
16.221815912762718,1.1260600552326276e+16,3.037079892097423e+16,1899413478673059.8,2548273144366082.0,8525907470021.8545,21908375402959.285,491213921855032.2,1.4140863540880856e+16
16.64625223101797,1.1327635906277834e+16,3.0939090495456496e+16,1910720855726289.8,2563443241189358.0,8801931187363.182,22617714799929.156,507118555698750.44,1.4598752290576906e+16
17.079177275638333,1.1393693033303974e+16,3.1517012500487256e+16,1921863227601628.5,2578391965330688.5,9084345156769.771,23343480010585.965,523391499336258.9,1.506724494974738e+16
17.5207608211511,1.1458782166583878e+16,3.2104779971094216e+16,1932842320409295.5,2593121632557442.5,9373266011077.092,24085971023275.05,540039479699128.3,1.5546535134810094e+16
17.97117603757412,1.1522913450012074e+16,3.2702611645664644e+16,1943659845199172.0,2607634538431895.0,9668812606433.543,24845493552197.633,557069352123279.4,1.6036820153739652e+16
18.430599558325603,1.1586096948590534e+16,3.331073006191535e+16,1954317499713725.0,2621932960662932.0,9971106069590.074,25622359159461.543,574488103086344.4,1.6538301084632836e+16
18.899211549492115,1.1648342657835986e+16,3.392936165331633e+16,1964816969974801.8,2636019161234974.5,10280269846249.33,26416885379875.223,592302853006615.5,1.7051182856037824e+16
19.37719578048196,1.1709660512270316e+16,3.455873684607375e+16,1975159931715757.8,2649895388329271.5,10596429750479.117,27229395848500.168,610520859103847.1,1.7575674329055584e+16
19.864739696091597,1.1770060393056218e+16,3.5199090156768704e+16,1985348051669453.0,2663563878051915.0,10919714015196.055,28060220430976.285,629149518322290.5,1.8111988381222576e+16
20.36203449001343,1.1829552134837346e+16,3.5850660290743776e+16,1995382988722013.5,2677026855981756.5,11250253343724.879,28909695356636.605,648196370316307.8,1.8660341992186028e+16
20.869275179813698,1.1888145531837148e+16,3.651369024132571e+16,2005266394941579.0,2690286538550555.5,11588180962440.365,29778163354429.062,667669100498965.9,1.922095633118063e+16
21.38666068340997,1.1945850343267896e+16,3.718842738996714e+16,2014999916490671.0,2703345134267044.5,11933632674498.598,30665973791663.688,687575543154028.4,1.979405684632136e+16
21.91439389707817,1.2002676298097346e+16,3.787512360738741e+16,2024585194430250.2,2716204844795639.0,12286746914664.867,31573482815605.8,707923684611818.9,2.0379873355721996e+16
22.452681775019734,1.2058633099218222e+16,3.857403535578837e+16,2034023865422981.2,2728867865899970.5,12647664805246.08,32501053497936.742,728721666489392.5,2.097864014045459e+16
23.00173541052013,1.2113730427062422e+16,3.9285423792220456e+16,2043317562342888.2,2741336388260808.5,13016530213136.322,33449055982103.79,749977788995586.1,2.1590596039363556e+16
23.561770118730532,1.2167977942699408e+16,4.000955487316615e+16,2052467914798006.5,2753612598177205.0,13393489807983.934,34417867633584.14,771700514301416.5,2.221598454574855e+16
24.133005521105144,1.2221385290456314e+16,4.074669946041234e+16,2061476549572284.0,2765698678159427.0,13778693121489.867,35407873193087.15,793898469976453.0,2.285505390593329e+16
24.715665631527248,1.227396210009427e+16,4.149713342827628e+16,2070345090992721.0,2777596807421456.5,14172292607846.584,36419464932722.375,816580452491703.4,2.350805721973553e+16
25.309978944157795,1.2325717988574328e+16,4.226113777224881e+16,2079075161227227.2,2789309162280627.0,14574443705328.475,37453042815160.8,839755430789704.1,2.4175252542856356e+16
25.91617852304095,1.2376662561443708e+16,4.303899871911788e+16,2087668380518454.0,2800837916471358.5,14985304899044.0,38509014655817.76,863432549922405.2,2.4856902991207096e+16
26.53450209350177,1.24268054138721e+16,4.383100783863287e+16,2096126367358604.5,2812185241379599.0,15405037784861.143,39587796288088.84,887621134757592.2,2.5553276847192036e+16
27.165192135371807,1.2476156131365302e+16,4.463746215676884e+16,2104450738609771.5,2823353306204389.0,15833807134517.805,40689811731670.84,912330693754507.6,2.6264647667968628e+16
27.808495978079243,1.2524724290182392e+16,4.545866427064829e+16,2112643109574368.5,2834344278052242.5,16271780961930.07,41815493364000.62,937570922809483.5,2.699129439570391e+16
28.464665897640828,1.2572519457481308e+16,4.6294922465179944e+16,2120705094019626.5,2845160321970069.5,16719130590710.178,42965282094845.78,963351709172305.8,2.7733501469850988e+16
29.133959215593645,1.2619551191215834e+16,4.714655083146502e+16,2128638304160238.5,2855803600921943.5,17176030722908.514,44139627544085.34,989683135434162.6,2.849155894146589e+16
29.816638399905518,1.2665829039806298e+16,4.801386938703424e+16,2136444350602823.2,2866276275714456.0,17642659508993.297,45338988222716.07,1016575483588017.0,2.926576258959096e+16
30.51297116790363,1.271136254160434e+16,4.889720419796072e+16,2144124842255646.0,2876580504875708.0,18119198619081.934,46563831717124.14,1044039239162244.5,3.0056414039726628e+16
31.223230591261704,1.2756161224171996e+16,4.9796887502910456e+16,2151681386206997.2,2886718444492106.5,18605833315439.793,47814634876663.14,1072085095428504.0,3.0863820884418748e+16
31.947695203086937,1.2800234603393124e+16,5.071325783917798e+16,2159115587575314.2,2896692248007302.0,19102752526261.508,49091884004578.836,1100723957684740.8,3.1688296805986628e+16
32.686649107148675,1.2843592182434794e+16,5.164666017076288e+16,2166429049334001.8,2906504065987116.0,19610148920750.844,50396075052326.1,1129966947614310.0,3.2530161701419572e+16
33.44038208929165,1.2886243450575366e+16,5.259744601853793e+16,2173623372113740.8,2916156045854397.5,20128218985515.84,51727713817321.11,1159825407722235.0,3.3389741809469496e+16
34.20918973107749,1.2928197881914538e+16,5.356597359256141e+16,2180700153984932.8,2925650331597062.0,20657163102296.727,53087316144175.91,1190310905849634.0,3.4267369839968836e+16
34.993373525699035,1.2969464933980432e+16,5.455260792658354e+16,2187660990222688.2,2934989063452874.5,21197185627043.41,54475408129463.19,1221435239767404.0,3.5163385105403696e+16
35.793240996213015,1.3010054046247108e+16,5.5557721014801624e+16,2194507473056822.2,2944174377573976.0,21748494970362.203,55892526330060.63,1253210441850265.2,3.607813365477309e+16
36.60910581613728,1.3049974638575716e+16,5.6581691950910856e+16,2201241191408904.2,2953208405674135.0,22311303679348.84,57339217975125.36,1285648783832278.0,3.70119684097653e+16
37.44128793246003,1.308923610959204e+16,5.762490706950514e+16,2207863730618517.2,2962093274661527.0,22885828520828.547,58816041181749.766,1318762781645059.2,3.7965249303285304e+16
38.29011369110923,1.3127847835010588e+16,5.868776008987694e+16,2214376672160673.0,2970831106259560.0,23472290566022.562,60323565174355.27,1352565200339886.2,3.893834342036585e+16
39.15591596493141,1.316581916591782e+16,5.977065226226787e+16,2220781593356157.0,2979424016618271.5,24070915276660.508,61862370507875.95,1387069059094905.5,3.993162514149619e+16
40.03903428423004,1.3203159427023072e+16,6.0873992516618936e+16,2227080067076510.2,2987874115918612.5,24681932592561.77,63433049294789.73,1422287636308734.2,4.094547628840475e+16
40.93981496991464,1.3239877914887294e+16,6.19981976138753e+16,2233273661445303.8,2996183507971544.5,25305577020704.38,65036205436056.74,1458234474781790.5,4.198028627233263e+16
41.85861126931294,1.3275983896138952e+16,6.3143692299890456e+16,2239363939537119.5,3004354289814297.0,25942087725805.926,66672454856022.0,1494923386986639.8,4.3036452244831464e+16
42.7957834946992,1.331148660568398e+16,6.4310909461987e+16,2245352459075679.5,3012388551305328.5,26591708622437.18,68342425741343.62,1532368460428763.0,4.41143792511295e+16
