t(s),Total solute volume 1,Total retention volume 1,Total 1 volume 1,Total 2 volume 1,Total 3 volume 1,Total 4 volume 1,Total 5 volume 1,Total 6 volume 1
0.1,941999071437344.5,1111941895936827.4,80338108873842.89,89604715625638.98,0.0,0.0,0.0,0.0
0.202,1312951764663300.5,1771466071081799.8,111974698609830.95,124890431721384.72,342437818429.0166,662354182938.2655,9700857209936.895,210943526875981.4
0.30604000000000003,1538952247459397.2,2341337356849680.0,131249082266910.56,146388021338513.88,810649469170.4697,1568153068257.6675,22967488531298.13,499401714716134.4
0.41216080000000005,1695322048812765.8,2876863669960139.0,144585034059610.84,161262209997478.75,1352723704524.2468,2617050585341.177,38330226391273.555,833394376409146.2
0.5204040160000001,1810983390269696.2,3397339450490751.0,154449177015561.9,172264133648297.97,1945720257292.89,3764714234927.0703,55139801999476.02,1198792513065495.5
0.6308120963200001,1900293822933681.8,3911784869833881.0,162065990590001.62,180759509463561.9,2577386872244.5396,4987475623167.757,73049591431482.19,1588051092919744.5
0.7434283382464002,1971413796931053.8,4425166327082477.5,168131436332838.22,187524574753363.44,3240510041015.743,6271408430072.977,91855652031342.67,1996728948562790.5
0.8582969050113283,2029394755838810.0,4940531984259134.0,173076325099656.1,193039832297896.4,3930582496539.9937,7607819021532.117,111430678774883.67,2422051990729816.0
0.9754628431115548,2077556058662886.8,5459908698463009.0,177183747431161.9,197621025746945.84,4644677782643.316,8991070742067.223,131692139402587.22,2862219978694732.5
1.094972099973786,2118178574921190.8,5984732408003305.0,180648226602513.56,201485115684049.9,5380850232383.261,10417423973623.607,152585286247241.78,3316036930342303.5
1.2168715419732616,2152885439518056.0,6516075342844113.0,183608191188964.7,204786497743680.38,6137791588737.347,11884372349853.045,174073434634544.8,3782699615820278.5
1.3412089728127268,2182864965632596.5,7054774963468529.0,186164986124905.97,207638206502904.38,6914623664164.924,13390241966084.316,196132093052159.88,4261669846525715.0
1.4680331522689813,2209007881592817.8,7601511412908734.0,188394576909648.62,210124969710025.53,7710767706899.955,14933938881358.16,218745265167469.16,4752594012940520.0
1.597393815314361,2231995323358710.0,8156856235060642.0,190355054020037.9,212311578294470.8,8525859184193.271,16514784422384.895,241903037771687.2,5255250598009152.0
1.729341691620648,2252357182427975.5,8721304213169152.0,192091609094153.94,214248436528930.88,9359690550911.293,18132404590559.016,265599961105928.7,5769514928870682.0
1.863928525453061,2270511911111787.0,9295294860691606.0,193639929712352.75,215975348381786.78,10212171848180.951,19786653939856.812,289833934041774.6,6295334911655852.0
2.001207095962122,2286794348079567.0,9879227336531862.0,195028572490541.6,217524164335083.56,11083302990495.773,21477562052823.28,314605420230578.56,6832713966352782.0
2.1412312378813647,2301475586389012.5,1.0473471050823452e+16,196280657519174.84,218920671268780.38,11973153906880.562,23205295202100.99,339916886659300.1,7381698799878209.0
2.284055862638992,2314777426647795.5,1.1078373369928628e+16,197415100996836.4,220185967272582.16,12881850075276.443,24970128440318.324,365772394940423.6,7942370501555391.0
2.4297369798917723,2326883066513643.0,1.169426532260834e+16,198447526881053.7,221337478451223.78,13809561832228.867,26772424990684.51,392177299529154.3,8514837964410353.0
2.578331719489608,2337945124518376.5,1.2321465900091494e+16,199390951197739.1,222389722165654.44,14756496371162.027,28612620837547.125,419138022100975.6,9099232962900018.0
2.7298983538794,2348091743828325.0,1.296028534864201e+16,200256302598568.03,223354887634168.0,15722891685240.29,30491213078708.723,446661881026001.75,9695706428790962.0
2.884496320956988,2357431291867364.0,1.3611027728243178e+16,201052823166929.4,224243282969356.06,16709011936618.764,32408751037819.066,474756961269783.75,1.0304425605995292e+16
3.0421862473761276,2366056018889473.0,1.4273992928730976e+16,201788380438190.34,225063683188391.03,17715143885494.516,34365829428248.848,503432014342724.7,1.0925571858558482e+16
3.2030299723236504,2374044934974172.5,1.4949478279420972e+16,202469712763393.53,225823603878222.78,18741594115915.277,36363083060030.46,532696380852068.56,1.1559338969777148e+16
3.3670905717701234,2381466093481620.0,1.563777985044199e+16,203102624053042.75,226529518402110.22,19788686867136.676,38401182720323.734,562559930244313.1,1.2205931814673442e+16
3.5344323832055258,2388378418989356.0,1.6339193517669608e+16,203692139672143.12,227187031776390.6,20856762329866.184,40480831955584.95,593033013757105.1,1.286556531918917e+16
3.7051210308696363,2394833182219773.0,1.7054015844556972e+16,204242632228949.78,227801020968347.7,21946175302769.535,42602764553291.13,624126427620120.8,1.3538463641663706e+16
3.879223451487029,2400875198923040.5,1.7782544820842644e+16,204757923821336.84,228375748936199.9,23057294130622.797,44767742571352.82,655851384280836.8,1.4224859528179264e+16
4.0568079205167695,2406543811085281.0,1.8525080488449776e+16,205241369718848.22,228914957963465.94,24190499864472.254,46976554800045.125,688219489968532.6,1.4924993805049116e+16
4.237944078927105,2411873695145474.0,1.9281925477794092e+16,205695927291232.34,229421946538069.72,25346185598160.207,49230015568345.77,721242727306238.5,1.56391149803466e+16
4.422702960505647,2416895531726307.5,2.005338547245152e+16,206124213126237.94,229899633058394.38,26524755945995.234,51528963826722.016,754933441975435.9,1.6367478932792432e+16
4.61115701971576,2421636563742374.5,2.0839769616181664e+16,206528550627704.72,230350608921582.1,27726626634176.543,53874262453551.66,789304332660173.0,1.7110348671142122e+16
4.803380160110075,2426121063959809.5,2.164139087331459e+16,206911009891249.75,230777182998684.53,28952224184516.035,56266797743839.54,824368443665270.0,1.7867994150871164e+16
4.9994477633122765,2430370728658656.0,2.245856635121909e+16,207273441277639.2,231181419080559.44,30201985673534.125,58707479047659.81,860139159731817.9,1.864069213774923e+16
5.199436718578522,2434405010643304.5,2.3291617591811904e+16,207617503813492.6,231565167554458.53,31476358553493.52,61197238532503.55,896630202671959.8,1.942872611004267e+16
5.403425452950093,2438241402204871.0,2.4140870837696492e+16,207944689323637.2,231930092319927.8,32775800524640.566,63737031048945.53,933855629521614.0,2.0232386192752836e+16
5.611493962009095,2441895676574880.0,2.5006657277453416e+16,208256343023415.66,232277693756342.97,34100779450030.387,66327834083126.68,971829831969661.6,2.1051969118596004e+16
5.823723841249277,2445382094787083.5,2.588931327375874e+16,208553681160836.78,232609328399991.12,35451773305971.66,68970647782758.65,1010567536869049.2,2.1887778211453052e+16
6.040198318074262,2448713583579612.5,2.678918057733885e+16,208837806188905.4,232926225866456.16,36829270162433.234,71666495045891.5,1050083807672502.2,2.274012338882303e+16
6.261002284435747,2451901888947381.0,2.770660652923907e+16,209109719861292.25,233229503456813.47,38233768188793.6,74416421663703.12,1090394046664940.6,2.36093211804561e+16
6.486222330124463,2454957709136237.0,2.8641944253451052e+16,209370334574701.94,233520178808279.25,39665775681145.63,77221496510175.66,1131513997888457.2,2.4495694760852104e+16
6.715946776726952,2457890810211578.0,2.959555284160272e+16,209620483225109.56,233799180887320.2,41125811108032.98,80082811772827.11,1173459750674531.8,2.5399573993723344e+16
6.950265712261491,2460710126801501.0,3.056779753113023e+16,209860927799604.66,234067359572523.06,42614403172033.414,83001483219699.7,1216247743713569.8,2.6321295486851336e+16
7.18927102650672,2463423850181067.0,3.1559049878125456e+16,210092366888638.8,234325494033342.34,44132090885037.19,85978650498667.98,1259894769604269.5,2.726120265603445e+16
7.433056447036854,2466039505511034.5,3.2569687925863024e+16,210315442273300.44,234574300077189.47,45679423655423.17,89015477465810.36,1304417979835451.5,2.8219645797044828e+16
7.681717575977592,2468564019753770.0,3.360009636985749e+16,210530744717509.25,234814436609721.88,47256961385625.68,92113152540163.4,1349834890161303.2,2.9196982164689464e+16
7.935351927497144,2471003781550432.5,3.465066672017204e+16,210738819074620.72,235046511330475.28,48865274578819.14,95272889082636.45,1396163386337814.0,3.019357605821721e+16
8.194058966047088,2473364694145616.0,3.5721797461595384e+16,210940168801088.16,235271085767151.16,50504944453642.76,98495925797255.83,1443421730193891.5,3.1209798912436744e+16
8.45794014536803,2475652222281576.5,3.681389421221419e+16,211135259955824.84,235488679736288.1,52176563066051.43,101783527153223.67,1491628566015191.2,3.2246029394006092e+16
8.72709894827539,2477871433847351.0,3.792736988083275e+16,211324524752235.3,235699775305000.72,53880733437506.19,105136983826542.84,1540802927222851.8,3.330265350244122e+16
9.0016409272409,2480027036953718.0,3.906264482363082e+16,211508364720143.47,235904820317621.0,55618069688833.18,108557613160185.22,1590964243332291.2,3.4380064675458068e+16
9.281673745785717,2482123413008820.5,4.0220147000397544e+16,211687153526634.75,236104231541912.94,57389197179167.27,112046759641962.34,1642132347180281.5,3.5478663898318804e+16
9.567307220701432,2484164646288432.0,4.140031213063176e+16,211861239497950.84,236298397481853.06,59194752649476.46,115605795399422.42,1694327482410616.5,3.65988598169041e+16
9.85865336511546,2486154550426685.5,4.260358384976561e+16,212030947878740.56,236487680897475.34,61035384370224.625,119236120711222.95,1747570311210771.8,3.774106885427043e+16
10.155826432417769,2488096692194894.0,4.383041386572952e+16,212196582860031.62,236672421066760.6,62911752292780.74,122939164534549.4,1801881922293599.0,3.8905715330486936e+16
10.458942961066125,2489994412887255.5,4.508126211605554e+16,212358429403103.22,236852935819883.9,64824528204235.336,126716385048243.22,1857283839119545.8,4.009323158557328e+16
10.768121820287448,2491850847590072.0,4.6356596925684664e+16,212516754882854.3,237029523372135.16,66774395885311.25,130569270211385.4,1913798028356123.0,4.130405810538684e+16
11.083484256693197,2493668942575255.0,4.765689516562809e+16,212671810571207.12,237202463978429.84,68762051271093.36,134499338337157.55,1971446908572418.2,4.253864365032248e+16
11.405153941827061,2495451471028505.0,4.89826424126117e+16,212823832978476.47,237372021429394.38,70788202614327.14,138508138681858.7,2030253359167332.0,4.379744538671171e+16
11.733257020663602,2497201047295724.5,5.0334333109817256e+16,212973045068372.6,237538444406516.88,72853570651052.8,142597252049016.1,2090240729531123.8,4.50809290208155e+16
12.067922161076874,2498920139808877.0,5.1712470728820824e+16,213119657360379.22,237701967711677.6,74958888768365.28,146768291408566.1,2151432848440417.8,4.638956893532243e+16
12.409280604298411,2500611082832686.0,5.3117567932813576e+16,213263868931567.1,237862813384517.94,77104903174097.62,151022902531140.56,2213854033687603.0,4.772384832827197e+16
12.75746621638438,2502276087156729.0,5.455014674118494e+16,213405868328464.84,238021191719490.1,79292373068244.36,155362764637504.62,2277529101945994.0,4.908425935432851e+16
13.112615540712067,2503917249842575.0,5.601073869553018e+16,213545834398344.9,238177302193027.53,81522070815944.17,159789591063247.66,2342483378872675.0,5.0471303268344344e+16
13.474867851526309,2505536563123178.5,5.749988502714347e+16,213683937048198.03,238331334310065.0,83794782121850.77,164305129938850.88,2408742709451381.0,5.188549057115003e+16
13.844365208556836,2507135922540051.5,5.90181368260442e+16,213820337938718.5,238483468378069.06,86111306205728.67,168911164885267.12,2476333468578162.0,5.332734115751818e+16
14.221252512727972,2508717134394644.0,6.0566055211578904e+16,213955191119784.3,238633876215822.34,88472455979109.42,173609515725198.38,2545282571892997.5,5.479738446625143e+16
14.605677562982532,2510281922581300.0,6.2144211504635944e+16,214088643613214.1,238782721803392.03,90879058222849.48,178402039210255.4,2615617486860788.0,5.6296159632344216e+16
14.997791114242183,2511831934862188.0,6.3753187401499464e+16,214220835947908.7,238930161879003.84,93331953765433.92,183290629764210.75,2687366244105434.5,5.782421564117526e+16
15.397746936527026,2513368748637521.5,6.539357514936909e+16,214351902651977.1,239076346487928.72,95831997661863.12,188277220242580.0,2760557449001303.0,5.938211148468591e+16
15.805701875257567,2514893876259279.5,6.706597772356253e+16,214481972705905.84,239221419487922.94,98380059372969.33,193363782708774.56,2835220293526107.0,6.0970416319501576e+16
16.221815912762718,2516408769930956.0,6.8771009006413336e+16,214611169960436.62,239365519015307.9,100977022944996.83,198552329227090.06,2911384568380045.5,6.25897096269546e+16
16.64625223101797,2517914826231795.0,7.050929396787384e+16,214739613522414.44,239508777915322.8,103623787189289.38,203844912672804.22,2989080675375878.0,6.424058137496631e+16
17.079177275638333,2519413390299933.0,7.228146884782483e+16,214867418111541.88,239651324140029.3,106321265861912.86,209243627559680.28,3068339640105140.5,6.5923632181746616e+16
17.5207608211511,2520905759705095.0,7.408818134009371e+16,214994694390667.88,239793281116695.12,109070387843047.27,214750610885175.4,3149193124885696.0,6.763947348126737e+16
17.97117603757412,2522393188038939.5,7.59300907781731e+16,215121549271981.78,239934768089310.56,111872097315972.39,220368042993672.12,3231673441996189.5,6.938872769046709e+16
18.430599558325603,2523876888247788.5,7.780786832263149e+16,215248086201249.03,240075900435605.12,114727353945469.8,226098148458060.75,3315813567203140.0,7.11720283781402e+16
18.899211549492115,2525358035730423.5,7.972219715020277e+16,215374405422003.94,240216789961716.34,117637133055455.2,231943196980014.66,3401647153586515.5,7.299002043546691e+16
19.37719578048196,2526837771221310.5,8.167377264453634e+16,215500604221445.16,240357545176447.06,120602425805650.6,237905504309308.56,3489208545670092.5,7.484336024813218e+16
19.864739696091597,2528317203477675.0,8.366330258858248e+16,215626777159601.5,240498271546863.66,123624239367102.78,243987433182541.8,3578532793862745.0,7.673271586998574e+16
20.36203449001343,2529797411787066.5,8.569150735859152e+16,215753016283189.4,240639071736822.97,126703597096339.95,250191394281639.1,3669655669217367.5,7.865876719818933e+16
20.869275179813698,2531279448310589.5,8.775912011969414e+16,215879411325454.34,240780045829862.06,129841538707961.17,256519847212518.22,3762613678514043.5,8.062220614979371e+16
21.38666068340997,2532764340275485.5,8.986688702302387e+16,216006049893166.47,240921291537765.78,133039120445435.0,262975301504311.2,3857444079674410.5,8.262373683969328e+16
21.91439389707817,2534253092029618.0,9.201556740434922e+16,216133017641831.53,241062904395983.3,136297415249884.42,269560317629546.56,3954184897514467.5,8.466407575988786e+16
22.452681775019734,2535746686969042.0,9.420593398416594e+16,216260398440090.5,241204977946994.9,139617512926624.72,276277508045711.5,4052874939842883.5,8.674395195999485e+16
23.00173541052013,2537246089349245.0,9.643877306920592e+16,216388274524182.6,241347603912588.38,143000520309204.4,283129538258610.6,4153553813912614.5,8.88641072289396e+16
23.561770118730532,2538752245989228.0,9.871488475530358e+16,216516726643284.56,241490872355964.66,146447561420704.0,290119127907965.94,4256261943233345.5,9.10252962777531e+16
24.133005521105144,2540266087877243.0,1.0103508313156995e+17,216645834196453.03,241634871834473.03,149959777632027.5,297249051875689.2,4361040584752755.5,9.32282869234013e+16
24.715665631527248,2541788531685979.0,1.0340019648580498e+17,216775675361843.16,241779689543737.28,153538327816911.28,304522141417301.2,4467931846414680.5,9.547386027356437e+16
25.309978944157795,2543320481204329.5,1.0581106751108632e+17,216906327218820.94,241925411453853.16,157184388503375.12,311941285316940.7,4576978705102515.0,9.776281091228638e+16
25.91617852304095,2544862828692479.5,1.082685535134571e+17,217037865863529.06,242072122438281.97,160899154021317.75,319509431066454.6,4688225024976354.0,1.000959470863986e+17
26.53450209350177,2546416456166253.0,1.1077352662063886e+17,217170366518424.56,242219906396022.06,164683836645951.28,327229586069048.9,4801715576212648.0,1.024740908926306e+17
27.165192135371807,2547982236616293.5,1.1332687399168518e+17,217303903636254.6,242368846367583.06,168539666736775.06,335104818867989.8,4917496054155215.0,1.0489807846530515e+17
27.808495978079243,2549561035167299.0,1.1592949802748667e+17,217438550998919.47,242519024645245.7,172467892871734.25,343138260400864.3,5035613098886865.0,1.0736876016451602e+17
28.464665897640828,2551153710181758.5,1.1858231658203443e+17,217574381811608.78,242670522878062.72,176469781976260.03,351333105279919.8,5156114315230813.0,1.0988700076467592e+17
29.133959215593645,2552761114312853.0,1.2128626317433888e+17,217711468792592.5,242823422171999.66,180546619446811.94,359692613098996.3,5279048293191925.0,1.124536796433238e+17
29.816638399905518,2554384095510141.5,1.2404228720090214e+17,217849884258996.84,242977803185611.53,184699709268579.62,368220109767593.75,5404464628846749.0,1.1506969097006458e+17
30.51297116790363,2556023497982073.5,1.2685135414862667e+17,217989700208887.62,243133746221587.4,188930374126960.94,376918988872614.2,5532413945693325.0,1.1773594389552139e+17
31.223230591261704,2557680163118465.0,1.2971444580804347e+17,218130988399943.3,243291331314504.25,193239955512428.1,385792713068339.44,5662947916470272.0,1.2045336274015958e+17
31.947695203086937,2559354930376176.0,1.3263256048673302e+17,218273820424991.12,243450638315072.5,197629813818384.78,394844815495200.1,5796119285455985.0,1.2322288718284694e+17
32.686649107148675,2561048638130986.0,1.356067132228069e+17,218418267784658.97,243611746971167.75,202101328431603.53,404078901227917.7,5931981891258565.0,1.2604547244900182e+17
33.44038208929165,2562762124498201.5,1.3863793599830974e+17,218564401957360.88,243774737005889.5,206655897814798.5,413498648753597.5,6070590690107354.0,1.2892208949817253e+17
34.20918973107749,2564496228124673.0,1.4172727795239334e+17,218712294466843.72,243939688192899.62,211294939580920.2,423107811480374.5,6212001779657393.0,1.3185372521089024e+17
34.993373525699035,2566251788954455.0,1.448758055941095e+17,218862016947483.75,244106680429248.8,216019890558686.4,432910219277205.56,6356272423317906.0,1.348413825746247e+17
35.793240996213015,2568029648970256.0,1.4808460301465853e+17,219013641207525.03,244275793805912.1,220832206848901.38,442909780045430.06,6503461075116842.0,1.3788608086866374e+17
36.60910581613728,2569830652912793.5,1.5135477209891984e+17,219167239290427.84,244447108676209.53,225733363871068.94,453110481322715.1,6653627405113135.0,1.409888558477337e+17
37.44128793246003,2571655648979860.0,1.5468743273609226e+17,219322883534486.56,244620705722305.44,230724856399799.56,463516391920028.9,6806832325368697.0,1.4415075992416752e+17
38.29011369110923,2573505489506884.5,1.5808372302924803e+17,219480646630874.16,244796666019942.3,235808198590503.44,474131663592263.6,6963138016492892.0,1.4737286234841437e+17
39.15591596493141,2575381031630593.5,1.6154479950360794e+17,219640601680240.2,244975071101573.72,240984923993834.62,484960532743187.06,7122607954771651.0,1.506562493876871e+17
40.03903428423004,2577283137937401.5,1.650718373133369e+17,219802822248008.5,245156003018034.8,246256585558344.28,496007322165350.2,7285306939894523.0,1.5400202450251533e+17
40.93981496991464,2579212677097824.5,1.6866603044663242e+17,219967382418486.06,245339544398894.53,251624755620788.12,507276442815656.44,7451301123292506.0,1.57411308520988e+17
41.85861126931294,2581170524488467.0,1.723285919288957e+17,220134356847903.28,245525778511614.88,257091025883503.03,518772395627233.9,7620658037100062.0,1.6088523981043674e+17
42.7957834946992,2583157562802589.5,1.760607540237412e+17,220303820816491.6,245714789319633.62,262657007378278.25,530499773358317.4,7793446623755107.0,1.6442497444631075e+17
