t(s),Total solute volume 1,Total retention volume 1,Total 1 volume 1,Total 2 volume 1,Total 3 volume 1,Total 4 volume 1,Total 5 volume 1,Total 6 volume 1
0.1,1277535415264620.8,2216485712870468.2,368078767489456.25,570871530116391.1,0.0,0.0,0.0,3.710125213445117e-74
0.202,1920549353287484.8,3334071436350463.0,553341570979032.6,858204829863440.2,550909192.596887,1769105613.6361868,55251995748.977264,1918110209949.0815
0.30604000000000003,2410655698982313.0,4187438994798562.0,694549198649321.2,1077210737536512.6,1396808720.1642456,4485523033.778167,140124413372.94974,4877352885287.279
0.41216080000000005,2824923867231168.5,4910087227428469.0,813906610595136.2,1262328059505980.0,2479881560.043544,7963574974.034845,248800882616.58063,8669445757043.216
0.5204040160000001,3192480811910711.5,5552456474961170.0,919805757474848.2,1426572290647146.5,3774300413.9607253,12120321224.081165,378687699262.5639,13203032607560.275
0.6308120963200001,3527867477696256.5,6139724194231216.0,1016436122577210.8,1576441108767352.8,5266108035.628043,16910940630.687328,528383609333.45807,18428924532396.473
0.7434283382464002,3839541943230664.0,6686535624971106.0,1106234616261113.0,1715714039050101.5,6947228230.344292,22309498035.78868,697077870927.7311,24318691832044.074
0.8582969050113283,4132924365719942.0,7202277696077612.0,1190762874179548.0,1846813099652997.0,8813002266.55198,28301032836.459953,884302821267.4829,30855939668755.367
0.9754628431115548,4411729141448559.0,7693385869909223.0,1271091074452323.2,1971398082857411.8,10860974016.349632,34877657672.1934,1089811895069.9841,38032020624175.61
1.094972099973786,4678630416398429.0,8164496340542499.0,1347989682127855.5,2090663941079336.5,13090216568.256529,42036395964.26549,1313512020751.425,45843662303595.8
1.2168715419732616,4935627665115351.0,8619078834168645.0,1422034778415276.2,2205504147202843.5,15500927148.233355,49777881080.78561,1555422956551.1738,54291541670394.71
1.3412089728127268,5184261404498176.0,9059809928712450.0,1493670211343971.0,2316607087120673.0,18094168299.500484,58105525185.4597,1815651310318.356,63379374745841.91
1.4680331522689813,5425747805457793.0,9488805974249168.0,1563246379577037.8,2424516211473369.0,20871694736.6069,67024963213.27906,2094373159921.6365,73113307923078.92
1.597393815314361,5661066564865313.0,9907775113773920.0,1631045549752047.8,2529669301567939.5,23835833294.972374,76543667352.25204,2391822003498.0166,83501496084466.3
1.729341691620648,5891020432769011.0,1.0318120251409964e+16,1697299007242599.8,2632425069343853.5,26989397316.83245,86670672111.02106,2708280166367.712,94553801818707.12
1.863928525453061,6116276809900802.0,1.0721010997050496e+16,1762199041078049.5,2733081745378864.0,30335624227.048748,97416373856.22476,3044072535637.9556,106281576159060.78
2.001207095962122,6337397593697944.0,1.1117435280858478e+16,1825907543068845.0,2831890415698478.0,33878129227.637268,108792382111.96574,3399561912689.5405,118697495969183.33
2.1412312378813647,6554861085084843.0,1.1508237235074998e+16,1888562319507465.2,2929064810905630.5,37620870504.249275,120811407827.6489,3775145521130.259,131815441777607.27
2.284055862638992,6769078389148700.0,1.1894145553351456e+16,1950281816470420.2,3024788634885561.0,41568122850.92777,133487178679.44588,4171252359686.6514,145650405185547.84
2.4297369798917723,6980405908787260.0,1.2275795094240144e+16,2011168719441799.8,3119221147640301.5,45724457580.43919,146834374556.64114,4588341185968.552,160218418352673.88
2.578331719489608,7189155009558154.0,1.2653743594096936e+16,2071312737913917.2,3212501484063711.5,50094727215.98498,160868578402.43112,5026898980127.914,175536500275399.8
2.7298983538794,7395599599417965.0,1.302848477575606e+16,2130792789233686.0,3304752040976951.5,54684053881.846565,175606238933.11487,5487439779767.009,191622616054882.06
2.884496320956988,7599982146739911.0,1.3400458758173536e+16,2189678732491599.0,3396081166302816.5,59497820600.0337,191064642689.34427,5970503806510.53,208495646369411.38
3.0421862473761276,7802518511671168.0,1.3770060415623876e+16,2248032760514518.8,3486585317976239.5,64541664902.7916,207261893524.295,6476656825010.452,226175365078523.34
3.2030299723236504,8003401864007384.0,1.4137646158794604e+16,2305910528669207.5,3576350814661608.5,69821474315.46837,224216898098.14056,7006489689670.188,244682423394328.62
3.3670905717701234,8202805889510947.0,1.4503539486882644e+16,2363362078654857.0,3665455268508326.0,75343383369.09915,241949356284.9115,7560618044899.615,264038339423951.75
3.5344323832055258,8400887435947135.0,1.486803557219661e+16,2420432600869251.5,3753968767542269.0,81113771879.21979,260479755645.61362,8139682152455.896,284265492157978.25
3.7051210308696363,8597788713565940.0,1.5231405075569516e+16,2477163068403427.5,3841954858959491.0,87139264284.95596,279829369306.21716,8744346825199.859,305387119181873.75
3.879223451487029,8793639138024619.0,1.559389734466306e+16,2533590768017730.0,3929471372643239.5,93426729885.86868,300020256718.631,9375301450957.11,327427317539905.94
4.0568079205167695,8988556883945685.0,1.5955743113011936e+16,2589749747747165.0,4016571115377324.0,99983283847.20111,321075266889.25665,10033260093501.602,350411047297530.6
4.237944078927105,9182650202469684.0,1.6317156792010026e+16,2645671196509829.5,4103302459599600.0,106816288869.75331,343018043741.87445,10718961660246.732,374364137438062.25
4.422702960505647,9376018544925642.0,1.6678338428617226e+16,2701383767854720.0,4189709845518446.5,113933357440.54018,365873033345.635,11433170128229.725,399313293799406.2
4.61115701971576,9568753526148598.0,1.7039475386713124e+16,2756913857509165.0,4275834211574845.5,121342354596.04767,389665492789.1497,12176674821545.607,425286108811600.5
4.803380160110075,9760939754338286.0,1.7400743798556736e+16,2812285842474660.0,4361713365267982.0,129051401142.30074,414421500521.5886,12950290734633.246,452311072839497.0
4.9994477633122765,9952655549187754.0,1.776230982388472e+16,2867522287931443.0,4447382304053757.0,137068877285.87498,440167968013.4457,13754858896809.115,480417586969648.6
5.199436718578522,1.0143973565954998e+16,1.8124330747174176e+16,2922644127043678.5,4532873494213520.0,145403426637.93027,466932652615.2255,14591246774244.562,509635977108462.25
5.403425452950093,1.0334961339943744e+16,1.8486955938054096e+16,2977670817833259.5,4618217114157489.0,154063960559.8064,494744171513.0012,15460348706228.043,539997509281268.25
5.611493962009095,1.0525681763305014e+16,1.885032769543746e+16,3032620480554108.0,4703441267485311.0,163059662823.9543,523632016696.65375,16363086373081.988,571534406040427.9
5.823723841249277,1.071619350402224e+16,1.9214581992406644e+16,3087510018408622.5,4788572170211165.0,172399994568.28806,553626570870.3772,17300409293533.889,604279863905622.9
6.040198318074262,1.0906551375290676e+16,1.9579849136030384e+16,3142355223971866.5,4873634315822407.0,182094699525.5695,584759124246.4515,18273295349697.523,638268071771977.9
6.261002284435747,1.109680666215915e+16,1.9946254353973876e+16,3197170873302461.5,4958650621240609.0,192153809512.37683,617061892172.6268,19282751338113.625,673534230231864.4
6.486222330124463,1.1287007411208196e+16,2.031391831787118e+16,3251970809403498.0,5043642556265415.0,202587650164.6269,650568033551.3163,20329813545542.82,710114571764838.5
6.715946776726952,1.1477198688138778e+16,2.068295761187856e+16,3306768016438106.0,5128630258679044.0,213406846908.67218,685311670015.3064,21415548348409.21,748046381757240.8
6.950265712261491,1.1667422807406052e+16,2.1053485153546644e+16,3361574685890625.5,5213632636858999.0,224622331158.66754,721327905830.1364,22541052834961.35,787368020319023.4
7.18927102650672,1.1857719537416654e+16,2.1425610573090156e+16,3416402275687341.0,5298667461471244.0,236245346732.3548,758652848497.9215,23707455449362.74,828118944870305.0
7.433056447036854,1.2048126284298372e+16,2.1799440556248324e+16,3471261563143494.5,5383751447588420.0,248287456478.60516,797323630041.2213,24915916657043.86,870339733474460.2
7.681717575977592,1.223867825682238e+16,2.217507915519529e+16,3526162692480084.5,5468900328385946.0,260760549111.07645,837378428948.8545,26167629630749.94,914072108898064.2
7.935351927497144,1.2429408614699712e+16,2.2552628071336012e+16,3581115217550474.5,5554128921408934.0,273676846243.20856,878856492768.319,27463820956805.375,959358963381091.1
8.194058966047088,1.2620348602171404e+16,2.293218691330405e+16,3636128140329917.0,5639451188267342.0,287048909620.51196,921798161331.8077,28805751361188.9,1006244384103280.9
8.45794014536803,1.2811527668555026e+16,2.3313853433033776e+16,3691209945646948.5,5724880288502765.0,300889648546.71014,966244890604.8247,30194716455076.01,1054773679334810.8
8.72709894827539,1.3002973577193988e+16,2.369772374240569e+16,3746368632573467.0,5810428628272776.0,315212327500.8559,1012239277148.0825,31632047499557.55,1104993405261219.2
9.0016409272409,1.3194712504069982e+16,2.4083892512643548e+16,3801611742836631.0,5896107904416371.0,330030573942.93195,1059825083184.7767,33119112189288.926,1156951393474150.0
9.281673745785717,1.3386769127181606e+16,2.4472453158368944e+16,3856946386570188.5,5981929144392942.0,345358386305.90045,1109047262266.6245,34657315454861.258,1210696779120748.0
9.567307220701432,1.3579166707655192e+16,2.4863498007983532e+16,3912379265683961.5,6067902742527253.0,361210142172.4062,1159951985532.95,36248100283719.086,1266280029705718.8
9.85865336511546,1.3771927163439072e+16,2.52571184618508e+16,3967916695096259.0,6154038492939767.0,377600606634.67737,1212586668558.1455,37892948559477.266,1323752974541030.8
10.155826432417769,1.396507113632967e+16,2.565340513957057e+16,4023564622045246.5,6240345619497610.0,394544940836.34985,1266999998783.3704,39593381919507.5,1383168834838937.5
10.458942961066125,1.4158618052992612e+16,2.6052448017494508e+16,4079328643670096.0,6326832803082068.0,412058710695.1466,1323241963529.1348,41350962630693.02,1444582254444808.5
10.768121820287448,1.4352586180565554e+16,2.645433655749592e+16,4135214023031069.5,6413508206434970.0,430157895805.5028,1381363878585.7742,43167294483255.0,1508049331206676.8
11.083484256693197,1.454699267736391e+16,2.685915982789667e+16,4191225703718690.5,6500379496816664.0,448858898520.3541,1441418417379.38,45044023702575.74,1573627648978949.8
11.405153941827061,1.4741853639153808e+16,2.7267006617353704e+16,4247368323185703.0,6587453866683307.0,468178553211.39606,1503459640710.8806,46982839878950.055,1641376310258031.5
11.733257020663602,1.493718414140637e+16,2.767796554242191e+16,4303646224921224.5,6674738052568360.0,488134135707.2209,1567543027066.47,48985476915203.734,1711355969447986.8
12.067922161076874,1.5132998277903596e+16,2.8092125149434064e+16,4360063469573768.0,6762238352333739.0,508743372908.7982,1633725503497.563,51053713992127.25,1783628866754448.0
12.409280604298411,1.532930919602805e+16,2.850957401127245e+16,4416623845118708.5,6849960640939147.0,530024452581.78577,1702065477068.7576,53189376551674.59,1858258862705240.2
12.75746621638438,1.5526129129034362e+16,2.893040081954787e+16,4473330876156292.0,6937910384862802.0,551996033325.2307,1772622866872.2368,55394337297880.93,1935311473296308.8
13.112615540712067,1.57234694255716e+16,2.9354694472650844e+16,4530187832417474.0,7026092655293490.0,574677254716.1865,1845459136607.2844,57670517215455.555,2014853905761492.2
13.474867851526309,1.592134057669807e+16,2.978254416009392e+16,4587197736547348.0,7114512140202373.0,598087747629.8167,1920637327723.3567,60019886606005.02,2096955094964809.2
13.844365208556836,1.6119752240608378e+16,3.0214039443523468e+16,4644363371229396.0,7203173155392196.0,622247644734.55,1998222093125.3887,62444466141842.41,2181685740413804.5
14.221252512727972,1.63187132652709e+16,3.0649270334744292e+16,4701687285707734.0,7292079654613112.0,647177591161.7656,2078279731439.7869,64946327937336.24,2269118343892592.0
14.605677562982532,1.6518231709156002e+16,3.1088327371068164e+16,4759171801759189.0,7381235238825083.0,672898755349.604,2160878221839.5283,67527596637752.28,2359327247712945.5
14.997791114242183,1.6718314860219278e+16,3.153130168826956e+16,4816819019162781.0,7470643164680546.0,699432840060.3071,2246087259426.764,70190450525533.13,2452388673581944.0
15.397746936527026,1.6918969253289358e+16,3.1978285091405996e+16,4874630820709366.0,7560306352294332.0,726802093570.5873,2333978291171.1313,72937122643964.92,2548380762084233.0
15.805701875257567,1.712020068599717e+16,3.2429370123738704e+16,4932608876791103.0,7650227392361703.0,755029321034.3969,2424624552401.789,75769901938169.14,2647383612777152.0
16.221815912762718,1.7322014233372064e+16,3.288465013396932e+16,4990754649606871.0,7740408552680591.0,784137896017.4843,2518101103851.3174,78691134413357.45,2749479324896567.0
16.64625223101797,1.7524414261219682e+16,3.334421934198891e+16,5049069397016650.0,7830851784129634.0,814151772203.0253,2614484869249.0215,81703224310278.22,2854752038671197.5
17.079177275638333,1.7727404438387702e+16,3.3808172903321828e+16,5107554176075489.0,7921558726149199.0,845095495267.5917,2713854673461.493,84808635297785.83,2963287977242905.5
17.5207608211511,1.7930987748017042e+16,3.4276606972430204e+16,5166209846275124.0,8012530711768878.0,876994214926.694,2816291281177.731,88009891682447.89,3075175489190586.0
17.97117603757412,1.813516649786866e+16,3.474961876503301e+16,5225037072519293.0,8103768772222293.0,909873697148.9879,2921877436136.1587,91309579635109.5,3190505091654413.5
18.430599558325603,1.833994232980985e+16,3.5227306619582324e+16,5284036327856983.0,8195273641185789.0,943760336538.2778,3030697900890.6035,94710348434322.78,3309369514057912.0
18.899211549492115,1.8545316228537464e+16,3.5709770058026428e+16,5343207895995594.0,8287045758676733.0,978681168882.364,3142839497112.182,98214911726544.12,3431863742424166.5
19.37719578048196,1.8751288529610276e+16,3.619710984598458e+16,5402551873615330.0,8379085274642598.0,1014663883867.6711,3258391146423.7524,101826048803000.38,3558085064283048.5
19.864739696091597,1.895785892685835e+16,3.668942805244272e+16,5462068172503880.0,8471392052271943.0,1051736837958.6187,3377443911763.617,105546605893113.33,3688133114165713.5
20.36203449001343,1.9165026479231656e+16,3.718682810907961e+16,5521756521529598.0,8563965671054764.0,1089929067440.5844,3500091039274.692,109379497474372.98,3822109919682516.5
20.869275179813698,1.9372789617147972e+16,3.768941486931869e+16,5581616468470468.0,8656805429618967.0,1129270301625.2983,3626428000715.5034,113327707598537.58,3960119948180421.5
21.38666068340997,1.95811461483942e+16,3.819729466719871e+16,5641647381714467.0,8749910348367631.0,1169790976217.4229,3756552536389.022,117394291234044.12,4102270153975675.5
21.91439389707817,1.9790093263635224e+16,3.871057537614918e+16,5701848451846516.0,8843279171940311.0,1211522246841.092,3890564698585.2515,121582375624496.2,4248670026157343.5
22.452681775019734,1.999962754157682e+16,3.922936646775235e+16,5762218693136276.0,8936910371520508.0,1254496002725.0085,4028566895533.427,125895161663100.56,4399431636957346.5
23.00173541052013,2.020974495383252e+16,3.975377907056438e+16,5822756944940156.0,9030802147010090.0,1298744880544.8674,4170663935859.464,130335925282921.1,4554669690682264.0
23.561770118730532,2.0420440869534984e+16,4.028392602907218e+16,5883461873030057.0,9124952429090082.0,1344302278421.6663,4316963073544.266,134908018862806.58,4714501573202260.0
24.133005521105144,2.0631710059736584e+16,4.081992196284911e+16,5944331970861121.0,9219358881186996.0,1391202370074.4849,4467574053378.429,139614872648858.7,4879047401992095.0
24.715665631527248,2.08435467016368e+16,4.136188332597574e+16,6005365560789883.0,9314018901362038.0,1439480119126.4275,4622609156908.913,144459996191295.22,5048430076719624.0
25.309978944157795,2.1055944382675976e+16,4.190992846678548e+16,6066560795253640.0,9408929624140182.0,1489171293562.1624,4782183248872.872,149446979796567.47,5222775330376736.0
25.91617852304095,2.12688961045303e+16,4.246417768799382e+16,6127915657921454.0,9504087922295452.0,1540312480335.7937,4946413824114.369,154579495994593.06,5402211780947577.0
26.53450209350177,2.1482394287042984e+16,4.302475330726304e+16,6189427964826848.0,9599490408607644.0,1592941100127.5186,5115421054979.486,159861301020956.44,5586870983609467.0
27.165192135371807,2.169643077212459e+16,4.359177971825804e+16,6251095365491520.0,9695133437605060.0,1647095422247.7866,5289327839184.975,165296236313943.03,5776887483461445.0
27.808495978079243,2.191099682765423e+16,4.416538345224104e+16,6312915344049313.0,9791013107307828.0,1702814579687.535,5468259848156.653,170888230026273.78,5972398868775578.0
28.464665897640828,2.2126083151411156e+16,4.474569324025343e+16,6374885220379133.0,9887125260984920.0,1760138584313.241,5652345575832.891,176641298551399.3,6173545824766674.0
29.133959215593645,2.2341679875067356e+16,4.533284007593019e+16,6437002151254988.0,9983465488937896.0,1819108342205.4312,5841716387929.314,182559548064231.47,6380472187875570.0
29.816638399905518,2.255777656826662e+16,4.592695727899113e+16,6499263131521567.0,1.0080029130324018e+16,1879765669139.5823,6036506571660.966,188647176076197.12,6593325000561861.0
30.51297116790363,2.2774362242819884e+16,4.652818055945191e+16,6561664995302645.0,1.017681127503065e+16,1942153306208.1394,6236853385918.082,194908473004494.5,6812254566602100.0
31.223230591261704,2.299142535703915e+16,4.713664808259404e+16,6624204417250080.0,1.0273806765612176e+16,2006314935582.7627,6442897111892.338,201347823755445.4,7037414506889630.0
31.947695203086937,2.320895382023777e+16,4.775250053473378e+16,6686877913840205.0,1.0371010199300714e+16,2072295196415.7515,6654781104150.764,207969709321866.25,7268961815732698.0
32.686649107148675,2.342693499741891e+16,4.837588118983022e+16,6749681844724706.0,1.0468415930101274e+16,2140139700879.9553,6872651842154.386,214778708394358.78,7507056917647877.0
33.44038208929165,2.3645355714175376e+16,4.900693597696462e+16,6812612414142383.0,1.0566018070981342e+16,2209895050346.378,7096658982219.753,221779498986465.16,7751863724646420.0
34.20918973107749,2.3864202261823176e+16,4.964581354873223e+16,6875665672398120.0,1.0663810496164636e+16,2281608851699.099,7326955409921.6,228976860073632.22,8003549694011116.0
34.993373525699035,2.4083460402788684e+16,5.029266535057781e+16,6938837517415157.0,1.076178684353856e+16,2355329733787.0586,7563697292935.572,236375673245949.53,8262285886562806.0
35.793240996213015,2.4303115376270384e+16,5.094764569110913e+16,7002123696366230.0,1.0859940517184186e+16,2431107364012.561,7807044134320.524,243980924374642.22,8528247025415235.0
36.60910581613728,2.452315190419448e+16,5.161091181342317e+16,7065519807389406.0,1.0958264690037242e+16,2508992465056.576,8057158826240.478,251797705292334.06,8801611555218382.0
37.44128793246003,2.4743554197480236e+16,5.228262396747595e+16,7129021301393449.0,1.1056752306688316e+16,2589036831741.119,8314207704127.082,259831215487086.3,9082561701890912.0
38.29011369110923,2.4964305962636444e+16,5.2962945483526904e+16,7192623483958139.0,1.1155396086329932e+16,2671293348029.0767,8578360601284.41,268086763810287.8,9371283532842866.0
39.15591596493141,2.5185390408700988e+16,5.365204284669099e+16,7256321517333832.0,1.1254188525857964e+16,2755816004162.4155,8849790903938.307,276569770198449.38,9667967017691540.0
40.03903428423004,2.5406790254542572e+16,5.435008577262485e+16,7320110422545133.0,1.1353121903134244e+16,2842659913939.731,9128675606733.615,285285767409020.25,9972806089473186.0
40.93981496991464,2.56284877365367e+16,5.505724728438184e+16,7383985081602515.0,1.1452188280416622e+16,2931881332134.367,9415195368683.998,294240402770358.1,1.0285998706354952e+16
41.85861126931294,2.5850464616630944e+16,5.5773703790460536e+16,7447940239825979.0,1.1551379507962954e+16,3023537672054.986,9709534569579.068,303439439946010.75,1.0607746913852976e+16
42.7957834946992,2.6072702190811868e+16,5.649963516407703e+16,7511970508284523.0,1.1650687227814618e+16,3117687523250.329,10011881366855.635,312888760713516.75,1.0938256907562456e+16
