t(s),Total solute volume 1,Total retention volume 1,Total 1 volume 1,Total 2 volume 1,Total 3 volume 1,Total 4 volume 1,Total 5 volume 1,Total 6 volume 1
0.1,1252217186918146.0,2056959543180943.2,321479351742078.75,483263004520719.3,0.0,0.0,0.0,0.0
0.202,1877558610427771.0,3101666368085420.5,482022081742001.94,724598496422437.1,5675088782.543989,17369362591.48266,505344288695.9076,16958790753140.754
0.30604000000000003,2349775217710913.5,3904157475609514.5,603253361986287.5,906839123378986.5,14346706035.95877,43910184730.729805,1277735954213.9229,42953779688344.59
0.41216080000000005,2745278604217605.5,4587997378194878.0,704790201201886.0,1059474127833730.0,25394185571.08113,77722751394.02353,2261797352070.926,76089530652616.03
0.5204040160000001,3092955562915250.0,5199744592626456.0,794048651643451.1,1193651674038909.8,38530537297.16703,117928678956.2522,3431952189674.738,115500292622925.0
0.6308120963200001,3407246986322428.0,5762613992290056.0,874736096508106.8,1314944877100243.0,53592482192.95992,164028227534.34833,4773652352213.57,160694759297333.3
0.7434283382464002,3696563241859609.0,6290104271281060.0,949011713596970.0,1426599515866877.2,70477838702.96268,215708657512.12204,6277794450261.241,211365819011126.25
0.8582969050113283,3966298998844017.5,6790869831152323.0,1018260466205431.8,1530697533050817.2,89119693649.95876,272765174516.6321,7938417655461.555,267312530528432.22
0.9754628431115548,4220153332698892.0,7270849544977276.0,1083432010998745.8,1628666497713653.0,109473622717.51514,335061815364.5779,9751564867668.465,328401603260238.44
1.094972099973786,4460789851831908.5,7734329041823538.0,1145210171144630.8,1721534365354403.5,131510578409.58084,402509680417.8246,11714648995034.508,394545984238727.94
1.2168715419732616,4690199687792120.0,8184523637232313.0,1204106126093379.2,1810069565223961.8,155212590573.9834,475053774307.38525,13826069870898.006,465691921887067.75
1.3412089728127268,4909915904065276.0,8623921962071893.0,1260513456344290.0,1894863746237554.0,180570002223.1173,552664545707.5245,16084967975386.186,541810652901465.5
1.4680331522689813,5121147434019691.0,9054500199306802.0,1314742529082309.5,1976383467099621.2,207579605784.6148,635332183032.5645,18491058386909.984,622892798929441.5
1.597393815314361,5324866605776023.0,9477861812516554.0,1367042968273006.8,2055003974419330.8,236243337938.88702,723062619784.5303,21044514502916.047,708944443587561.9
1.729341691620648,5521868497736991.0,9895332125978708.0,1417618892895896.8,2131032109547577.2,266567337001.92004,815874649532.0719,23745884062005.492,799984299749710.0
1.863928525453061,5712812460989029.0,1.0308024368133176e+16,1466639576912391.8,2204722333147665.8,298561244538.502,913797788397.7816,26596026925575.996,896041611125565.4
2.001207095962122,5898251944135685.0,1.0716887026050412e+16,1514247106139076.5,2276288235371262.5,332237676720.7428,1016870657079.4971,29596067982536.676,997154564088050.9
2.1412312378813647,6078656409010170.0,1.1122738583371776e+16,1560562004627284.8,2345910993699666.0,367611816843.23395,1125139733691.8665,32747360848054.46,1103369063636049.1
2.284055862638992,6254427756826378.0,1.152629351494582e+16,1605687451717903.8,2413745712221029.5,404701096322.88916,1238658377430.2175,36051459445446.484,1214737775261327.5
2.4297369798917723,6425912855983416.0,1.1928182082080802e+16,1649712498281019.5,2479926256434719.0,443524941630.86237,1357486054030.7925,39510095461940.45,1331319364924041.0
2.578331719489608,6593413245162167.0,1.232896564267146e+16,1692714557773619.5,2544568997927601.5,484104571229.0172,1481687714278.5347,43125160259287.445,1453177889263286.5
2.7298983538794,6757192752721763.0,1.2729148657858422e+16,1734761362352841.5,2607775754896514.5,526462831033.6304,1611333290434.2512,46898690216702.56,1580382301549117.0
2.884496320956988,6917483554239196.0,1.3129188226341744e+16,1775912518016762.8,2669636129909766.0,570624059986.9266,1746497284812.2473,50832854756046.11,1713006048075161.0
3.0421862473761276,7074491042386826.0,1.3529501741581114e+16,1816220754838827.0,2730229389318978.0,616613979461.1023,1887258431301.7273,54929946490178.914,1851126736135558.5
3.2030299723236504,7228397781868719.0,1.3930473105171046e+16,1855732942311220.0,2789625989571506.5,664459601750.2372,2033699415310.3853,59192373071800.65,1994825859330736.5
3.3670905717701234,7379366751131615.0,1.433245781648428e+16,1894490921583189.5,2847888828270585.5,714189154016.3265,2185906641008.5017,63622650419044.86,2144188569284813.0
3.5344323832055258,7527544022060622.0,1.4735787178249402e+16,1932532193414305.8,2905074278339440.0,765832014873.7964,2343970037255.8027,68223397066992.7,2299303485315895.5
3.7051210308696363,7673060992409544.0,1.5140771799726484e+16,1969890491302057.8,2961233049573870.0,819418661407.4751,2507982895462.4097,72997329448666.28,2460262535435462.5
3.879223451487029,7816036259029629.0,1.5547704536740402e+16,2006596262392349.2,3016410911569776.5,874980624880.5277,2678041734047.5205,77947257950179.98,2627160823439531.0
4.0568079205167695,7956577200185537.0,1.5956862976438968e+16,2042677073704503.2,3070649304379895.5,932550453741.5061,2854246185239.006,83076083616142.23,2800096517913913.5
4.237944078927105,8094781320421542.0,1.6368511551133628e+16,2078157957396220.8,3123985857532495.0,992161682811.9521,3036698900790.49,88386795405665.23,2979170759794116.5
4.422702960505647,8230737400206520.0,1.6782903347783364e+16,2113061705909764.5,3176454833709135.5,1053848807748.414,3225505473842.4507,93882467918254.89,3164487585758092.0
4.61115701971576,8364526483988780.0,1.7200281666077378e+16,2147409125633419.0,3228087510060642.5,1117647264039.6653,3420774374664.9956,99566259523731.23,3356153865232103.0
4.803380160110075,8496222733651126.0,1.76208813675741e+16,2181219256007398.2,3278912507577526.5,1183593409932.432,3622616898425.3975,105441410842134.2,3554279249187565.5
4.9994477633122765,8625894169182735.0,1.804493005018245e+16,2214509559675147.8,3328956076934396.5,1251724512784.7913,3831147123447.593,111511243528995.03,3758976129224943.5
5.199436718578522,8753603314321360.0,1.847264907586209e+16,2247296088237828.5,3378242347660091.0,1322078738431.5857,4046481878691.5303,117779159328953.14,3970359605696735.5
5.403425452950093,8879407761704219.0,1.890425447435097e+16,2279593627344465.5,3426793546243976.0,1394695143215.3257,4268740719391.6973,124248639366841.4,4188547463828893.0
5.611493962009095,9003360669503389.0,1.9339957741694084e+16,2311415824192219.0,3474630187800421.5,1469613668392.2664,4498045909966.501,130923243650389.3,4413660156969267.0
5.823723841249277,9125511199466290.0,1.977996654911334e+16,2342775299983649.0,3521771245120012.0,1546875136669.6375,4734522413451.439,137806610762796.12,4645820796230449.0
6.040198318074262,9245904904622142.0,2.0224485375152308e+16,2373683749461901.0,3568234298295452.0,1626521250667.972,4978297886825.751,144902457726829.78,4885155145908504.0
6.261002284435747,9364584073567644.0,2.0673716071910504e+16,2404152029298521.5,3614035667590363.0,1708594593134.1387,5229502681698.557,152214580024913.34,5131791624154211.0
6.486222330124463,9481588037144952.0,2.1127858374458556e+16,2434190236826298.5,3659190531794256.0,1793138628756.935,5488269849901.304,159746851762005.28,5385861308452385.0
6.715946776726952,9596953442421160.0,2.1587110361108628e+16,2463807780377510.0,3703713033958316.5,1880197707459.0972,5754735153600.404,167503225960035.12,5647497945530537.0
6.950265712261491,9710714498133352.0,2.2051668871046096e+16,2493013442296550.5,3747616376118977.5,1969817069058.0366,6029037079600.662,175487734974313.66,5916837965374197.0
7.18927102650672,9822903195144932.0,2.2521729884863116e+16,2521815435537298.0,3790912904377749.0,2062042849203.3003,6311316857557.678,183704491023710.22,6194020499072646.0
7.433056447036854,9933549504944862.0,2.2997488872730044e+16,2550221454623422.0,3833614185507226.0,2156922086511.7883,6601718481857.868,192157686827577.34,6479187400258590.0
7.681717575977592,1.004268155879036e+16,2.3479141114266784e+16,2578238721639379.5,3875731076086877.0,2254502730833.0776,6900388736959.1,200851596343394.34,6772483269938964.0
7.935351927497144,1.0150325809732588e+16,2.396688199361378e+16,2605874027826922.5,3917273785032986.5,2354833652586.7886,7207477226014.037,209790575599958.3,7074055484542726.0
8.194058966047088,1.025650717945992e+16,2.4460907272726544e+16,2633133771283957.5,3958251930269226.0,2457964653121.886,7523136402623.345,218979063621667.22,7384054227036013.0
8.45794014536803,1.0361249191635618e+16,2.496141334551462e+16,2660023991195994.0,3998674590185176.5,2563946476055.129,7847521605587.336,228421583440083.16,7702632520976105.0
8.72709894827539,1.0464574093187604e+16,2.5468597475106584e+16,2686550398974699.0,4038550350445093.0,2672830819551.553,8180791096543.04,238122743189473.03,8029946267393656.0
9.0016409272409,1.0566502964821338e+16,2.5982658016230536e+16,2712718406629663.0,4077887346637848.5,2784670349515.334,8523106100389.533,248087237283509.3,8366154284408286.0
9.281673745785717,1.0667055821868124e+16,2.6503794624452508e+16,2738533152658948.5,4116693303196759.5,2899518713663.6074,8874630848417.896,258319847670699.44,8711418349495886.0
9.567307220701432,1.0766251706442896e+16,2.703220845380203e+16,2763999525708615.0,4154975568965752.5,3017430556459.8716,9235532624074.354,268825445166454.97,9065903244337750.0
9.85865336511546,1.0864108771769544e+16,2.7568102344131748e+16,2789122186221423.5,4192741149742648.5,3138461534886.9272,9605981811295.068,279608990860024.94,9429776802191866.0
10.155826432417769,1.0960644359429218e+16,2.811168099939942e+16,2813905586268587.0,4229996738091282.5,3262668335042.0547,9986151945360.182,290675537594754.2,9803209957735176.0
10.458942961066125,1.105587507019974e+16,2.866315115792564e+16,2838353987736302.0,4266748740680308.0,3390108689539.9585,10376219766222.219,302030231520381.8,1.0186376799333156e+16
10.768121820287448,1.1149816829078688e+16,2.9222721755561476e+16,2862471479018960.0,4303003303377276.0,3520841395710.86,10776365274271.445,313678313716266.25,1.0579454623700308e+16
11.083484256693197,1.124248494501554e+16,2.979060408259837e+16,2886261990354099.0,4338766334300773.0,3654926334583.417,11186771788505.438,325625121884607.94,1.098262399292026e+16
11.405153941827061,1.133389416582169e+16,3.0367011935162856e+16,2909729307919323.5,4374043525011711.0,3792424490643.578,11607626007076.355,337876092112894.9,1.1396068793799506e+16
11.733257020663602,1.1424058728676364e+16,3.0952161761760624e+16,2932877086798600.5,4408840370004761.0,3933397972361.998,12039118070194.12,350436760704919.7,1.1819976299533468e+16
12.067922161076874,1.1512992406602358e+16,3.154627280556696e+16,2955708862913902.5,4443162184644648.5,4077910033484.1196,12481441625366.018,363312766079832.44,1.2254537233667372e+16
12.409280604298411,1.1600708551247388e+16,3.2149567242998444e+16,2978228064008355.0,4477014121676491.0,4226025095077.9634,12934793894959.248,376509850738810.7,1.2699945836337368e+16
12.75746621638438,1.1687220132272248e+16,3.2762270319052204e+16,3000438019758314.0,4510401186426774.0,4377808768335.742,13399375746073.61,390033863299003.5,1.3156399932781424e+16
13.112615540712067,1.1772539773617692e+16,3.3384610479847884e+16,3022341971084083.5,4543328250799696.0,4533327878126.459,13875391762716.201,403890760594475.2,1.3624101004111146e+16
13.474867851526309,1.1856679786895296e+16,3.4016819502771332e+16,3043943078722283.0,4575800066163494.0,4692650487297.17,14363050320271.445,418086609844003.4,1.4103254260338678e+16
13.844365208556836,1.193965220212428e+16,3.4659132624578316e+16,3065244431116842.0,4607821275212618.0,4855845921721.627,14862563662261.816,432627590885553.7,1.4594068715655028e+16
14.221252512727972,1.2021468796015322e+16,3.531178866778928e+16,3086249051680289.0,4639396422883255.0,5022984796095.401,15374147979397.424,447519998477413.3,1.509675726595754e+16
14.605677562982532,1.2102141117984972e+16,3.597503016567428e+16,3106959905472348.5,4670529966392807.0,5194139040477.292,15898023490913.838,462770244665945.7,1.5611536768626792e+16
14.997791114242183,1.2181680514066652e+16,3.664910348610285e+16,3127379905338583.0,4701226284467988.0,5369381927577.3545,16434414528199.24,478384861220002.2,1.6138628124553854e+16
15.397746936527026,1.2260098148871084e+16,3.73342589545136e+16,3147511917548250.5,4731489685819676.0,5548788100792.285,16983549620713.166,494370502132076.25,1.6678256362420964e+16
15.805701875257567,1.2337405025734908e+16,3.803075097623451e+16,3167358766967000.0,4761324416918978.0,5732433602989.534,17545661584201.557,510733946186304.25,1.723065072524013e+16
16.221815912762718,1.2413612005185418e+16,3.873883815837074e+16,3186923241797335.0,4790734669123189.0,5920395906041.545,18120987611212.598,527482099593480.7,1.779604475915414e+16
16.64625223101797,1.2488729821838522e+16,3.945878343145848e+16,3206208097916751.5,4819724585197132.0,6112753941112.464,18709769363920.098,544621998693267.06,1.837467640450772e+16
17.079177275638333,1.2562769099838366e+16,4.019085417106989e+16,3225216062841531.0,4848298265271716.0,6309588129699.507,19312253069262.3,562160812723816.5,1.89667880891955e+16
17.5207608211511,1.2635740366937496e+16,4.093532231954385e+16,3243949839341569.0,4876459772277877.0,6510980415431.847,19928689616404.086,580105846659070.5,1.957262682429594e+16
17.97117603757412,1.2707654067310658e+16,4.169246450800048e+16,3262412108729922.5,4904213136891723.0,6717014296630.024,20559334656532.54,598464544114017.8,2.0192444302001076e+16
18.430599558325603,1.2778520573186648e+16,4.246256217879435e+16,3280605533849154.0,4931562362023525.0,6927774859629.51,21204448704997.33,617244490318202.6,2.082649699585222e+16
18.899211549492115,1.2848350195378144e+16,4.3245901708544456e+16,3298532761774569.5,4958511426881567.0,7143348812871.846,21864297245806.28,636453415157861.6,2.1475046263293656e+16
19.37719578048196,1.2917153192782604e+16,4.4042774531878936e+16,3316196426253378.0,4985064290638675.0,7363824521767.828,22539150838489.79,656099196287027.0,2.2138358450557024e+16
19.864739696091597,1.2984939780923358e+16,4.485347726601824e+16,3333599149897433.5,5011224895728516.0,7589292044336.7295,23229285227347.562,676189862308022.8,2.2816704999889176e+16
20.36203449001343,1.3051720139594408e+16,4.567831183631788e+16,3350743546145875.0,5036997170795905.0,7819843167626.452,23934981453092.13,696733596021746.5,2.3510362559139316e+16
20.869275179813698,1.3117504419669136e+16,4.651758560288552e+16,3367632221013097.0,5062385033324424.0,8055571444919.808,24656525966904.64,717738737748235.6,2.4219613093718708e+16
21.38666068340997,1.3182302749128674e+16,4.737161148837852e+16,3384267774636425.0,5087392391963049.0,8296572233731.788,25394210746920.4,739213788717964.1,2.4944744000951776e+16
21.91439389707817,1.3246125238362722e+16,4.824070810709129e+16,3400652802636970.5,5112023148571682.0,8542942734603.992,26148333417160.414,761167414534411.0,2.5686048226833748e+16
22.452681775019734,1.3308981984791834e+16,4.9125199895426024e+16,3416789897306284.5,5136281200005201.0,8794782030701.864,26919197368928.996,783608448708429.2,2.644382438521469e+16
23.00173541052013,1.337088307685762e+16,5.002541724384748e+16,3432681648630803.5,5160170439653263.0,9052191128221.191,27707111884696.11,806545896264992.2,2.7218376879427748e+16
23.561770118730532,1.3431838597424692e+16,5.094169663041172e+16,3448330645165173.5,5183694758753241.0,9315272997610.564,28512392264485.34,829988937422935.2,2.8010016026383536e+16
24.133005521105144,1.3491858626634908e+16,5.187438075596084e+16,3463739474765062.0,5206858047491764.0,9584132615616.916,29335359954790.23,853946931348288.2,2.881905818315042e+16
24.715665631527248,1.3550953244253602e+16,5.282381868106743e+16,3478910725189427.5,5229664195910171.0,9858877008160.88,30176342680040.293,878429419981943.6,2.964582587604408e+16
25.309978944157795,1.3609132531543134e+16,5.3790365964814744e+16,3493846984581621.5,5252117094627573.0,10139615294050.81,31035674576642.465,903446131942259.8,3.0490647932249504e+16
25.91617852304095,1.3666406572699646e+16,5.477438480549531e+16,3508550841838143.5,5274220635395345.0,10426458729542.61,31913696329621.492,929006986503430.2,3.135385961399955e+16
26.53450209350177,1.3722785455884874e+16,5.577624418330645e+16,3523024886873572.5,5295978711495276.0,10719520753754.283,32810755311887.555,955122097650312.9,3.223580275533682e+16
27.165192135371807,1.3778279273884066e+16,5.6796320005122984e+16,3537271710789494.0,5317395217993524.0,11018917034943.824,33727205726156.42,981801778210576.6,3.31368259014843e+16
27.808495978079243,1.3832898124419466e+16,5.783499525142204e+16,3551293905954972.5,5338474051861632.0,11324765517660.125,34663408749552.945,1009056544064968.4,3.405728445085376e+16
28.464665897640828,1.388665211014715e+16,5.889266012543724e+16,3565094066005711.5,5359219111975228.0,11637186470776.121,35619732680926.51,1036897118436573.6,3.4997540799720916e+16
29.133959215593645,1.3939551338363e+16,5.996971220461615e+16,3578674785768586.5,5379634299000603.0,11956302536414.357,36596553090910.65,1065334436260024.1,3.595796448959676e+16
29.816638399905518,1.3991605920443066e+16,6.106655659445456e+16,3592038661117987.0,5399723515178727.0,12282238779775.58,37594252974758.28,1094379648631540.1,3.693893235732867e+16
30.51297116790363,1.4042825971042018e+16,6.218360608477848e+16,3605188288769997.5,5419490664015872.0,12615122739881.21,38613222907987.63,1124044127340836.8,3.7940828687962e+16
31.223230591261704,1.40932216070711e+16,6.332128130854978e+16,3618126266020062.5,5438939649889254.0,12955084481240.68,39653861204872.69,1154339469485893.5,3.896404537039727e+16
31.947695203086937,1.4142802946477984e+16,6.448001090326084e+16,3630855190429664.0,5458074377576045.0,13302256646455.88,40716574079815.95,1185277502171675.0,4.0008982055879224e+16
32.686649107148675,1.4191580106847182e+16,6.566023167499477e+16,3643377659467127.5,5476898751713385.0,13656774509774.559,41801775811640.22,1216870287293861.2,4.1076046319351736e+16
33.44038208929165,1.4239563203841232e+16,6.6862388765216696e+16,3655696270107265.0,5495416676196623.0,14018776031605.084,42909888910838.945,1249130126408778.2,4.2165653823720344e+16
34.20918973107749,1.4286762349499212e+16,6.808693582036917e+16,3667813618394735.5,5513632053522764.0,14388401914006.258,44041344289825.43,1282069565690675.8,4.327822848705798e+16
34.993373525699035,1.4333187650410778e+16,6.933433516434002e+16,3679732298975140.0,5531548784085811.0,14765795657165.049,45196581436223.95,1315701400977578.5,4.441420265279726e+16
35.793240996213015,1.437884920578062e+16,7.060505797387131e+16,3691454904598141.0,5549170765429707.0,15151103616876.19,46376048589243.55,1350038682906964.2,4.557401726294977e+16
36.60910581613728,1.4423757105399084e+16,7.189958445698177e+16,3702984025596509.0,5566501891465225.0,15544475063038.562,47580202919182.64,1385094722142612.5,4.675812203439622e+16
37.44128793246003,1.446792142753302e+16,7.321840403446854e+16,3714322249344606.0,5583546051655896.0,15946062239182.45,48809510710106.445,1420883094693889.2,4.796697563829185e+16
38.29011369110923,1.4511352236750054e+16,7.456201552456018e+16,3725472159699806.5,5600307130178451.0,16356020423043.521,50064447545748.56,1457417647328939.2,4.920104588263405e+16
39.15591596493141,1.4554059581689114e+16,7.5930927330789e+16,3736436336430179.0,5616789005062346.0,16774507988198.826,51345498498682.71,1494712503083108.8,5.046080989803748e+16
40.03903428423004,1.4596053492789166e+16,7.732565763315496e+16,3747217354631306.0,5632995547313167.0,17201686466781.234,52653158322816.32,1532782066864175.8,5.174675432676759e+16
40.93981496991464,1.4637343979986684e+16,7.874673458264598e+16,3757817784135241.0,5648930620024177.0,17637720613288.758,53987931649257.13,1571641031155776.0,5.305937551508139e+16
41.85861126931294,1.467794103039301e+16,8.019469649918962e+16,3768240188914189.5,5664598077479819.0,18082778469505.92,55350333185606.06,1611304381820667.5,5.439917970892694e+16
