t(s),Total solute volume 1,Total retention volume 1,Total 1 volume 1,Total 2 volume 1,Total 3 volume 1,Total 4 volume 1,Total 5 volume 1,Total 6 volume 1
0.1,803801399340899.0,888695292650996.4,42833262785020.44,42060630525076.21,0.0,0.0,0.0,0.0
0.202,1211182557794496.2,1339202521813914.5,64541938929482.12,63377722727640.87,303677420.84558326,482760684.89784425,5270050141.4400835,94245874046.16122
0.30604000000000003,1521360617089958.2,1682294384830646.8,81070820757007.47,79608454370877.47,770503525.6343576,1224881671.3038526,13371412935.533981,239125814671.02917
0.41216080000000005,1783683275343984.5,1972519930846865.2,95049566474591.38,93335049594657.75,1368595107.9083676,2175677863.597373,23750780619.489502,424744380041.1471
0.5204040160000001,2016611550006561.8,2230285272093377.0,107461933532003.08,105523520705242.95,2083798406.021981,3312648939.849,36162527933.105705,646708874291.016
0.6308120963200001,2229341359114622.0,2465755048750545.0,118797957372178.81,116655063821640.84,2908515956.9329157,4623717224.72725,50474808815.59632,902661400106.62
0.7434283382464002,2427216936219373.0,2684836491786828.0,129342423466613.73,127009327417124.92,3838398539.263344,6101968823.834786,66612147731.6008,1191252168619.399
0.8582969050113283,2613661626578716.5,2891313692297738.0,139277756289042.36,136765445368397.48,4870986178.968681,7743493211.751398,84531855472.01453,1511717726722.1624
0.9754628431115548,2791021151714634.0,3087779706724454.5,148728955505544.28,146046162580817.5,6005038591.3515415,9546318826.953289,104212409554.75647,1863673156483.5332
1.094972099973786,2960984460985609.5,3276101734404295.5,157786022467018.97,154939856948844.12,7240164379.997398,11509823604.836334,125647019299.60262,2246996995546.6733
1.2168715419732616,3124814759668384.0,3457676472204336.5,166516271318083.84,163512628395512.8,8576598217.418595,13634380759.33217,148839758998.96484,2661762084370.284
1.3412089728127268,3283485762864381.0,3633580711994808.5,174971589745048.88,171815428650076.62,10015058674.528088,15921132773.094458,173803100679.61307,3108191443174.107
1.4680331522689813,3437766689571128.5,3804665280056788.0,183192968171078.8,179888508744936.47,11556653287.687399,18371840481.91877,200556266631.6626,3586628809245.156
1.597393815314361,3588277728194250.0,3971616338926245.0,191213455422670.84,187764321367411.38,13202812902.256027,20988778700.43452,229124090005.93564,4097518260309.512
1.729341691620648,3735527601108563.5,4134996903942495.5,199060160483719.3,195469486505897.44,14955245008.552164,23774662040.31208,259536205008.2689,4641389732262.239
1.863928525453061,3879939809143398.0,4295275848371565.5,206755651021247.53,203026164748802.84,16815899873.322348,26732591069.688583,291826459148.95575,5218848508024.865
2.001207095962122,4021871457971866.0,4452848710584682.5,214318956614379.97,210453042420286.28,18786945573.093937,29866012656.78294,326032486151.39716,5830568133761.432
2.1412312378813647,4161627077281232.5,4608052963896040.0,221766305149409.47,217766054679360.66,20870749383.831932,33178690254.82193,362195358328.3781,6477281988067.233
2.284055862638992,4299468960107655.0,4761179447342280.0,229111673795107.8,224978926576111.7,23069863846.172905,36674681946.38633,400359381727.14154,7159782935892.595
2.4297369798917723,4435625043487694.5,4912481072496864.0,236367208943607.28,232103585404410.78,25387016303.282864,40358323681.939674,440571889954.35895,7878917431210.843
2.578331719489608,4570295001957350.0,5062179558637714.0,243543550924579.22,239150479562227.06,27825101106.583836,44234216922.624214,482883115076.88763,8635583760461.674
2.7298983538794,4703655026774968.0,5210470714837787.0,250650088682212.38,246128828634707.75,30387173885.777405,48307219532.13304,527346088193.47644,9430730264305.273
2.884496320956988,4835861620460036.0,5357528633912023.0,257695161979980.03,253046821951546.1,33076447449.514633,52582439260.884995,574016568305.3912,10265354065449.16
3.0421862473761276,4967054643237196.0,5503509059690906.0,264686223740662.94,259911777998697.38,35896288993.30918,57065229308.390076,622952993873.673,11140500202185.43
3.2030299723236504,5097359783684316.0,5648552118036571.0,271629971703148.7,266730273700330.84,38850218371.00077,61761185576.40325,674216452833.9258,12057261092007.256
3.3670905717701234,5226890580927145.0,5792784552331535.0,278532456181879.1,273508250234502.1,41941907243.86789,66676145317.34198,727870667842.574,13016776267610.182
3.5344323832055258,5355750093769281.0,5936321568856248.0,285399169012056.5,280251100373948.22,45175178964.03251,71816186950.07399,783981994266.7379,14020232340787.01
3.7051210308696363,5484032289092308.0,6079268371993125.0,292235117535219.6,286963741137107.06,48554009080.53555,77187630865.62996,842619428980.7052,15068863159574.146
3.879223451487029,5611823205000645.0,6221721450561511.0,299044886581332.7,293650674652161.7,52082526380.43768,82797041083.51591,903854628448.0074,16163950131449.26
4.0568079205167695,5739201931698528.0,6363769662788163.0,305832690738112.0,300316039483526.3,55765014395.6256,88651227648.4285,967761934886.165,17306822691066.21
4.237944078927105,5866241443730933.0,6505495157079326.0,312602418699789.25,306963654180642.8,59605913320.15425,94757249679.67271,1034418409556.7312,18498858895406.027
4.422702960505647,5993009310136143.0,6646974157930728.0,319357671109979.56,313597054438231.94,63609822293.99912,101122419003.13971,1103903872414.8755,19741486132648.938
4.61115701971576,6119568303639072.0,6788277640324906.0,326101793024595.5,320219524973634.7,67781502017.784065,107754304309.51772,1176300947503.6814,21036181933771.77
4.803380160110075,6245976925831574.0,6929471911342519.0,332837901897853.56,326834127008011.25,72125877669.96341,114660735793.39369,1251695113598.155,22384474878017.387
4.9994477633122765,6372289862030138.0,7070619114115912.0,339568911820889.9,333443722067728.0,76648042103.45955,121849810236.6992,1330174759699.9531,23787945585101.086
5.199436718578522,6498558376944605.0,7211777666428775.0,346297554606303.44,340050992688580.94,81353259303.23747,129329896507.05602,1411831245061.4558,25248227788404.5
5.403425452950093,6624830660270480.0,7353002644031882.0,353026398204206.06,346658460499651.9,86246968089.91856,137109641447.34734,1496758963480.727,26767009484536.426
5.611493962009095,6751152129707381.0,7494346116965775.0,359757862849581.9,353268502079399.4,91334786057.5295,145197976137.5935,1585055411660.8115,28346034155563.68
5.823723841249277,6877565697615371.0,7635857445755038.0,366494235271960.56,359883362909018.4,96622513735.92502,153604122514.10165,1676821261469.2727,29987102060978.99
6.040198318074262,7004112006478970.0,7777583543187853.0,373237681242914.7,366505169693601.2,102116138970.48666,162337600334.1205,1772160435969.571,31692071597107.207
6.261002284435747,7130829637503454.0,7919569106459951.0,379990256691818.0,373135941277392.8,107821841513.38974,171408234476.95355,1871180189125.3975,33462860722181.207
6.486222330124463,7257755295978360.0,8061856823700504.0,386753917583559.06,379777598343322.9,113745997822.18872,180826162574.75955,1973991189104.218,35301448445768.8
6.715946776726952,7384923976476138.0,8204487558270987.0,393530528721704.06,386431972057379.2,119895186062.6891,190601842968.23712,2080707605127.4663,37209876381607.8
6.950265712261491,7512369110487351.0,8347500513712414.0,400321871615748.4,393100811793949.9,126276191314.11491,200746062984.03738,2191447197832.9602,39190250363235.4
7.18927102650672,7640122698706967.0,8490933381789066.0,407129651530424.06,399785792057971.6,132896010975.48691,211269947532.1737,2306331413130.7446,41244742122072.266
7.433056447036854,7768215429863569.0,8634822475720223.0,413955503817918.0,406488518702930.2,139761860372.89783,222184968022.95538,2425485479547.038,43375591027866.56
7.681717575977592,7896676787714439.0,8779202850394345.0,420800999619469.06,413210534529604.3,146881178568.05658,233502951604.02573,2549038509062.8193,45585105891613.95
7.935351927497144,8025535147602960.0,8924108411110156.0,427667651010748.06,419953324338644.2,154261634369.06192,245236090719.05386,2677123601463.7686,47875666831250.41
8.194058966047088,8154817863784535.0,9069572012178284.0,434556915655317.7,426718319500078.2,161911132544.90305,257396952990.45248,2809877952227.643,50249727200584.64
8.45794014536803,8284551348565320.0,9215625546539320.0,441470201021805.7,433506902094426.3,169837820245.637,269998491429.25784,2947442963983.205,52709815582076.72
8.72709894827539,8414761144161885.0,9362300027402366.0,448408868213184.56,440320408672904.1,178050093630.64023,283054054975.9507,3089964361582.0537,55258537844204.77
9.0016409272409,8545471988072434.0,9509625662780050.0,455374235450304.9,447160133678114.56,186556604707.68192,296577399376.63873,3237592310831.5303,57898579264276.04
9.281673745785717,8676707872651153.0,9657631923684444.0,462367581246506.4,454027332561404.3,195366268385.9394,310582698399.5338,3390481540942.6846,60632706717649.0
9.567307220701432,8808492099490945.0,9806347606655414.0,469390147305591.2,460923224628553.8,204488269746.37152,325084555397.1991,3548791470752.8726,63463770934430.27
9.85865336511546,8940847329147046.0,9955800891210596.0,476443141171511.6,467848995641677.56,213932071533.17847,340098015220.467,3712686338787.717,66394708824800.555
10.155826432417769,9073795626669662.0,1.0106019392736006e+16,483527738654729.2,474805800201806.9,223707421870.33163,355638576490.4073,3882335337231.7417,69428545874210.22
10.458942961066125,9207358503359286.0,1.0257030211276498e+16,490645086057290.56,481794763933839.0,233824362207.42072,371722204235.0798,4057912749881.455,72568398609760.52
10.768121820287448,9341556955110874.0,1.0408859976631698e+16,497796302216120.75,488816985492969.2,244293235499.30093,388365342898.2353,4239598094159.006,75817477139165.67
11.083484256693197,9476411497670840.0,1.056153489011761e+16,504982480381815.8,495873538409592.4,255124694624.24896,405584929727.4449,4427576267268.043,79179087763754.97
11.405153941827061,9611942199095386.0,1.0715080763314656e+16,512204689948291.44,502965472787752.1,266329711045.56015,423398408549.51495,4622037696577.601,82656635667047.44
11.733257020663602,9748168709666816.0,1.086952305408684e+16,519463978046974.6,510093816870579.94,277919583721.6984,441823743941.3467,4823178494323.079,86253627680489.55
12.067922161076874,9885110289496570.0,1.1024886900127772e+16,526761371017727.2,517259578484679.0,289905948270.3508,460879435804.7308,5031200616717.062,89973675128011.1
12.409280604298411,1.0022785834019702e+16,1.1181197150260726e+16,534097875767399.9,524463746374180.0,302300786391.8811,480584534353.85974,5246312027565.781,93820496751113.78
12.75746621638438,1.016121389756389e+16,1.1338478393697532e+16,541474481025786.0,531707291434036.3,315116435557.9012,500958655524.6376,5468726866490.403,97797921716260.73
13.112615540712067,1.0300412715157002e+16,1.1496754987439938e+16,548892158507722.4,538991167851160.3,328365598970.82117,522021996815.1531,5698665621855.332,101909892706391.98
13.474867851526309,1.044040022272124e+16,1.1656051081987892e+16,556351863989185.5,546316314161114.06,342061355800.4558,543795353566.95526,5936355308508.894,106160469098450.22
13.844365208556836,1.0581194075785914e+16,1.1816390645504382e+16,563854538304476.1,553683654227303.9,356217171703.8718,566300135697.0302,6182029650444.34,110553830228839.06
14.221252512727972,1.072281166683863e+16,1.1977797486570196e+16,571401108270832.6,561094098148913.1,370846909634.90436,589558384890.6625,6435929268492.373,115094278748807.78
14.605677562982532,1.0865270141422688e+16,1.2140295275650322e+16,578992487546238.8,568548543103236.0,385964840949.8381,613592792265.5857,6698301873159.001,119786244071783.12
14.997791114242183,1.1008586413077634e+16,1.230390756538148e+16,586629577425567.0,576047874127475.4,401585656815.98566,638426716518.1143,6969402462724.841,124634285914732.38
15.397746936527026,1.1152777177211014e+16,1.2468657809780316e+16,594313267579800.0,583592964844604.2,417724479929.99347,664084202562.1154,7249493526725.417,129643097935686.03
15.805701875257567,1.1297858923980112e+16,1.2634569382461796e+16,602044436742471.2,591184678137442.5,434396876552.857,690590000672.0144,7538845254933.62,134817511469580.3
16.221815912762718,1.1443847950255944e+16,1.2801665593949434e+16,609823953347198.2,598823866774679.6,451618868868.77527,717969586141.1157,7837735751968.13,140162499364639.53
16.64625223101797,1.1590760370732876e+16,1.2969969708151142e+16,617652676119704.4,606511373992239.0,469406947675.0795,746249179466.8171,8146451257654.199,145683179921540.8
17.079177275638333,1.1738612128243078e+16,1.3139504958066932e+16,625531454627464.2,614248034032971.4,487778085410.6043,775455767074.438,8465286373264.212,151384820937648.4
17.5207608211511,1.1887419003326716e+16,1.3310294560788338e+16,633461129789663.4,622034672647455.9,506749749529.9334,805617122591.514,8794544293768.302,157272843858630.3
17.97117603757412,1.2037196623104588e+16,1.348236173184383e+16,641442534350031.8,629872107558273.2,526339916231.09094,836761828684.622,9134537046225.691,163352828039798.47
18.430599558325603,1.218796046949426e+16,1.3655729698936834e+16,649476493314652.2,637761148889933.1,546567084544.2391,868919299470.7693,9485585734449.217,169630515119529.72
18.899211549492115,1.233972588680484e+16,1.3830421715119352e+16,657563824356679.0,645702599566294.1,567450290789.0234,902119803515.567,9848020790075.39,176111813507133.5
19.37719578048196,1.2492508088741654e+16,1.4006461071436864e+16,665705338189594.5,653697255677071.9,589009123408.1954,936394487430.3027,10222182230173.096,182802802987532.53
19.864739696091597,1.2646322164844986e+16,1.4183871109075044e+16,673901838910343.5,661745906814798.9,611263738185.073,971775400080.0159,10608419921522.887,189709739445119.16
20.36203449001343,1.2801183086385138e+16,1.4362675231033914e+16,682154124313447.8,669849336383270.0,634234873852.3663,1008295517414.5347,11007093851696.783,196839059709099.1
20.869275179813698,1.2957105711726922e+16,1.4542896913347786e+16,690462986176878.1,678008321878255.6,657943868099.6915,1045988767934.2,11418574407067.564,204197386522620.8
21.38666068340997,1.3114104791174344e+16,1.4724559715864146e+16,698829210520229.0,686223635141014.2,682412673986.9386,1084890058801.6598,11843242657871.207,211791533637897.06
21.91439389707817,1.3272194971299162e+16,1.4907687292588588e+16,707253577835363.9,694496042584785.6,707663876770.3057,1125035302610.6614,12281490650441.959,219628511039448.75
22.452681775019734,1.343139079875066e+16,1.5092303401594448e+16,715736863289449.2,702826305394158.0,733720711147.516,1166461444822.2039,12733721706733.125,227715530297481.22
23.00173541052013,1.3591706723539372e+16,1.527843191449144e+16,724279836899920.0,711215179696878.4,760607078928.1698,1209206491877.5884,13200350731227.77,236060010053251.34
23.561770118730532,1.3753157101778112e+16,1.546609682543653e+16,732883263680560.6,719663416707303.8,788347567134.6594,1253309539996.9966,13681804525333.639,244669581638103.75
24.133005521105144,1.3915756197859612e+16,1.5655322259665654e+16,741547903757542.2,728171762840330.6,816967466538.2504,1298810804671.072,14178522109343.543,253552094827614.4
24.715665631527248,1.4079518186040146e+16,1.5846132481513756e+16,750274512453807.1,736740959794272.2,846492790634.1846,1345751650851.539,14690955052027.676,262715623732031.22
25.309978944157795,1.4244457151392012e+16,1.6038551901883206e+16,759063840339832.1,745371744600698.6,876950295058.4777,1394174623845.2993,15219567807905.945,272168472823852.94
25.91617852304095,1.44105870900794e+16,1.6232605085110192e+16,767916633248322.5,754064849638867.4,908367497447.9675,1444123480914.4695,15764838062227.205,281919183103020.56
26.53450209350177,1.4577921908903422e+16,1.6428316755170068e+16,776833632249967.2,762821002611915.6,940772697743.7428,1495643223582.6191,16327257083658.695,291976538399769.9
27.165192135371807,1.474647542405382e+16,1.6625711801151228e+16,785815573586932.8,771640926481550.2,974194998936.403,1548780130644.8528,16907330084659.525,302349571814668.1
27.808495978079243,1.4916261358995886e+16,1.6824815281918002e+16,794863188560239.1,780525339357466.0,1008664328249.8289,1603581791876.5251,17505576589481.24,313047572294806.06
28.464665897640828,1.5087293341412798e+16,1.7025652429872348e+16,803977203366838.8,789474954337343.8,1044211458758.0687,1660097142431.996,18122530809702.664,324080091344470.7
29.133959215593645,1.5259584899114206e+16,1.7228248653712976e+16,813158338881585.4,798490479292775.0,1080868031427.589,1718376497921.3054,18758742027165.21,335456949867905.44
29.816638399905518,1.5433149454814656e+16,1.7432629540082472e+16,822407310378981.8,807572616596011.2,1118666577574.6382,1778471590148.422,19414774984132.285,347188245140962.94
30.51297116790363,1.5608000319676636e+16,1.7638820853981134e+16,831724827189105.8,816722062782100.4,1157640541724.6204,1840435603490.4204,20091210280444.69,359284357907616.5
31.223230591261704,1.5784150685506262e+16,1.7846848537818946e+16,841111592281726.5,825939508140514.2,1197824304857.3396,1904323211891.927,20788644777395.13,371755959596296.9
31.947695203086937,1.5961613615483124e+16,1.8056738708967996e+16,850568301772312.6,835225636230054.0,1239253208018.6885,1970190616444.059,21507692007983.41,384614019650046.06
32.686649107148675,1.6140402033300372e+16,1.8268517655670604e+16,860095644343331.5,844581123310591.9,1281963576275.705,2038095583511.3079,22248982593154.766,397869812963340.9
33.44038208929165,1.632052871058656e+16,1.848221183115261e+16,869694300573968.8,854006637684888.2,1325992742988.309,2108097483363.928,23013164663557.35,411534927417277.9
34.20918973107749,1.6502006252478346e+16,1.8697847845786824e+16,879364942171331.5,863502838943651.4,1371379074366.8098,2180257329266.9014,23800904286285.39,425621271503576.7
34.993373525699035,1.668484708121121e+16,1.8915452457147904e+16,889108231096020.2,873070377106893.2,1418161994280.2869,2254637816969.9746,24612885896002.34,440141082026542.3
35.793240996213015,1.6869063417596182e+16,1.913505255780024e+16,898924818575053.6,882709891654650.6,1466382009276.383,2331303364536.286,25449812729760.41,455106931870768.94
36.60910581613728,1.7054667260252576e+16,1.935667516066006e+16,908815343995211.0,892422010440290.1,1516080733768.7039,2410320152439.8257,26312407264757.645,470531737820982.6
37.44128793246003,1.7241670362470326e+16,1.9580347381776532e+16,918780433670071.9,902207348479797.4,1567300915343.1587,2491756163854.7456,27201411658190.008,486428768418953.25
38.29011369110923,1.7430084206582838e+16,1.980609642038239e+16,928820699474383.8,912066506610767.4,1620086460130.1023,2575681225051.825,28117588188275.402,502811651840956.9
39.15591596493141,1.7619919975738662e+16,2.0033949536071016e+16,938936737339819.9,922000070015296.8,1674482458184.1072,2662167045810.0703,29061719695443.94,519694383777778.8
40.03903428423004,1.7811188522971178e+16,2.026393402296835e+16,949129125606748.1,932008606601497.0,1730535208808.664,2751287259743.5674,30034610022605.668,537091335297789.3
40.93981496991464,1.800390033747819e+16,2.049607718078018e+16,959398423227344.6,942092665238996.2,1788292245758.1682,2843117464436.377,31037084453324.625,555017260672117.4
41.85861126931294,1.819806550803834e+16,2.0730406282608732e+16,969745167816083.9,952252773844623.1,1847802362245.062,2937735261270.7954,32069990146646.82,573487305139535.0
42.7957834946992,1.839369368350769e+16,2.0966948539452744e+16,980169873544695.4,962489437315310.5,1909115635675.356,3035220294827.1753,33134196567254.57,592517012587264.1
43.751699164593184,1.8590794030359372e+16,2.120573106132104e+16,990673028879506.1,972803135306264.0,1972283452031.5261,3135654291726.4644,34230595909538.32,612122333122549.1
44.72673314788505,1.8789375187249476e+16,2.1446780814914664e+16,1001255094160329.8,983194319853525.5,2037358529817.5657,3239121098780.2803,35360103514113.05,632319630508565.1
45.721267810842754,1.8989445216614676e+16,2.1690124577853176e+16,1011916499021189.4,993663412841216.5,2104394943477.1694,3345706720307.122,36523658275232.53,653125689437081.9
