t(s),Total solute volume 1,Total retention volume 1,Total 1 volume 1,Total 2 volume 1,Total 3 volume 1,Total 4 volume 1,Total 5 volume 1,Total 6 volume 1
0.1,1386011386779396.2,8520484941412214.0,2082602288778356.8,5051871265854462.0,0.0,0.0,0.0,0.00819856729667888
0.202,2027019899207599.8,1.2462125840527366e+16,3045775048799066.5,7388318553622577.0,473743228.56403285,3000566238.8863606,133082183460.95984,875782405191.923
0.30604000000000003,2529116537668304.5,1.5550551447718098e+16,3800219495932503.0,9218423602214856.0,1194033130.899398,7567773388.487647,348903303548.1866,2434146792353.4663
0.41216080000000005,2956763444245911.0,1.818193671655956e+16,4442796591901964.5,1.0777163592493682e+16,2114921866.4562893,13407941305.680311,629389523335.0277,4568175531495.698
0.5204040160000001,3337560690183009.5,2.0525891558131844e+16,5014977928053338.0,1.2165139734202282e+16,3215114182.6085215,20385738019.543644,966740964853.1224,7222863876163.706
0.6308120963200001,3685842940075818.0,2.2670504098855736e+16,5538302613970030.0,1.3434601061980032e+16,4483094924.464999,28428028205.778828,1356933005538.9836,10367638701191.748
0.7434283382464002,4010082925613035.0,2.4667840475329756e+16,6025501679495166.0,1.4616430128009152e+16,5912255361.658059,37492846179.89231,1797700304993.5554,13984636805852.21
0.8582969050113283,4315756070347037.0,2.655154929291553e+16,6484802432234586.0,1.5730584468246998e+16,7498852499.149386,47556423347.65538,2287760810647.8687,18063506000409.29
0.9754628431115548,4606634540213574.0,2.8344813890003224e+16,6921872884235442.0,1.6790813353841156e+16,9240997795.37715,58606763701.670586,2826452842408.9287,22598811109140.6
1.094972099973786,4885444274789738.0,3.006438981535876e+16,7340808999917094.0,1.7807052632177502e+16,11138095336.157322,70640075884.59538,3413540327292.34,27588589975919.797
1.2168715419732616,5154229412695195.0,3.172284415073834e+16,7744682277558374.0,1.878675303441721e+16,13190503492.345871,83658624965.67755,4049097972214.839,33033478966894.617
1.3412089728127268,5414568712103753.0,3.3329885323023064e+16,8135864940269734.0,1.9735669013780816e+16,15399318692.79505,97669359750.23471,4733438894560.458,38936149295740.32
1.4680331522689813,5667711225617051.0,3.4893196738428444e+16,8516233799480401.0,2.0658353271041108e+16,17766230859.175987,112682995114.21161,5467066701377.9795,45300926362548.58
1.597393815314361,5914665172423959.0,3.6418982825570136e+16,8887303793202906.0,2.155848068720939e+16,20293423318.63662,128713376717.46552,6250642540738.032,52133523393132.79
1.729341691620648,6156258305075156.0,3.791233992575072e+16,9250318692436314.0,2.2439068356043616e+16,22983501602.313526,145777029087.63116,7084961780050.445,59440849884898.74
1.863928525453061,6393180184577279.0,3.937751602176128e+16,9606314623221566.0,2.3302629673650316e+16,25839441721.591286,163892827341.1876,7970937125867.068,67230870917197.734
2.001207095962122,6626012566186790.0,4.0818097417274344e+16,9956165723973836.0,2.4151285092438708e+16,28864552002.10386,183081754958.41876,8909586199756.527,75512502168268.31
2.1412312378813647,6855251735371849.0,4.223714595876935e+16,1.030061770723234e+16,2.4986843534021836e+16,32062444616.466885,203366723115.11746,9902022285761.201,84295530689846.94
2.284055862638992,7081325250883493.0,4.363730189647345e+16,1.0640313017598802e+16,2.5810863416442708e+16,35437014223.28027,224772435114.9959,10949447391763.309,93590554707351.53
2.4297369798917723,7304604713181674.0,4.5020862327230136e+16,1.0975810017421412e+16,2.6624699194114476e+16,38992421924.942986,247325284577.23587,12053147036363.863,103408937769700.45
2.578331719489608,7525415651376021.0,4.638984193576893e+16,1.1307597842793344e+16,2.7429537394962228e+16,42733083283.65395,271053279377.90442,13214486348030.111,113762773926651.44
2.7298983538794,7744045283850674.0,4.774602067408041e+16,1.1636108064574304e+16,2.822642490730389e+16,46663659488.70239,295985985589.32153,14434907180268.658,124664861526244.19
2.884496320956988,7960748684762691.0,4.909098164854247e+16,1.1961723954096884e+16,2.9016291456260984e+16,50789051011.097084,322154487203.53094,15715926026589.66,136128683857147.16
3.0421862473761276,8175753738231402.0,5.042614156053179e+16,1.2284787927271764e+16,2.979996766139539e+16,55114393251.84717,349591358506.6961,17059132574889.352,148168395306574.34
3.2030299723236504,8389265158606007.0,5.175277541077776e+16,1.2605607585393302e+16,3.057819969027268e+16,59645053811.70833,378330646742.4169,18466188780612.73,160798812024605.12
3.3670905717701234,8601467782776661.0,5.307203673276386e+16,1.2924460662126522e+16,3.1351661258680124e+16,64386631098.34641,408407863261.32465,19938828366798.59,174035406319399.16
3.5344323832055258,8812529288955665.0,5.438497430383922e+16,1.3241599108714802e+16,3.2120963540371864e+16,69344954051.75699,439859981766.15564,21478856680214.98,187894304180857.84
3.7051210308696363,9022602459131808.0,5.569254605402106e+16,1.3557252493516508e+16,3.2886663413538708e+16,74526082817.2071,472725442568.803,23088150848508.566,202392285460163.97
3.879223451487029,9231827075150922.0,5.699563072505536e+16,1.3871630851032666e+16,3.3649270371873064e+16,79936310231.55501,507044162008.09204,24768660195141.94,217546786331336.56
4.0568079205167695,9440331518175780.0,5.8295037708212376e+16,1.4184927085236104e+16,3.4409252354475404e+16,85582164016.77068,542857546354.48206,26522406877933.184,233375903736762.0
4.237944078927105,9648234126133094.0,5.9591515396250616e+16,1.4497319009254846e+16,3.516704069364186e+16,91470409596.08856,580208509665.033,28351486723985.336,249898401577555.53
4.422702960505647,9855644352277304.0,6.088575831447511e+16,1.4808971086216006e+16,3.59230343377382e+16,97608053465.07492,619141495158.9197,30258070239223.113,267133718455758.4
4.61115701971576,1.0062663759216256e+16,6.21784132418525e+16,1.5120035922856892e+16,3.6677603474345624e+16,104002347063.17255,659702499768.0364,32244403775025.754,285101976811899.1
4.803380160110075,1.02693868759594e+16,6.3470084491469064e+16,1.5430655557314972e+16,3.743109265413363e+16,110660791101.82283,701939101584.1178,34312810837831.78,303823993330562.0
4.9994477633122765,1.0475901940262332e+16,6.4761338487146776e+16,1.5740962574566114e+16,3.8183823496647704e+16,117591140313.71791,745900489977.4176,36465693530301.68,323321290510039.1
5.199436718578522,1.0682291544391448e+16,6.605270774753689e+16,1.605108107674241e+16,3.893609704407031e+16,124801408594.54695,791637498205.2325,38705534114807.875,343616109311099.75
5.403425452950093,1.0888633199147016e+16,6.734469436883467e+16,1.6361127530626644e+16,3.968819581704093e+16,132299874514.15097,839202638363.7703,41034896691797.984,364731422815395.56
5.611493962009095,1.1094999828366652e+16,6.863777308118504e+16,1.6671211510687158e+16,4.0440385617081704e+16,140095087178.5404,888650138565.6471,43456428987027.195,386690950836727.3
5.823723841249277,1.1301460204031274e+16,6.993239394095495e+16,1.6981436352862636e+16,4.119291711252459e+16,148195872427.98102,940035982249.1462,45972864242852.73,409519175438915.0
6.040198318074262,1.1508079330401016e+16,7.1228984710639064e+16,1.7291899731760296e+16,4.194602723865634e+16,156611339359.46472,993417949545.064,48587023209778.12,433241357322745.06
6.261002284435747,1.171491878423307e+16,7.252795296971638e+16,1.7602694171862932e+16,4.269994043778549e+16,165350887164.48892,1048855660643.5331,51301816235259.82,457883553051798.2
6.486222330124463,1.1922037017009432e+16,7.382968799287496e+16,1.7913907501652688e+16,4.345486976083886e+16,174424212275.25702,1106410621117.1274,54120245447489.11,483472633093120.06
6.715946776726952,1.2129489624180552e+16,7.513456242635834e+16,1.8225623258173384e+16,4.4211017848733e+16,183841315814.27536,1166146269168.2988,57045407032451.375,510036300653914.2
6.950265712261491,1.2337329585670078e+16,7.644293378851434e+16,1.853792104840988e+16,4.496857780899533e+16,193612511343.8998,1228128024779.3005,60080493603065.2,537603111299888.1
7.18927102650672,1.2545607481254908e+16,7.775514581675536e+16,1.8850876872915584e+16,4.572773400080685e+16,203748432913.75513,1292423340751.3591,63228796659636.1,566202493344693.0
7.433056447036854,1.2754371683909868e+16,7.907152967991179e+16,1.9164563416329948e+16,4.648866273972858e+16,214260043405.11493,1359101755627.3142,66493709141231.29,595864769003182.9
7.681717575977592,1.2963668533766928e+16,8.039240507226696e+16,1.9479050308767292e+16,4.725153293176912e+16,225158643172.36728,1428234948498.474,69878728067902.195,626621176304070.4
7.935351927497144,1.3173542494970074e+16,8.171808120329154e+16,1.9794404361504984e+16,4.801650664510774e+16,236455878982.57077,1499896795702.0498,73387457273966.3,658503891760028.1
8.194058966047088,1.3384036297395666e+16,8.304885769519214e+16,2.0110689779931064e+16,4.878373962665445e+16,248163753254.91553,1574163429420.6538,77023610232806.6,691546053795489.9
8.45794014536803,1.359519106494556e+16,8.438502539876882e+16,2.0427968356315564e+16,4.95533817696677e+16,260294633602.5871,1651113298199.679,80791012973866.05,725781786934294.2
8.72709894827539,1.3807046431895904e+16,8.572686713670354e+16,2.074629964463492e+16,5.032557753783683e+16,272861262680.17456,1730827229402.4873,84693607092711.73,761246226751054.5
9.0016409272409,1.4019640648594672e+16,8.70746583822364e+16,2.1065741119391904e+16,5.110046635054104e+16,285876768340.31665,1813388493626.7788,88735452855221.14,797975545591641.9
9.281673745785717,1.4233010677637688e+16,8.842866788018126e+16,2.138634832012832e+16,5.187818293340333e+16,299354674103.80383,1898882871108.9111,92920732397096.33,836006979069559.6
9.567307220701432,1.4447192281513324e+16,8.978915821637754e+16,2.1708174983119172e+16,5.265885763774866e+16,313308909947.80786,1987398720145.791,97253753020065.17,875378853346208.6
9.85865336511546,1.4662220102585842e+16,9.115638634093818e+16,2.203127316155442e+16,5.344261673213646e+16,327753823417.3604,2079027047566.722,101738950586253.55,916130613204194.8
10.155826432417769,1.4878127736183352e+16,9.253060405001278e+16,2.235569333536007e+16,5.42295826687609e+16,342704191065.57166,2173861581290.1545,106380893012341.44,958302850923850.1
10.458942961066125,1.5094947797466824e+16,9.391205843023883e+16,2.2681484511674884e+16,5.501987432718251e+16,358175230228.4797,2271998845002.5615,111184283865223.88,1001937335974104.8
10.768121820287448,1.5312711982678538e+16,9.530099226957149e+16,2.3008694316881372e+16,5.581360723757473e+16,374182611140.74243,2373538234998.8843,116153966061009.1,1047077045529726.0
11.083484256693197,1.5531451125300614e+16,9.66976444377719e+16,2.333736908098918e+16,5.661089378541638e+16,390742469398.7321,2478582099226.1216,121294925669282.47,1093766195827766.8
11.405153941827061,1.5751195247595166e+16,9.810225023946424e+16,2.3667553915078284e+16,5.741184339935197e+16,407871418777.87756,2587235818573.472,126612295824659.66,1142050274376859.2
11.733257020663602,1.5971973607945688e+16,9.951504174236314e+16,2.399929278243399e+16,5.821656272374714e+16,425586564411.4171,2699607890454.4346,132111360747745.12,1191976073033684.2
12.067922161076874,1.6193814744374536e+16,1.0093624808298699e+17,2.4332628563935636e+16,5.902515577730642e+16,443905516337.99304,2815810014727.9707,137797559877690.9,1243591721961689.8
12.409280604298411,1.6416746514570876e+16,1.0236609575193658e+17,2.466760311820195e+16,5.9837724098971864e+16,462846403425.78625,2935957182007.59,143676492118640.22,1296946724487754.8
12.75746621638438,1.6640796132729064e+16,1.0380480886059688e+17,2.5004257336944172e+16,6.065436688219594e+16,482427887681.16766,3060167764408.8374,149753920202415.16,1352091992873140.8
13.112615540712067,1.6865990203466032e+16,1.0525260939093706e+17,2.5342631195929744e+16,6.147518109856786e+16,502669178950.071,3188563608787.3394,156035775169883.44,1409079885015716.5
13.474867851526309,1.7092354753059468e+16,1.067097174299111e+17,2.568276380192052e+16,6.2300261611674104e+16,523590050020.5651,3321270132521.016,162528160973515.22,1467964242100955.0
13.844365208556836,1.7319915258223794e+16,1.0817635138981709e+17,2.6024693435911092e+16,6.312970128198459e+16,545210852135.3138,3458416421891.6763,169237359203714.3,1528800427219876.0
14.221252512727972,1.7548696672619954e+16,1.0965272821583941e+17,2.6368457592962236e+16,6.396359106347891e+16,567552530922.8767,3600135333122.6636,176169833941573.34,1591645364972587.0
14.605677562982532,1.7778723451275928e+16,1.1113906358188395e+17,2.6714093018894736e+16,6.480202009265694e+16,590636642757.0032,3746563596130.655,183332236740778.22,1656557582076637.0
14.997791114242183,1.8010019573077448e+16,1.1263557207571098e+17,2.7061635744083772e+16,6.56450757705157e+16,614485371553.3207,3897841921051.197,190731411741448.4,1723597248999973.5
15.397746936527026,1.8242608561473744e+16,1.1414246737427618e+17,2.7411121114570944e+16,6.649284383802029e+16,639121546013.0238,4054115107598.8574,198374400918770.56,1792826222638758.8
15.805701875257567,1.847651350352944e+16,1.1565996241011235e+17,2.77625838206916e+16,6.734540844554639e+16,664568657323.4005,4215532157324.4272,206268449469347.3,1864308090060859.0
16.221815912762718,1.8711757067441388e+16,1.171882695295053e+17,2.811605792339537e+16,6.8202852216727864e+16,690850877325.2319,4382246388832.7466,214421011338243.12,1938108213336330.0
16.64625223101797,1.8948361518628644e+16,1.187276006431544e+17,2.847157687842273e+16,6.906525630710345e+16,717993077157.3328,4554415556026.298,222839754889780.94,2014293775476686.8
17.079177275638333,1.9186348734494012e+16,1.2027816736994691e+17,2.882917355848554e+16,6.99327004579211e+16,746020846388.6843,4732201969440.844,231532568725199.44,2092933827505309.8
17.5207608211511,1.942574021794642e+16,1.2184018117442416e+17,2.9188880273585644e+16,7.080526304542657e+16,774960512648.8418,4915772620740.778,240507567650343.8,2174099336681768.0
17.97117603757412,1.966655710976621e+16,1.234138534984663e+17,2.955072878959465e+16,7.168302112593317e+16,804839161767.499,5105299310443.22,249773098796626.9,2257863235903413.0
18.430599558325603,1.9908820199887276e+16,1.2499939588768288e+17,2.991475034520666e+16,7.256605047694501e+16,835684658434.2487,5300958778940.992,259337747898557.28,2344300474307981.0
18.899211549492115,2.015254993766496e+16,1.2659702011295435e+17,3.0280975667366144e+16,7.345442563458213e+16,867525667389.865,5502932840896.034,269210345731185.38,2433488069101551.5
19.37719578048196,2.039776644119096e+16,1.2820693828753454e+17,3.064943498526511e+16,7.434821992753282e+16,900391675160.5442,5711408523075.956,279399974710890.88,2525505158636614.0
19.864739696091597,2.064448950571335e+16,1.2982936298009789e+17,3.102015804299421e+16,7.524750550774392e+16,934313012346.777,5926578205707.649,289915975662977.7,2620433056765483.5
20.36203449001343,2.0892738611213076e+16,1.314645073240759e+17,3.1393174110927704e+16,7.61523533780367e+16,969320876478.704,6148639767423.328,300767954759610.56,2718355308494882.0
20.869275179813698,2.114253292918522e+16,1.3311258512361067e+17,3.176851199591257e+16,7.706283341682402e+16,1005447355450.0079,6377796733874.989,311965790631685.2,2819357746967804.0
21.38666068340997,2.139389132866925e+16,1.3477381095642776e+17,3.21462000503294e+16,7.797901440008968e+16,1042725451542.5538,6614258430095.243,323519641658274.0,2923528551799533.0
21.91439389707817,2.1646832381567828e+16,1.3644840027390355e+17,3.2526266180084732e+16,7.890096402077587e+16,1081189106054.2043,6858240136682.877,335439953437346.56,3030958308794865.0
22.452681775019734,2.190137436729249e+16,1.3813656949858931e+17,3.2908737851591144e+16,7.982874890571534e+16,1120873224542.3682,7109963249893.138,347737466441528.4,3141740071074362.5
23.00173541052013,2.2157535276769016e+16,1.398385361194357e+17,3.32936420977862e+16,8.076243463023182e+16,1161813702696.0818,7369655445713.542,360423223862698.0,3255969421637669.5
23.561770118730532,2.241533281583534e+16,1.4155451878494016e+17,3.368100552323767e+16,8.170208573052424e+16,1204047452849.5168,7637550848007.365,373508579649292.8,3373744537392660.0
24.133005521105144,2.267478440805992e+16,1.432847373944305e+17,3.4070854308378612e+16,8.26477657139403e+16,1247612431150.0366,7913890200807.652,387005206740234.0,3495166254679534.0
24.715665631527248,2.2935907197007772e+16,1.4502941318768432e+17,3.4463214212912184e+16,8.35995370672351e+16,1292547665394.042,8198921044845.991,400925105499439.6,3620338136319393.0
25.309978944157795,2.3198718047978904e+16,1.467887688330656e+17,3.4858110578423812e+16,8.455746126290853e+16,1338893283544.0466,8492897898401.075,415280612354935.8,3749366540217532.5
25.91617852304095,2.3463233549241612e+16,1.4856302851435968e+17,3.5255568330234316e+16,8.552159876369954e+16,1386690542940.5054,8796082442553.004,430084408646633.2,3882360689551922.5
26.53450209350177,2.372947001278195e+16,1.503524180164642e+17,3.56556119785263e+16,8.649200902531979e+16,1435981860222.1667,9108743710930.44,445349529686882.06,4019432744578081.5
27.165192135371807,2.399744347458902e+16,1.5215716481009834e+17,3.605826561877244e+16,8.746875049749136e+16,1486810841968.7305,9431158284038.227,461089374037955.5,4160697876081656.0
27.808495978079243,2.4267169694493564e+16,1.539774981356727e+17,3.646355293149307e+16,8.845188062335995e+16,1539222316079.8628,9763610488254.473,477317713010662.4,4306274340511044.0
28.464665897640828,2.4538664155576988e+16,1.558136490864601e+17,3.68714971813684e+16,8.944145583734053e+16,1593262363904.631,10106392599586.182,494048700388340.9,4456283556822305.0
29.133959215593645,2.4811942063166336e+16,1.5766585069120365e+17,3.7282121215728264e+16,9.043753156145363e+16,1648978353135.611,10459805052274.016,511296882380501.5,4610850185069473.0
29.816638399905518,2.50870183434291e+16,1.595343379962828e+17,3.76954474624406e+16,9.144016220020509e+16,1706418971481.9934,10824156652337.072,529077207810450.1,4770102206773652.0
30.51297116790363,2.5363907641582084e+16,1.614193481475612e+17,3.811149792722013e+16,9.244940113405549e+16,1765634261136.1458,11199764796148.998,547405038541251.0,4934171007104953.0
31.223230591261704,2.564262431972546e+16,1.63321120472031e+17,3.853029419037406e+16,9.346530071152757e+16,1826675654048.1562,11586955694137.99,566296160144414.2,5103191458911421.0
31.947695203086937,2.592318245431499e+16,1.6523989655936346e+17,3.895185740300359e+16,9.448791223999128e+16,1889596008022.971,11986064599703.164,585766792815732.4,5277302008630090.0
32.686649107148675,2.620559583328205e+16,1.6717592034347142e+17,3.937620828267687e+16,9.551728597516731e+16,1954449643654.8381,12397436043440.67,605833602542738.4,5456644764115260.0
33.44038208929165,2.6489877952811972e+16,1.691294381841874e+17,3.980336710858756e+16,9.655347110938501e+16,2021292382113.8105,12821424072772.898,626513712528229.0,5641365584419857.0
34.20918973107749,2.677604201379022e+16,1.711006989491547e+17,4.023335371621565e+16,9.759651575862718e+16,2090181583799.0803,13258392497074.893,647824714874403.0,5831614171566120.0
34.993373525699035,2.7064100917924732e+16,1.7308995409602477e+17,4.066618749150032e+16,9.864646694839914e+16,2161176187874.0618,13708715138392.227,669784682532102.1,6027544164342208.0
35.793240996213015,2.7354067263553124e+16,1.750974577550597e+17,4.110188736454036e+16,9.970337059844402e+16,2234336752698.0283,14172776087844.436,692412181519722.4,6229313234161889.0
36.60910581613728,2.7645953341142176e+16,1.7712346681221987e+17,4.154047180283157e+16,1.0076727150634035e+17,2309725497169.231,14650969967808.605,715726283416347.4,6437083183024739.0
37.44128793246003,2.793977112848704e+16,1.7916824099283462e+17,4.1981958804052936e+16,1.018382133300032e+17,2387406342994.3916,15143702199977.65,739746578133674.9,6651020043615009.0
38.29011369110923,2.8235532285616924e+16,1.8123204294593126e+17,4.2426365888412424e+16,1.029162385691161e+17,2467444957899.4043,15651389279387.42,764493186971310.2,6871294181577239.0
39.15591596493141,2.8533248149414148e+16,1.83315138329315e+17,4.287371009056136e+16,1.0400138854551742e+17,2549908799796.16,16174459054507.062,789986775960021.4,7098080400007641.0
