t(s),Total solute volume 1,Total retention volume 1,Total 1 volume 1,Total 2 volume 1,Total 3 volume 1,Total 4 volume 1,Total 5 volume 1,Total 6 volume 1
0.1,803801399340899.0,888695292650996.4,42833262785020.44,42060630525076.21,0.0,0.0,0.0,0.0
0.202,1211233983465790.0,1339161643868428.5,64544679319445.46,63380413686060.625,7773103.767582337,12357017.993035525,134895207.06256393,2412371799.3940544
0.30604000000000003,1521491126136481.5,1682190699466962.5,81077775370771.86,79615283536339.67,19723116.558048595,31354131.549354102,342277161.72018,6121068961.244199
0.41216080000000005,1783915109437024.2,1972335782461564.0,95061920534465.73,93347180810267.42,35034443.19929706,55694776.38230341,607991817.1240822,10872958770.140213
0.5204040160000001,2016964549026516.8,2230004905083000.5,107480744272785.11,105541992135249.84,53345236.80563552,84803719.10453075,925759622.8887262,16555739870.528807
0.6308120963200001,2229834073383484.8,2465363727081335.5,118824213310206.94,116680846151387.67,74461451.45202112,118372482.06970884,1292213077.3664541,23109189249.438934
0.7434283382464002,2427867177271882.5,2684320062507153.0,129377073749460.66,127043352673329.12,98272184.90646642,156224762.41627446,1705427567.743736,30498887961.134575
0.8582969050113283,2614486787410397.5,2890658331570169.0,139321727761010.9,136808623676814.86,124714902.21433902,198261147.4733779,2164317854.1455464,38705428037.930405
0.9754628431115548,2792038413479058.0,3086971755809635.0,148783163722224.5,146099392982119.88,153758303.1071852,244431878.82312253,2668340747.953298,47719095304.515305
1.094972099973786,2962210936812782.5,3275127585466254.5,157851379359138.44,155004034924224.4,185392834.96194485,294721770.60977334,3217330472.2790885,57536925034.770615
1.2168715419732616,3126267600698891.0,3456522484054735.5,166593690841889.03,163588651415148.88,219624992.7463397,349141148.0778958,3811399742.391875,68160932918.44347
1.3412089728127268,3285182240174042.0,3632233144938969.5,175061992247940.97,171904200460014.47,256473682.83596745,407720067.0783478,4450876662.884481,79596986559.26999
1.4680331522689813,3439724259995074.0,3803110243492827.5,183297283899268.88,179990942811475.97,295967795.69434035,470504455.32183033,5136262603.62576,91854052148.39859
1.597393815314361,3590514089013692.5,3969839747762465.5,191332627435347.38,187881343738709.16,338144527.79464483,537553444.7132413,5868203078.161723,104943673667.66342
1.729341691620648,3738060736819899.5,4132984441280136.5,199195147145299.78,195602038259259.66,383048189.62166303,608937476.4149479,6647467057.620949,118879602949.46767
1.863928525453061,3882788032478506.5,4293012932732563.0,206907428187280.4,203175204137160.25,430729341.1850369,684736926.5597597,7474931968.298101,133677531380.8608
2.001207095962122,4025053447232643.0,4450320466446992.5,214488519621049.4,210619546825824.16,481244155.4826952,765041095.1799921,8351572803.695678,149354909422.33545
2.1412312378813647,4165161908267882.0,4605244194852922.0,221954670514924.1,217951022284176.28,534653944.3843197,849947449.1411908,9278453263.186598,165930731278.10196
2.284055862638992,4303376139087026.5,4758074610984713.0,229319880976543.03,225183378087409.7,591024804.927276,939561064.8834889,10256720562.95074,183425527291.35248
2.4297369798917723,4439924536069184.0,4909064256745590.0,236596321875653.4,232328565565479.97,650427353.9304188,1033994203.1833886,11287600198.156511,201861213522.65216
2.578331719489608,4575007261227068.0,5058434459113394.0,243794659518765.5,239397058624619.84,712936531.3287724,1133365997.3497555,12372392688.012241,221261047721.35333
2.7298983538794,4708801020448616.0,5206380612990994.0,250924310273835.72,246398103779072.12,778631456.397861,1237802224.6620889,13512471080.669985,241649584704.51678
2.884496320956988,4841462857330381.0,5353076375693768.0,257993642737450.34,253339918671546.47,847595325.8450344,1347435144.3653767,14709279184.694757,263052644729.22592
3.0421862473761276,4973133199137367.0,5498677034587412.0,265010140049044.2,260229851459600.16,919915345.500697,1462403389.0792959,15964330383.631754,285497292292.7383
3.2030299723236504,5103938327146595.0,5643322238324661.0,271980531531474.22,267074510081656.7,995682689.382299,1582851899.7222848,17279206925.604393,309011823427.85394
3.3670905717701234,5233992398685572.0,5787138232436224.0,278910900442142.28,273879868064500.75,1074992481.3830464,1708931896.40253,18655559605.545464,333625760019.92676
3.5344323832055258,5363399116229716.0,5930239704711031.0,285806772916472.5,280651351862378.38,1157943795.9262125,1840800879.45891,20095107776.560123,359369850009.91846
3.7051210308696363,5492253115875121.0,6072731320318851.0,292673191957348.94,287393913511810.44,1244639674.7384613,1978622656.126551,21599639641.021397,386276072600.01764
3.879223451487029,5620641130645878.0,6214709007991000.0,299514779425868.94,294112091504139.44,1335187157.5093544,2122567389.277597,23171012782.648026,414377647768.8957
4.0568079205167695,5748642971611739.0,6356261044773305.0,306335788323495.2,300810062124612.94,1429697324.6737049,2272811665.433756,24811154908.96506,443709049549.29126
4.237944078927105,5876332360438718.0,6497468976524769.0,313140147157318.06,307491683017382.9,1528285350.915839,2429538579.823804,26522064779.833958,474306022633.2007
4.422702960505647,6003777639912465.0,6638408403503974.0,319931497802683.1,314160530365154.94,1631070568.278008,2592937836.70892,28305813302.65519,506205601957.72394
4.61115701971576,6131042383557803.0,6779149654397660.0,326713227988825.06,320819930788849.06,1738176537.9780767,2763205863.553347,30164544778.71337,539446134993.86536
4.803380160110075,6258185921295625.0,6919758367521480.0,333488499310256.7,327472988853708.94,1849731130.2189481,2940545937.899754,32100478288.212708,574067306515.588
4.9994477633122765,6385263794823564.0,7060295994324725.0,340260271493269.44,334122610898081.7,1965866611.4143484,3125168326.0344024,34115909204.017067,610110165670.5543
5.199436718578522,6512328153850963.0,7200820237505074.0,347031323510637.25,340771525767260.25,2086719738.37043,3317290432.710325,36213210826.103676,647617155209.6403
5.403425452950093,6639428102298196.0,7341385433805032.0,353804272030021.94,347422302929098.8,2212431859.056416,3517136961.3451676,38394836130.36445,686632142761.3522
5.611493962009095,6766610001960774.0,7482042889783195.0,360581587595732.56,354077368363898.6,2343149019.6743608,3724940084.2328105,40663319626.72291,727200454061.2097
5.823723841249277,6893917739848095.0,7622841177425437.0,367365608874769.25,360739018553468.0,2479022077.8016157,3940939622.4091945,43021279322.64039,769368908065.8097
6.040198318074262,7021392964365722.0,7763826395310949.0,374158555242595.5,367409432839875.25,2620206821.4329925,4165383234.8966756,45471418789.00453,813185853897.8645
6.261002284435747,7149075294664663.0,7905042400113393.0,380962537939012.8,374090684380094.9,2766864093.793619,4398526617.1226015,48016529326.16612,858701209582.2148
6.486222330124463,7277002506791333.0,8046531012454238.0,387779569987794.1,380784749886706.7,2919159923.8318043,4640633708.367276,50659492228.548035,905966502544.6266
6.715946776726952,7405210699706301.0,8188332200500590.0,394611575043547.6,387493518315176.9,3077265662.3329396,4891976908.148017,53403281146.80276,955034911855.1072
6.950265712261491,7533734443772319.0,8330484244182711.0,401460395304402.0,394218798633815.25,3241358123.623355,5152837301.48961,56250964546.979866,1005961312206.0807
7.18927102650672,7662606913926019.0,8473023882479318.0,408327798608508.3,400962326792272.1,3411619732.8568416,5423504893.069878,59205708266.5778,1058802319623.1597
7.433056447036854,7791860009425015.0,8615986445862338.0,415215484815168.94,407725771987557.4,3588238678.8976026,5704278850.261904,62270778167.71691,1113616338912.7883
7.681717575977592,7921524461793370.0,8759405975695554.0,422125091557073.3,414510742312521.44,3771409072.831701,5995467755.12409,65449542887.99108,1170463612856.6863
7.935351927497144,8051629932362017.0,8903315332130788.0,429058199438069.3,421318789859866.3,3961331112.155326,6297389865.414997,68745476689.8393,1229406273168.1646
8.194058966047088,8182205100610160.0,9047746291835958.0,436016336740726.06,428151415344796.5,4158211250.7031612,6610373384.73321,72162162409.52844,1290508393229.824
8.45794014536803,8313277744352764.0,9192729636709446.0,443000983699405.44,435010072301005.25,4362262374.3929,6934756741.903477,75703294507.07712,1353836042636.3997
8.72709894827539,8444874812681980.0,9338295234585302.0,450013576387181.9,441896170897488.25,4573703982.87427,7270888879.749485,79372682218.64479,1419457343570.0237
9.0016409272409,8577022492453964.0,9484472112804174.0,457055510258819.3,448811081417608.56,4792762377.181945,7619129553.411115,83174252813.115,1487442529038.8362
9.281673745785717,8709746269012718.0,9631288525414434.0,464128143386647.5,455756137436603.3,5019670853.501895,7979849638.380473,87112054954.77484,1557864003012.9229
9.567307220701432,8843070981757044.0,9778772014673912.0,471232799421628.9,462732638729240.4,5254669903.170079,8353431448.445859,91190262174.15308,1630796402494.4922
9.85865336511546,8977020875083190.0,9926949467441206.0,478370770308015.7,469741853935508.6,5498007419.031869,8740269063.747599,95413176449.2442,1706316661562.1199
10.155826432417769,9111619645172364.0,1.0075847166974736e+16,485543318776574.8,476785023008867.94,5749938908.298693,9140768669.162477,99785231899.48773,1784504077431.3984
10.458942961066125,9246890483037072.0,1.0225490840598074e+16,492751680638458.44,483863359468741.6,6010727712.04655,9555348903.247498,104310998595.01279,1865440378576.94
10.768121820287448,9382856114192988.0,1.0375905703636588e+16,499997066899254.7,490978052476434.2,6280645231.508985,9984441217.984694,108995186483.80045,1949209794963.0984
11.083484256693197,9519538835281334.0,1.0527116499984638e+16,507280665710533.06,498130268751479.3,6559971161.325041,10428490249.582796,113842649439.53926,2035899130433.0686
11.405153941827061,9656960547930802.0,1.0679147539623316e+16,514603644174288.3,505321154343527.7,6848993729.909022,10887954200.600523,118858389433.08327,2125597837308.3918
11.733257020663602,9795142790116176.0,1.0832022733372716e+16,521967150013996.25,512551836273266.2,7148009947.117524,11363305233.67091,124047560830.54189,2218398093253.0894
12.067922161076874,9934106765243538.0,1.098576562513341e+16,529372313124512.1,519823424054351.6,7457325859.395038,11855029877.114382,129415474821.16425,2314394880458.8267
12.409280604298411,1.007387336916722e+16,1.1140399421843532e+16,536820247011758.94,527137011107139.1,7777256812.587187,12363629442.741629,134967603978.28604,2413686067209.736
12.75746621638438,1.0214463215322394e+16,1.1295947021355234e+16,544312050132008.9,534493676073797.56,8108127722.617385,12889620456.157228,140709586956.7417,2516372491887.58
13.112615540712067,1.035589665813872e+16,1.1452431038412998e+16,551848807139549.75,541894484043475.2,8450273354.229241,13433535099.885778,146647233330.25726,2622558049480.285
13.474867851526309,1.049819381488271e+16,1.160987382889812e+16,559431590050635.2,549340487695251.94,8804038608.004824,13995921669.654295,152786528572.4605,2732349780658.6216
13.844365208556836,1.0641374586063018e+16,1.1768297512486292e+16,567061459330842.6,556832728365883.4,9169778815.874174,14577345044.174398,159133639185.25885,2845857963488.4126
14.221252512727972,1.078545867451833e+16,1.1927723993852226e+16,574739464912243.8,564372237048626.1,9547860045.340548,15178387168.778757,165694917978.46365,2963196207847.3433
14.605677562982532,1.093046560329688e+16,1.2088174982540958e+16,582466647146174.5,571960035328814.0,9938659412.649868,15799647553.278376,172476909504.6492,3084481552617.7627
14.997791114242183,1.1076414732425594e+16,1.2249672011614314e+16,590244037696820.6,579597136261341.6,10342565405.142317,16441743784.415834,179486355653.35156,3209834565729.0527
15.397746936527026,1.1223325274657072e+16,1.2412236455170874e+16,598072660380371.2,587284545194658.4,10759978213.029202,17105312053.303127,186730201408.8446,3339379447124.9727
15.805701875257567,1.1371216310275002e+16,1.25758895448277e+16,605953531953957.8,595023260545493.4,11191310070.845358,17791007698.24077,194215600775.82422,3473244134733.7505
16.221815912762718,1.152010680102979e+16,1.2740652385243854e+16,613887662858265.6,602814274528068.9,11636985608.834034,18499505763.3272,201949922877.46848,3611560413520.6104
16.64625223101797,1.1670015603269952e+16,1.2906545968758222e+16,621876057917291.8,610658573841224.8,12097442214.5277,19231501573.27716,209940758230.43976,3754464027704.372
17.079177275638333,1.182096148032791e+16,1.3073591189205944e+16,629919716998349.0,618557140316534.1,12573130404.79447,19987711324.8783,218195925201.51285,3902094796221.9287
17.5207608211511,1.197296311421208e+16,1.3241808854972412e+16,638019635635131.2,626510951530122.2,13064514208.625948,20768872695.52301,226723476650.61047,4054596731526.074
17.97117603757412,1.2126039116653066e+16,1.3411219701335664e+16,646176805616347.8,634520981380667.2,13572071560.948088,21575745469.264874,235531706765.13913,4212118161804.029
18.430599558325603,1.2280208039543992e+16,1.3581844402143426e+16,654392215542052.4,642588200635729.1,14096294707.741331,22409112180.854218,244629158090.58954,4374811856705.524
18.899211549492115,1.24354883848112e+16,1.3753703580863944e+16,662666851349664.0,650713577448251.1,14637690622.761917,23269778778.215786,254024628762.46207,4542835156670.922
19.37719578048196,1.2591898613745994e+16,1.3926817821044686e+16,671001696811220.4,658898077844847.2,15196781436.158503,24158575303.838654,263727179944.6378,4716350105950.713
19.864739696091597,1.274945715582148e+16,1.410120767620626e+16,679397734003217.9,667142666187189.2,15774104875.28295,25076356595.549988,273746143479.35638,4895523589408.944
20.36203449001343,1.2908182417014792e+16,1.4276893679193038e+16,687855943750095.1,675448305607460.6,16370214717.993675,26024003007.150345,284091129754.0043,5080527473203.143
20.869275179813698,1.3068092787647814e+16,1.445389635099614e+16,696377306042043.9,683815958418656.1,16985681258.751455,27002421149.385735,294772035789.8996,5271538749434.024
21.38666068340997,1.3229206649754334e+16,1.4632236209056892e+16,704962800427595.9,692246586500074.0,17621091787.80527,28012544651.729,305799053558.24896,5468739684856.861
21.91439389707817,1.3391542383974884e+16,1.481193377505231e+16,713613406381041.5,700741151658099.8,18277051083.761627,29055334945.438793,317182678528.3577,5672317973745.803
22.452681775019734,1.3555118375973478e+16,1.4993009582157276e+16,722330103644363.8,709300615961995.9,18954181919.825386,30131782068.351734,328933718453.1033,5882466895000.401
23.00173541052013,1.3719953022364394e+16,1.5175484181768504e+16,731113872543061.6,717925942054004.5,19653125583.98891,31242905491.850452,341063302396.46387,6099385473580.051
23.561770118730532,1.388606473612756e+16,1.5359378149668758e+16,739965694274736.0,726618093432737.1,20374542413.436073,32389754970.42905,353582890007.74414,6323278646349.375
24.133005521105144,1.4053471951484612e+16,1.5544712091599088e+16,748886551168924.1,735378034708327.8,21119112343.408943,33573411414.251022,366504281046.77057,6554357432410.879
24.715665631527248,1.4222193128198252e+16,1.573150664819826e+16,757877426916198.8,744206731827386.4,21887535470.765663,34794987785.06306,379839625164.05994,6792839107996.145
25.309978944157795,1.4392246755247806e+16,1.5919782499257776e+16,766939306764044.5,753105152265353.8,22680532632.43188,36055630015.785805,393601431939.43176,7038947385978.04
25.91617852304095,1.4563651353825082e+16,1.6109560367230022e+16,776073177676489.0,762074265183249.9,23498845998.91655,37356517954.05376,407802581182.0674,7292912600057.149
26.53450209350177,1.473642547958402e+16,1.6300861019916584e+16,785280028453993.9,771115041545392.9,24343239683.028103,38698866329.92075,422456333494.3413,7554971893664.213
27.165192135371807,1.4910587724066608e+16,1.6493705272250878e+16,794560849809432.5,780228454194020.6,25214500363.88214,40083925747.8742,437576341101.03235,7825369413607.121
27.808495978079243,1.508615671521794e+16,1.6688113987078808e+16,803916634395543.8,789415477876239.1,26113437926.242664,41512983703.228226,453176658944.63403,8104356508475.371
28.464665897640828,1.5263151116891616e+16,1.6884108074827866e+16,813348376778560.1,798677089218131.0,27040886115.183723,42987365622.87119,469271756046.528,8392191931797.662
29.133959215593645,1.5441589627235468e+16,1.7081708491944206e+16,822857073352212.0,808014266640306.0,27997703205.991295,44508435930.24338,485876527132.65375,8689142049927.961
29.816638399905518,1.5621490975838814e+16,1.7280936237964036e+16,832443722185674.9,817427990208597.5,28984772689.156258,46077599134.305016,503006304521.04877,8995481054613.498
30.51297116790363,1.5802873919509196e+16,1.7481812351076194e+16,842109322798555.0,826919241413095.6,30003003970.226753,47696300942.12869,520676870267.2759,9311491180172.877
31.223230591261704,1.5985757236540118e+16,1.7684357902019926e+16,851854875855396.4,836489002868184.5,31053333084.202232,49366029394.61007,538904468562.21185,9637462925185.66
31.947695203086937,1.6170159719319912e+16,1.7888593986153928e+16,861681382771836.6,846138257925776.2,32136723424.05398,51088316024.63625,557705818374.9679,9973695278564.355
32.686649107148675,1.6356100165125106e+16,1.8094541713522396e+16,871589845223995.5,855867990193572.5,33254166482.853073,52864737036.88881,577098126331.9861,10320495949847.963
33.44038208929165,1.6543597364935126e+16,1.830222219673775e+16,881581264552426.5,865679182949749.1,34406682608.87515,54696914508.27627,597099099821.3058,10678181603521.14
34.20918973107749,1.6732670090099016e+16,1.851165653649275e+16,891656641051613.2,875572818445283.9,35595321772.93011,56586517607.80316,617726960309.0149,11047078097125.84
34.993373525699035,1.6923337076682908e+16,1.872286580451155e+16,901816973135859.4,885549877084879.9,36821164347.040146,58535263834.48082,639000456852.6292,11427520722892.963
35.793240996213015,1.7115617007322978e+16,1.893587102374722e+16,912063256372290.5,895611336477418.1,38085321893.45369,60544920271.672585,660938879793.8424,11819854452580.545
36.60910581613728,1.7309528490412152e+16,1.9150693145633284e+16,922396482371706.4,905758170346812.6,39388937962.84662,62617304856.04177,683562074610.728,12224434185161.117
37.44128793246003,1.7505090036448052e+16,1.9367353024200076e+16,932817637528232.9,915991347294398.9,40733188900.413376,64754287659.05033,706890455906.875,12641624996956.457
38.29011369110923,1.7702320031376804e+16,1.9585871386871856e+16,943327701598858.4,926311829404084.4,42119284658.40701,66957792178.70527,730945021512.4165,13071802393771.967
39.15591596493141,1.790123670677516e+16,1.9806268801769108e+16,953927646114456.9,936720570682051.5,43548469613.530914,69229796639.02402,755747366669.3075,13515352564535.375
40.03903428423004,1.810185810672025e+16,2.002856564135063e+16,964618432614369.0,947218515323166.9,45022023387.43413,71572335294.4343,781319698270.4346,13972672635897.076
40.93981496991464,1.830420205121286e+16,2.025278204224484e+16,975401010697259.9,957806595797004.1,46541261668.40569,73987499736.08124,807684849119.5712,14444170927201.414
41.85861126931294,1.850828609603182e+16,2.0478937861135428e+16,986276315881842.5,968485730747154.9,48107537032.209915,76477440196.77321,834866292176.4166,14930267205189.512
42.7957834946992,1.8714127488916348e+16,2.0707052626585708e+16,997245267271893.0,979256822698367.0,49722239759.85041,79044366851.0458,862888154748.3716,15431392937748.367
43.751699164593184,1.8921743121992256e+16,2.0937145486708852e+16,1008308765021139.0,990120755567150.2,51386798649.90228,81690551106.59454,891775232588.0511,15947991545972.398
44.72673314788505,1.9131149480380904e+16,2.116923515261456e+16,1019467687594691.0,1001078391972626.0,53102681822.90427,84418326883.08612,921553003853.0317,16480518653760.22
45.721267810842754,1.9342362586952692e+16,2.140333983758978e+16,1030722888825067.6,1012130570345632.8,54871397515.16408,87230091874.1439,952247642881.8901,17029442334124.512
