t(s),Total solute volume 1,Total retention volume 1,Total 1 volume 1,Total 2 volume 1,Total 3 volume 1,Total 4 volume 1,Total 5 volume 1,Total 6 volume 1
0.1,1252217186918146.0,2056959543180943.2,321479351742078.75,483263004520719.3,0.0,0.0,0.0,0.0
0.202,1872895167984960.2,3107176657201381.5,480824845024420.1,722798753695885.2,9949250958.3695,30451013793.985077,885942772565.7301,29731547458796.645
0.30604000000000003,2338066419125405.5,3918088274879594.5,600247384339595.9,902320395747382.8,25088828466.496548,76788058043.29645,2234450174917.012,75117748605784.55
0.41216080000000005,2724732409808093.0,4612651119347225.0,699515415667860.5,1051544820844501.0,44296485883.19006,135576206009.69443,3945397117105.635,132733203217770.78
0.5204040160000001,3062069975458797.5,5237142962258346.0,786119453316324.2,1181732128129046.8,67041533925.05382,205191196082.76752,5971490955533.218,200977681668636.78
0.6308120963200001,3364701002031101.5,5814618539733000.0,863813346584048.6,1298525282751139.2,93013089867.27393,284681530416.7236,8285033413396.213,278916180333035.62
0.7434283382464002,3641163037581250.0,6358475938958969.0,934788924115798.6,1405219145852672.8,122008978008.33882,373428429217.1406,10868013571575.598,365941380430440.0
0.8582969050113283,3896946896276642.0,6877303320559854.0,1000455832292066.8,1503932764926196.8,153889800379.8986,471005255185.8072,13708014194421.656,461634917814959.94
0.9754628431115548,4135828084500300.0,7376995236631800.0,1061783349753437.4,1596123205713947.0,188556164707.37088,577107815589.1189,16796182442264.695,565698750241558.9
1.094972099973786,4360533265694531.5,7861807989628037.0,1119471487667028.1,1682842758280422.5,225935985878.44894,691515496223.3132,20126098376714.33,677916928127237.9
1.2168715419732616,4573107105807622.0,8334938376352283.0,1174045169267823.8,1764880512182784.8,265976794508.35574,814067720506.9915,23693089661090.883,798132454917946.9
1.3412089728127268,4775129175988538.0,8798864625520677.0,1225909914879202.0,1842846064843563.0,308640783054.9697,944648787324.6368,27493790191733.652,926232390047258.0
1.4680331522689813,4967849582071087.0,9255558820230050.0,1275386661814982.2,1917221864483902.2,353901459986.45654,1083177630589.9504,31525842008228.676,1062137790761279.5
1.597393815314361,5152277680692812.0,9706625356302704.0,1322734540301534.0,1988397447972861.2,401741303068.8891,1229600636784.0654,35787686222821.234,1205796659172811.8
1.729341691620648,5329242299676711.0,1.0153394605420794e+16,1368166333742921.0,2056692681433193.5,452150062129.3533,1383886450321.5115,40278411814925.78,1357178842240607.2
1.863928525453061,5499433904250750.0,1.0596988279646894e+16,1411859303974985.5,2122374033277937.0,505123500017.948,1546022120096.2812,44997643466181.734,1516272249056930.0
2.001207095962122,5663434911265898.0,1.1038366272405608e+16,1453962973777424.5,2185666273252585.5,560662438595.9773,1716010179610.7283,49945456570806.98,1683079984920692.0
2.1412312378813647,5821741983486728.0,1.1478361001065644e+16,1494604850444989.2,2246761076379367.2,618772022771.0521,1893866394473.0513,55122311671849.85,1857618140665456.5
2.284055862638992,5974782752973547.0,1.1917703092515136e+16,1533894719149861.2,2305823476943684.0,679461144019.5978,2079617998032.3882,60529003106087.22,2039914061199890.8
2.4297369798917723,6122928585195406.0,1.235704093367476e+16,1571927919848339.5,2362996794495966.5,742741982923.4214,2273302291276.433,66166618251720.81,2230004971609135.8
2.578331719489608,6266504472001349.0,1.2796955785684542e+16,1608787887084687.2,2418406451805533.5,808629642099.2004,2474965519392.057,72036504828997.16,2427936874802473.5
2.7298983538794,6405796804947311.0,1.3237973632232812e+16,1644548145622697.0,2472162974788816.0,877141848868.8043,2684661961779.9062,78140244413861.11,2633763658649472.0
2.884496320956988,6541059558554556.0,1.368057458494145e+16,1679273897861975.8,2524364378788967.0,948298712499.212,2902453189089.2095,84479630813055.0,2847546367021304.5
3.0421862473761276,6672519263487363.0,1.4125200434917526e+16,1713023300592469.0,2575098087853916.5,1022122524687.3495,3128407452611.845,91056652291775.58,3069352600714712.5
3.2030299723236504,6800379046775371.0,1.4572260779131492e+16,1745848502233134.8,2624442493962842.5,1098637594713.7997,3362599179787.292,97873476889865.19,3299256022495782.5
3.3670905717701234,6924821944189417.0,1.5022138038168084e+16,1777796493211960.2,2672468235357842.0,1177870112685.788,3605108555680.892,104932440240393.11,3537335946500086.5
3.5344323832055258,7046013638628190.0,1.547519160226637e+16,1808909808986764.5,2719239253358179.0,1259848035761.533,3856021174801.7134,112236035435578.38,3783676996647087.0
3.7051210308696363,7164104741351720.0,1.5931761285158532e+16,1839227115702008.8,2764813672747484.0,1344600993347.4375,4115427750991.5586,119786904582955.33,4038368822030046.5
3.879223451487029,7279232705790001.0,1.6392170223262236e+16,1868783701517269.2,2809244540361984.0,1432160208091.1748,4383423875661.547,127587831768772.22,4301505859740449.5
4.0568079205167695,7391523443553578.0,1.6856727326733018e+16,1897611891482569.0,2852580448750883.0,1522558430129.7979,4660109816599.698,135641737202262.16,4573187137497001.0
4.237944078927105,7501092697195958.0,1.7325729365639218e+16,1925741399965107.5,2894866065960958.0,1615829882543.5303,4945590351077.258,143951672358235.6,4853516109925349.0
4.422702960505647,7608047212846828.0,1.7799462756931598e+16,1953199631697164.8,2936142588086033.0,1712010216349.6294,5239974628155.992,152520815969611.62,5142600523487464.0
4.61115701971576,7712485747081636.0,1.827820510443798e+16,1980011940267824.0,2976448127844061.0,1811136473672.6274,5543376056022.763,161352470748411.38,5440552305966365.0
4.803380160110075,7814499935629134.0,1.8762226533743864e+16,2006201851144634.8,3015818049833879.5,1913247057967.166,5855912210911.939,170450060735106.66,5747487477132208.0
4.9994477633122765,7914175046245606.0,1.9251790855752196e+16,2031791254957582.0,3054285261088837.5,2018381710361.4277,6177704764763.344,179817129193300.88,6063526077791778.0
5.199436718578522,8011590633941096.0,1.974715658638982e+16,2056800575714091.2,3091880463945600.0,2126581491343.7815,6508879429236.286,189457336980498.1,6388792114887914.0
5.403425452950093,8106821113462638.0,2.024857784492443e+16,2081248917771562.8,3128632376980246.0,2237888767140.7505,6849565914084.933,199374461336886.97,6723413520691885.0
5.611493962009095,8199936261323722.0,2.0756305149381692e+16,2105154194722438.8,3164567928754414.0,2352347200236.8516,7199897898213.054,209572395043199.88,7067522124439408.0
5.823723841249277,8291001657569493.0,2.1270586124356892e+16,2128533242807778.2,3199712428304001.5,2470001743570.95,7560013011984.348,220055145906198.75,7421253635013871.0
6.040198318074262,8380079075771362.0,2.179166613395229e+16,2151401921039813.5,3234089715648107.0,2590898638013.4663,7930052829577.171,230826836536540.62,7784747633488842.0
6.261002284435747,8467226828366296.0,2.2319788850478684e+16,2173775199860262.5,3267722295064462.5,2715085412786.4043,8310162870349.371,241891704388916.88,8158147574515613.0
6.486222330124463,8552500073329954.0,2.2855196767866444e+16,2195667239871948.0,3300631453442530.5,2842610888536.5107,8700492608326.656,253254102038669.03,8541600795686480.0
6.715946776726952,8635951087247908.0,2.3398131667330584e+16,2217091461943844.0,3332837365668711.5,2973525182812.3516,9101195489051.973,264918497672673.78,8935258534125584.0
6.950265712261491,8717629509084926.0,2.3948835041690176e+16,2238060609793532.2,3364359188703326.5,3107879717730.231,9512428953137.533,276889475775358.38,9339275949662146.0
7.18927102650672,8797582558318882.0,2.450754848378752e+16,2258586805988272.0,3395215145764014.0,3245727229642.805,9934354465950.135,289171737993253.56,9753812154027546.0
7.433056447036854,8875855230577295.0,2.5074514043663308e+16,2278681602170444.0,3425422601827064.5,3387121780648.8457,10367137552935.443,301770104163712.0,1.0179030245591206e+16
7.681717575977592,8952490473472893.0,2.5649974558480684e+16,2298356024199430.5,3454998131486830.5,3532118771803.6797,10810947840151.268,314689513495268.94,1.0615097349214328e+16
7.935351927497144,9027529344962292.0,2.623417395863884e+16,2317620612806802.5,3483957580070467.5,3680774957907.752,11265959099635.287,327935025888749.56,1.1062184660852992e+16
8.194058966047088,9101011156238656.0,2.682735755304703e+16,2336485460280823.5,3512316118783934.0,3833148463766.4624,11732349299279.787,341511823389598.1,1.1520467496590988e+16
8.45794014536803,9172973600903530.0,2.7429772296137372e+16,2354960243628508.0,3540088294562710.5,3989298801827.6973,12210300656927.838,355425211763102.2,1.1990125345820714e+16
8.72709894827539,9243452871936706.0,2.8041667038857284e+16,2373054254605119.0,3567288075213530.0,4149286891115.2437,12699999698440.172,369680622185231.4,1.2471341928327134e+16
9.0016409272409,9312483767790746.0,2.8663292765600604e+16,2390776426951564.5,3593928890359006.5,4313175077386.372,13201637319513.676,384283613042702.5,1.2964305255059684e+16
9.281673745785717,9380099788771588.0,2.929490281878854e+16,2408135361138000.5,3620023668633366.0,4481027154450.791,13715408851059.557,399239871836696.9,1.3469207692403394e+16
9.567307220701432,9446333224724638.0,2.9936753112607236e+16,2425139346875376.0,3645584871522820.0,4652908386595.92,14241514127972.697,414555217185307.8,1.398624602978452e+16
9.85865336511546,9511215234924378.0,3.058910233722595e+16,2441796383625254.0,3670624524197006.0,4828885532070.382,14780157561145.201,430235600920465.56,1.451562155046561e+16
10.155826432417769,9574775920959052.0,3.125221215466783e+16,2458114199311471.0,3695154243637142.0,5009026867583.504,15331548212595.61,446287110275574.1,1.5057540105404368e+16
10.458942961066125,9637044393311872.0,3.192634738737e+16,2474100267413308.5,3719185264331335.0,5193402213784.213,15895899873601.273,462715970160604.7,1.5612212190065534e+16
10.768121820287448,9698048832259460.0,3.2611776200355764e+16,2489761822599876.5,3742728461776938.5,5382082961687.333,16473431145736.494,479528545521801.4,1.6179853024090312e+16
11.083484256693197,9757816543639694.0,3.330877027783814e+16,2505105875047264.0,3765794374002781.5,5575142100019.629,17064365524732.37,496731343783551.44,1.6760682633740092e+16
11.405153941827061,9816374009980720.0,3.401760499499076e+16,2520139223564850.0,3788393221301214.0,5772654243461.659,17668931487084.824,514331017370289.4,1.735492593704315e+16
11.733257020663602,9873746937429948.0,3.4738559585542544e+16,2534868467643201.0,3810534924339119.0,5974695661765.211,18287362579349.41,532334366306646.4,1.7962812831582528e+16
12.067922161076874,9929960298874450.0,3.5471917305786404e+16,2549300018524401.5,3832229120799369.5,6181344309728.841,18919897510069.58,550748340894279.94,1.8584578284874092e+16
12.409280604298411,9985038373605306.0,3.621796559553488e+16,2563440109384921.0,3853485180688161.5,6392679858017.077,19566780244294.92,569580044464134.4,1.9220462427290064e+16
12.75746621638438,1.0039004783839928e+16,3.697699623650374e+16,2577294804711954.0,3874312220429990.0,6608783724811.324,20228260100652.082,588836736203052.4,1.9870710647493332e+16
13.112615540712067,1.009188252838634e+16,3.774930550855743e+16,2590870008945978.5,3894719115859552.0,6829739108282.842,20904591850940.586,608525834053888.5,2.053557369035241e+16
13.474867851526309,1.0143694013704154e+16,3.853519434421436e+16,2604171474455008.5,3914714514209040.0,7055631019880.106,21596035822229.35,628654917688485.4,2.121530775731559e+16
13.844365208556836,1.0194461082592956e+16,3.933496848177159e+16,2617204808899670.0,3934306845179616.5,7286546318425.419,22302858001438.145,649231731552997.9,2.191017460922645e+16
14.221252512727972,1.0244205040714576e+16,4.014893861737717e+16,2629975482042227.0,3953504331177180.5,7522573745016.251,23025330142392.293,670264187985249.8,2.2620441671570496e+16
14.605677562982532,1.0292946681138596e+16,4.097742055635496e+16,2642488832048121.0,3972314996784987.0,7763803958729.82,23763729875344.266,691760370403951.1,2.3346382142145224e+16
14.997791114242183,1.0340706307079944e+16,4.182073536405603e+16,2654750071323336.5,3990746677538754.0,8010329573129.921,24518340818961.176,713728536569698.1,2.4088275101152204e+16
15.397746936527026,1.0387503752983636e+16,4.267920951649562e+16,2666764291927429.0,4008807028063797.5,8262245193576.834,25289452694779.92,736177121917893.5,2.4846405623714536e+16
15.805701875257567,1.043335840409639e+16,4.355317505100964e+16,2678536470598153.5,4026503529628208.5,8519647455342.389,26077361444137.832,759114742963696.5,2.5621064894823716e+16
16.221815912762718,1.0478289214652534e+16,4.4442969717151784e+16,2690071473420247.5,4043843497161246.5,8782635062533.501,26882369347588.684,782550200779425.5,2.641255032672825e+16
16.64625223101797,1.0522314724789698e+16,4.534893712803463e+16,2701374060168221.0,4060834085781632.5,9051308827828.652,27704785146817.72,806492484544701.5,2.722116567877562e+16
17.079177275638333,1.0565453076300574e+16,4.627142691230469e+16,2712448888350205.5,4077482296876386.0,9325771713032.848,28544924169074.7,830950775169940.8,2.804722117972533e+16
17.5207608211511,1.0607722027315762e+16,4.721079486693122e+16,2723300516977518.5,4093794983767532.0,9606128870457.379,29403108454143.258,855934448993712.1,2.8891033652552108e+16
17.97117603757412,1.0649138966006656e+16,4.816740311097497e+16,2733933410082526.5,4109778857000211.5,9892487685132.197,30279666883871.715,881453081554708.9,2.9752926641761812e+16
18.430599558325603,1.0689720923387566e+16,4.914162024049363e+16,2744351940005380.5,4125440489283507.5,10184957817858.932,31174935314290.68,907516451439043.4,3.063323054324602e+16
18.899211549492115,1.0729484585291284e+16,5.0133821484736744e+16,2754560390468390.0,4140786320111974.5,10483651249114.184,32089256710345.92,934134544203727.4,3.153228273670195e+16
19.37719578048196,1.0768446303584064e+16,5.114438886376657e+16,2764562959455284.5,4155822660093885.0,10788682323812.738,33022981283278.832,961317556377267.0,3.2450427720648904e+16
19.864739696091597,1.0806622106682146e+16,5.2173711347642296e+16,2774363761911107.5,4170555695009838.5,11100167796941.68,33976466630687.508,989075899538301.8,3.3388017250073384e+16
20.36203449001343,1.0844027709425972e+16,5.322218501729667e+16,2783966832277172.0,4184991489623416.0,11418226880076.986,34950077879303.9,1017420204473390.6,3.4345410476737416e+16
20.869275179813698,1.0880678522363216e+16,5.429021322722375e+16,2793376126874246.0,4199135991263755.0,11742981288794.86,35944187830526.41,1046361325415021.9,3.5322974092188176e+16
21.38666068340997,1.091658966048781e+16,5.5378206770099224e+16,2802595526146207.5,4212995033198199.0,12074555290990.424,36959177108746.67,1075910344361032.6,3.632108247350621e+16
21.91439389707817,1.0951775951479016e+16,5.648658404344595e+16,2811628836775138.5,4226574337811938.5,12413075756118.102,37995434312514.05,1106078575476650.2,3.734011783183448e+16
22.452681775019734,1.0986251943479266e+16,5.76157712184519e+16,2820479793678193.0,4239879519609704.0,12758672205366.586,39053356168581.23,1136877569580471.8,3.83804703637302e+16
23.00173541052013,1.1020031912448094e+16,5.876620241104966e+16,2829152061895522.5,4252916088053821.0,13111476862784.754,40133347688876.805,1168319118715672.5,3.944253840538486e+16
23.561770118730532,1.1053129869125316e+16,5.993831985535823e+16,2837649238377906.0,4265689450251464.0,13471624707372.406,41235822330452.81,1200415260807911.8,4.052672858975784e+16
24.133005521105144,1.1085559565634038e+16,6.113257407958729e+16,2845974853681966.5,4278204913502978.0,13839253526152.91,42361202158457.61,1233178284411283.2,4.163345600667238e+16
24.715665631527248,1.1117334501752382e+16,6.234942408450313e+16,2854132373580255.0,4290467687722236.0,14214503968243.518,43509918012183.23,1266620733543881.2,4.2763144365923864e+16
25.309978944157795,1.1148467930879274e+16,6.35893375245503e+16,2862125200592869.0,4302482887739032.5,14597519599940.383,44682409674242.47,1300755412614497.8,4.39162261634505e+16
25.91617852304095,1.1178972865718504e+16,6.485279089172391e+16,2869956675446714.0,4314255535492704.5,14988446960836.379,45879126042928.266,1335595391442008.5,4.509314285062007e+16
26.53450209350177,1.1208862083703096e+16,6.6140269702283016e+16,2877630078468069.0,4325790562125548.5,15387435620988.912,47100525307813.234,1371154010369124.5,4.6294345006688376e+16
27.165192135371807,1.1238148132180034e+16,6.745226868639879e+16,2885148630913668.0,4337092809983691.5,15794638239156.748,48347075128643.766,1407444885472177.8,4.752029251448134e+16
27.808495978079243,1.126684333337386e+16,6.878929198082322e+16,2892515496244946.5,4348167034532682.5,16210210622124.637,49619252817592.695,1444481913868605.2,4.877145473936353e+16
28.464665897640828,1.1294959789146114e+16,7.015185332467063e+16,2899733781350041.5,4359017906194361.5,16634311785134.916,50917545524924.9,1482279279123968.0,5.0048310711546056e+16
29.133959215593645,1.132250938556679e+16,7.15404762583965e+16,2906806537717269.0,4369650012111005.0,17067104013446.84,52242450428143.35,1520851456760304.5,5.135134931179949e+16
29.816638399905518,1.1349503797311584e+16,7.295569432606331e+16,2913736762564125.5,4380067857842395.5,17508752925042.521,53594474924675.484,1560213219867577.8,5.268106946062773e+16
30.51297116790363,1.1375954491898498e+16,7.439805128097766e+16,2920527399924884.5,4390275869000773.0,17959427534501.477,54974136828165.64,1600379644820200.5,5.4037980310970584e+16
31.223230591261704,1.140187273377598e+16,7.586810129478712e+16,2927181341700167.5,4400278392828635.0,18419300318064.367,56381964568439.0,1641366117100510.0,5.542260144449524e+16
31.947695203086937,1.1427269588273528e+16,7.736640917011878e+16,2933701428671163.0,4410079699723307.5,18888547279908.07,57818497395206.13,1683188337231196.0,5.683546307154463e+16
32.686649107148675,1.1452155925425358e+16,7.889355055685069e+16,2940090451481279.0,4419683984712661.5,19367348019652.71,59284285585574.92,1725862326818606.2,5.827710623480755e+16
33.44038208929165,1.147654242367627e+16,8.04501121720943e+16,2946351151587527.0,4429095368885244.0,19855885801125.13,60779890655440.36,1769404434709066.0,5.974808301677956e+16
34.20918973107749,1.1500439573478486e+16,8.203669202398168e+16,2952486222183956.0,4438317900778413.5,20354347622399.957,62305885574824.03,1813831343260224.8,6.1248956751083304e+16
34.993373525699035,1.1523857680787354e+16,8.365389963933605e+16,2958498309099058.0,4447355557727424.5,20862924287142.176,63862854987235.38,1859160074729578.0,6.278030223771822e+16
35.793240996213015,1.1546806870463088e+16,8.530235629531515e+16,2964390011669133.0,4456212247178231.5,21381810477274.742,65451395433129.086,1905407997782274.2,6.4342705962311976e+16
36.60910581613728,1.1569297089585378e+16,8.69826952551118e+16,2970163883589215.5,4464891807966713.5,21911204826995.082,67072115577532.71,1952592834120467.8,6.593676631944548e+16
37.44128793246003,1.15913381106869e+16,8.869556200779918e+16,2975822433743234.5,4473398011566528.0,22451309998165.13,68725636441921.47,2000732665236327.0,6.756309384012621e+16
38.29011369110923,1.1612939534911204e+16,9.044161451240662e+16,2981368127014678.0,4481734563307867.5,23002332757099.758,70412591640417.77,2049845939291121.2,6.922231142348413e+16
39.15591596493141,1.1634110795100238e+16,9.222152344631147e+16,2986803385079329.0,4489905103568971.5,23564484052777.668,72133627620393.92,2099951478122503.8,7.0915054572767096e+16
40.03903428423004,1.1654861158816142e+16,9.403597245803842e+16,2992130587180949.5,4497913208942343.5,24137979096502.1,73889403907558.27,2151068484382456.2,7.264197163571267e+16
40.93981496991464,1.1675199731301584e+16,9.588565842455077e+16,2997352070891357.5,4505762393377163.0,24723037443035.547,75680593355605.88,2203216548808175.5,7.440372404937389e+16
41.85861126931294,1.1695135458382372e+16,9.777129171312184e+16,3002470132855591.0,4513456109299613.0,25319883073235.55,77507882400515.12,2256415657628390.0,7.620098658948211e+16
