t(s),Total solute volume 1,Total retention volume 1,Total 1 volume 1,Total 2 volume 1,Total 3 volume 1,Total 4 volume 1,Total 5 volume 1,Total 6 volume 1
0.1,1171626138357391.5,1690659390667246.5,218249522949102.88,300783729360751.56,0.0,0.0,0.0,0.0
0.202,1763702917641205.2,2545037337952979.0,328541086087375.7,452783653262424.0,4896715.381156432,13112507.09267891,312701811.29533064,9350250940.077255
0.30604000000000003,2215017278411614.0,3196299967136630.0,412611543435461.7,568646572723880.4,12422309.815555707,33264723.65027291,793326816.16059,23733551825.13564
0.41216080000000005,2596828164231571.0,3747273099930506.5,483734952121378.5,666666328709088.5,22064269.680175114,59084205.352369525,1409123748.2281404,42164596240.943054
0.5204040160000001,2935929285396716.0,4236619676048339.0,546902421950770.75,753721492108350.4,33594994.897022925,89961475.7336584,2145553860.4103696,64207482163.52159
0.6308120963200001,3245681293903395.0,4683618907663464.0,604602763899194.2,833242053958684.8,46892441.54882486,125569721.35750933,2994821657.707354,89628618376.58458
0.7434283382464002,3533852264177778.5,5099480007275043.0,658283008305607.8,907222260126451.9,61886887.740713276,165722238.61364502,3952473769.9503155,118294582308.48177
0.8582969050113283,3805419489486099.0,5491385143555183.0,708870321150650.6,976939897854598.0,78539055.33425234,210313847.19736868,5016001370.5653925,150130209560.44528
0.9754628431115548,4063794121962761.0,5864256578591913.0,757000128968366.6,1043270689432068.0,96829329.61339279,259292022.1382627,6184151572.661904,185097955789.91177
1.094972099973786,4311432623023168.5,6221638980523561.0,803130019312824.2,1106845265777588.0,116751789.24871261,312640907.0353135,7456546099.519324,223186471189.4103
1.2168715419732616,4550172511952957.0,6566183902478903.0,847602283721632.5,1168135360932984.2,138310619.24170548,370371708.522239,8833452169.636698,264403736839.0429
1.3412089728127268,4781430417272551.0,6899935566653873.0,890680810556711.2,1227504656467038.8,161517822.69380412,432516568.7701491,10315636343.021954,308772686832.64996
1.4680331522689813,5006325635797141.0,7224509157315315.0,932574101481474.6,1285240501967322.5,186391693.3836438,499124475.30758584,11904266962.59251,356328286240.96344
1.597393815314361,5225760772882046.0,7541207182783392.0,973450293057571.2,1341574617271535.0,212955759.91341865,570258433.6234064,13600846715.755642,407115511333.6741
1.729341691620648,5440476361017825.0,7851098288714068.0,1013447331050540.4,1396697114334339.0,241238035.80855715,645993459.061058,15407164737.744713,461187915134.14734
1.863928525453061,5651089021485269.0,8155072324384700.0,1052680079150639.5,1450766294213955.0,271270475.7748329,726415120.7676067,17325261882.490795,518606587356.16864
2.001207095962122,5858118841739575.0,8453879847534276.0,1091245418808784.4,1503915675485004.2,303088575.38665396,811618469.7271339,19357405154.57454,579439388711.6581
2.1412312378813647,6062009468194451.0,8748161117710903.0,1129225992103384.5,1556259152524625.2,336731073.3562759,901707241.4884498,21506068693.086998,643760381437.8405
2.284055862638992,6263143147685495.0,9038467800699874.0,1166693003651413.5,1607894857006831.5,372239728.9636134,996793260.1600609,23773919556.027653,711649403588.1727
2.4297369798917723,6461852185131320.0,9325279501627538.0,1203708354931807.8,1658908099351212.8,409659155.7549952,1096995993.0838258,26163807098.610504,783191750948.5302
2.578331719489608,6658427806780865.0,9609016554404884.0,1240326295323706.5,1709373644125197.0,449036698.1968341,1202442220.5345142,28678755095.10193,858477941110.6997
2.7298983538794,6853127111373166.0,9890050052090036.0,1276594716962571.5,1759357494568775.8,490422341.7129397,1313265794.8150706,31321955992.8665,937603541395.1536
2.884496320956988,7046178589356855.0,1.0168709811009682e+16,1312556182855752.5,1808918309506870.5,533868649.1034628,1429607469.9973898,34096766851.400433,1020669047230.0214
3.0421862473761276,7237786554205305.0,1.0445290765073794e+16,1348248752344122.8,1858108540971199.0,579430718.143357,1551614788.3782063,37006706634.09174,1107779801036.065
3.2030299723236504,7428134736381075.0,1.0720058151825432e+16,1383706650582701.2,1906975356854754.2,627166156.4422201,1679442013.158001,40055454602.455475,1199045944123.5571
3.3670905717701234,7617389225133832.0,1.0993251757440746e+16,1418960816536328.2,1955561396139917.5,677135070.5785487,1813250099.3443413,43246849622.06587,1294582395888.0618
3.5344323832055258,7805700896850514.0,1.1265089420846604e+16,1454039355330632.5,2003905392312554.2,729400067.2068737,1953206696.7165787,46584890233.18844,1394508855903.1997
3.7051210308696363,7993207435152849.0,1.15357699487484e+16,1488967914554121.2,2052042691968129.8,784026264.3477747,2099486180.0584848,50073735371.782036,1498949825486.807
3.879223451487029,8180035023418501.0,1.1805475557982154e+16,1523769999539568.0,2100005689321359.2,841081311.4572474,2252269702.900556,53717705651.22995,1608034646056.2131
4.0568079205167695,8366299772243527.0,1.2074373935401128e+16,1558467239270511.5,2147824192669098.0,900635417.1674197,2411745271.8048267,57521285134.03287,1721897552153.4731
4.237944078927105,8552108930758479.0,1.23426199858763e+16,1593079612024193.8,2195525735363420.2,962761383.8189346,2578107838.836631,61489123537.27592,1840677737458.175
4.422702960505647,8737561920407893.0,1.2610357324123314e+16,1627625637943154.8,2243135841206917.8,1027534648.0835922,2751559410.3450027,65626038827.07382,1964519432446.314
4.61115701971576,8922751221922994.0,1.287771955469724e+16,1662122544259704.2,2290678252159258.0,1095033327.1162727,2932309170.549585,69937020166.16348,2093571992622.4114
4.803380160110075,9107763140134498.0,1.3144831375721194e+16,1696586407764654.5,2338175124682487.0,1165338269.7869344,3120573618.731059,74427231185.95369,2227989996465.7144
4.9994477633122765,9292678466536552.0,1.3411809535078128e+16,1731032278229139.2,2385647199836611.5,1238533112.6330295,3316576719.062056,79102013560.06041,2367933352402.6226
5.199436718578522,9477573055795688.0,1.3678763662434318e+16,1765474285796224.2,2433113951282885.5,1314704340.2451842,3520550062.3096137,83966890860.98694,2513567414256.2686
5.403425452950093,9662518329458070.0,1.3945796996218202e+16,1799925734811070.0,2480593714597255.5,1393941349.8579988,3732733038.7982535,89027572685.3815,2665063104736.7285
5.611493962009095,9847581717768286.0,1.4213007021301478e+16,1834399186122552.0,2528103800695468.5,1476336519.966578,3953373022.153089,94289959036.4049,2822597046628.921
5.823723841249277,1.0032827048633356e+16,1.4480486030419018e+16,1868906529539170.0,2575660595689272.0,1561985282.8292463,4182725563.4497643,99760144954.30884,2986351701411.278
6.040198318074262,1.0218314891253358e+16,1.4748321620179222e+16,1903459047840227.2,2623279649104335.5,1650986200.7508545,4421054595.487904,105444425388.46906,3156515515103.1367
6.261002284435747,1.0404102860707924e+16,1.5016597130741888e+16,1938067473513991.8,2670975752074759.5,1743441046.069031,4668632646.980556,111349300305.92065,3333283071192.4614
6.486222330124463,1.0590245888786638e+16,1.5285392036792412e+16,1972742039207714.0,2718763006871542.5,1839454884.7897243,4925741066.515781,117481480032.9654,3516855250541.152
6.715946776726952,1.0776796465525878e+16,1.5554782296252994e+16,2007492522720945.8,2766654888910696.0,1939136163.8388524,5192670256.20151,123847890827.73389,3707439398204.544
6.950265712261491,1.0963804855237194e+16,1.5824840662191618e+16,2042328287247085.8,2814664302212786.5,2042596801.9143991,5469719914.951878,130455680682.70125,3905249497135.019
7.18927102650672,1.1151319290247704e+16,1.6095636962577238e+16,2077258317463203.8,2862803629140626.0,2149952283.9386163,5757199291.413919,137312225357.13287,4110506348769.1865
7.433056447036854,1.1339386145106218e+16,1.636723835185356e+16,2112291251980991.8,2911084775121983.0,2261321759.1233745,6055427446.569695,144425134640.29617,4323437760523.364
7.681717575977592,1.1528050093615266e+16,1.6639709537738018e+16,2147435412598568.2,2959519208963449.0,2376828142.673415,6364733526.080158,151802258847.0168,4544278740244.829
7.935351927497144,1.1717354250722036e+16,1.6913112986179458e+16,2182698830731797.5,3008117999277095.0,2496598221.1629186,6685457042.46543,159451695547.84293,4773271697686.517
8.194058966047088,1.1907340301022564e+16,1.718750910700554e+16,2218089271351941.2,3056891847470480.0,2620762761.6301603,7017948167.241538,167381796536.67624,5010666653090.566
8.45794014536803,1.2098048615399536e+16,1.7462956422455416e+16,2253614254712844.0,3105851117690364.0,2749456624.4436054,7362568033.156417,175601175039.27393,5256721452983.017
8.72709894827539,1.2289518357115228e+16,1.773951172050264e+16,2289281076113863.0,3155005864059160.5,2882818880.00066,7719689046.689045,184118713166.53754,5511701993296.341
9.0016409272409,1.2481787578510622e+16,1.801723019463104e+16,2325096823912850.0,3204365855499899.0,3020992929.3274612,8089695210.995136,192943569616.9554,5775882449950.926
9.281673745785717,1.267489330931729e+16,1.8296165571515868e+16,2361068395976873.0,3253940598407948.0,3164126628.655064,8472982459.500447,202085187633.00195,6049545517039.203
9.567307220701432,1.2868871637463894e+16,1.8576370227881868e+16,2397202514734711.0,3303739357395895.0,3312372418.0532193,8869959000.360176,211553303216.69028,6332982652767.949
9.85865336511546,1.3063757783152004e+16,1.8857895297658336e+16,2433505740975705.5,3353771174310557.5,3465887454.2095013,9281045672.018633,221357953609.88672,6626494333326.407
10.155826432417769,1.3259586166884026e+16,1.9140790770414228e+16,2469984486521910.5,3404044885697345.5,3624833747.446872,9706676310.118572,231509486045.3078,6930390314858.158
10.458942961066125,1.3456390472045718e+16,1.9425105581945216e+16,2506645025885923.5,3454569138866636.0,3789378303.078275,10147298126.024775,242018566774.53912,7244989903725.602
10.768121820287448,1.3654203702576364e+16,1.9710887697779976e+16,2543493507013593.5,3505352406699038.0,3959693267.2024426,10603372097.239895,252896190379.6759,7570622235265.442
11.083484256693197,1.3853058236199814e+16,1.9998184190290824e+16,2580535961199926.0,3556403001311088.5,4135956077.0498548,11075373370.005373,264153689375.59906,7907626561244.51
11.405153941827061,1.4052985873636916e+16,2.0287041310013944e+16,2617778312256267.0,3607729086689188.0,4318349615.99322,11563791674.392807,275802744110.14667,8256352546233.774
11.733257020663602,1.4254017884173206e+16,2.057750455172007e+16,2655226384998664.5,3659338690387926.5,4507062373.341621,12069131752.205143,287855392969.8162,8617160573128.636
12.067922161076874,1.445618504791684e+16,2.086961871571842e+16,2692885913119618.0,3711239714378602.0,4702288609.042408,12591913798.020384,300324042898.9126,8990422058052.86
12.409280604298411,1.465951769504454e+16,2.1163427964825504e+16,2730762546498742.0,3763439945124659.5,4904228523.420009,13132673913.722494,313221480240.3864,9376519774892.855
12.75746621638438,1.4864045742304158e+16,2.1458975877384024e+16,2768861858002528.5,3815947062952732.5,5113088432.08532,13691964576.879463,326560881906.92554,9775848189718.162
13.112615540712067,1.5069798727013498e+16,2.1756305496680292e+16,2807189349817537.5,3868768650780908.0,5329080946.154827,14270355123.338514,340355826891.14014,10188813805353.78
13.474867851526309,1.5276805838771724e+16,2.2055459377070936e+16,2845750459357563.0,3921912202259752.5,5552425157.922771,14868432244.424788,354620308124.0503,10615835516379.041
13.844365208556836,1.5485095949077096e+16,2.2356479627100864e+16,2884550564780901.0,3975385129375968.5,5783346832.135384,15486800499.140848,369368744691.3448,11057344974836.936
14.221252512727972,1.5694697639027586e+16,2.2659407949864324e+16,2923594990150249.0,4029194769563683.5,6022078603.020571,16126082841.77827,384615994417.23944,11513786966948.346
14.605677562982532,1.5905639225261572e+16,2.2964285680840052e+16,2962889010265049.5,4083348392364133.5,6268860177.231896,16786921165.367062,400377366826.06,11985619801133.781
14.997791114242183,1.6117948784283104e+16,2.327115382340581e+16,3002437855192720.0,4137853205670439.5,6523938542.870388,17469976861.40015,416668636492.0259,12473315707656.293
15.397746936527026,1.6331654175300914e+16,2.3580053082221588e+16,3042246714523067.0,4192716361590967.0,6787568184.753633,18175931396.28736,433506056787.9959,12977361250208.564
15.805701875257567,1.6546783061699344e+16,2.389102389465067e+16,3082320741367903.0,4247944961961367.5,7060011306.105762,18905486905.002903,450906374044.34515,13498257749777.191
16.221815912762718,1.6763362931248192e+16,2.420410646037506e+16,3122665056125741.5,4303546063532997.0,7341538056.848421,19659366802.40976,468886842129.39667,14036521721127.28
16.64625223101797,1.6981421115149424e+16,2.4519340769344652e+16,3163284750029736.5,4359526682862543.5,7632426768.677431,20438316412.75491,487465237463.27405,14592685322261.92
17.079177275638333,1.7200984806008804e+16,2.4836766628189652e+16,3204184888495445.5,4415893800925839.5,7932964197.115986,21243103617.845875,506659874477.29645,15167296817219.854
17.5207608211511,1.7422081074814114e+16,2.5156423685213616e+16,3245370514283576.0,4472654367476559.5,8243445770.740238,22074519524.43496,526489621531.49207,15760921052587.375
17.97117603757412,1.7644736886993744e+16,2.547835145407433e+16,3286846650491318.5,4529815305168833.0,8564175847.779728,22933379151.35068,546973917303.1079,16374139948110.35
18.430599558325603,1.7868979117623582e+16,2.5802589336249252e+16,3328618303385035.5,4587383513461127.0,8895467980.300283,23820522136.934956,568132787659.3947,17007553001803.957
18.899211549492115,1.809483456584357e+16,2.612917664237851e+16,3370690465085850.5,4645365872317478.0,9237645186.18341,24736813467.356792,589986863028.3539,17661777809969.227
19.37719578048196,1.8322329968541676e+16,2.645815261256388e+16,3413068116118608.5,4703769245720323.0,9591040229.12217,25683144226.394474,612557396281.4634,18337450602536.793
19.864739696091597,1.8551492013356724e+16,2.6789556435703136e+16,3455756227834084.0,4762600485008716.0,9955995906.860153,26660432367.289043,635866281142.8805,19035226794171.703
20.36203449001343,1.8782347351048172e+16,2.712342726792677e+16,3498759764713171.0,4821866432053869.0,10332865347.906075,27669623507.296543,659936071139.9764,19755781551583.19
20.869275179813698,1.9014922607276944e+16,2.745980425020284e+16,3542083686561484.0,4881573922283749.0,10722012316.963469,28711691745.57583,684789999110.4579,20499810377497.723
21.38666068340997,1.9249244393838336e+16,2.779872652516765e+16,3585732950601692.5,4941729787566545.0,11123811529.321907,29787640505.074856,710451997281.877,21268029711766.17
21.91439389707817,1.9485339319383348e+16,2.814023325323792e+16,3629712513470777.5,5002340858963314.0,11538648974.461987,30898503399.09017,736946717939.5765,22061177550088.36
22.452681775019734,1.9723233999663892e+16,2.848436362805339e+16,3674027333128502.5,5063413969358045.0,11966922249.135134,32045345123.196926,764299554699.7954,22880014080852.133
23.00173541052013,1.996295506733321e+16,2.8831156891298156e+16,3718682370682946.0,5124955955973743.0,12409040900.184586,33229262373.2658,792536664404.9031,23725322340598.43
23.561770118730532,2.020452918133128e+16,2.9180652346941796e+16,3763682592138892.5,5186973662781777.0,12865426777.382595,34451384790.30061,821684989658.3696,24597908888637.125
24.133005521105144,2.0447983035881908e+16,2.9532889374941028e+16,3809032970073763.5,5249473942811721.0,13336514396.565933,35712875932.85363,851772282017.45,25498604501352.938
24.715665631527248,2.069334336912734e+16,2.98879074444396e+16,3854738485246038.5,5312463660368033.0,13822751313.359715,37014934277.794205,882827125862.1381,26428264886756.023
25.309978944157795,2.0940636971423276e+16,3.0245746126498984e+16,3900804128140530.5,5375949693159602.0,14324598507.787022,38358794250.22776,914878962959.3573,27387771419846.312
25.91617852304095,2.1189890693316204e+16,3.0606445106393292e+16,3947234900454278.5,5439938934347645.0,14842530780.07044,39745727283.38562,947958117741.9783,28378031899377.09
26.53450209350177,2.1441131453222736e+16,3.097004419549712e+16,3994035816527157.0,5504438294517279.0,15377037157.939524,41177042909.32443,982095823322.6798,29399981326617.156
27.165192135371807,2.1694386244830256e+16,3.1336583342794236e+16,4041211904720417.0,5569454703577367.0,15928621315.767069,42654089881.302086,1017324248263.2875,30454582706729.59
27.808495978079243,2.1949682144236052e+16,3.17061026460327e+16,4088768208746521.0,5634995112593283.0,16497802005.864693,44178257328.71498,1053676524120.738,31542827873400.37
28.464665897640828,2.220704631684009e+16,3.207864236255045e+16,4136709788953196.5,5701066495556521.0,17085113502.279163,45750975945.50736,1091186773791.3895,32665738337366.055
29.133959215593645,2.2466506024008464e+16,3.2454242919793836e+16,4185041723564620.5,5767675851095273.0,17691106057.437004,47373719212.99005,1129890140675.9734,33824366159509.54
29.816638399905518,2.272808862951912e+16,3.2832944925549576e+16,4233769109882209.5,5834830204129326.0,18316346371.99738,49048004658.0258,1169822818688.1042,35019794849208.49
30.51297116790363,2.299182160580502e+16,3.321478917791012e+16,4282897065447511.0,5902536607472660.0,18961418078.28017,50775395147.56765,1211022083129.8103,36253140288639.79
31.223230591261704,2.3257732540005544e+16,3.359981667499081e+16,4332430729169488.0,5970802143387070.0,19626922237.647293,52557500220.56217,1253526322458.2441,37525551683762.34
31.947695203086937,2.352584913983796e+16,3.3988068624414812e+16,4382375262418280.0,6039633925089562.0,20313477852.224438,54395977458.25378,1297375070968.295,38838212542718.71
32.686649107148675,2.3796199239299696e+16,3.4379586452584316e+16,4432735850087345.0,6109039098216157.0,21021722391.361656,56292533893.95642,1342609042416.4878,40192341682416.25
33.44038208929165,2.4068810804210956e+16,3.4774411813750292e+16,4483517701626014.0,6179024842244869.0,21752312333.239582,58248927463.384224,1389270164612.2834,41589194264067.016
34.20918973107749,2.434371193760715e+16,3.5172586598896948e+16,4534726052043945.0,6249598371880079.0,22505923722.04125,60266968496.66259,1437401615003.4417,43030062858486.586
34.993373525699035,2.462093088499025e+16,3.5574152944453412e+16,4586366162889296.0,6320766938400610.0,23283252741.117737,62348521253.169556,1487047857282.9316,44516278541974.15
35.793240996213015,2.4900496039445704e+16,3.5979153240845668e+16,4638443323202033.0,6392537830973435.0,24085016302.588764,64495505500.386375,1538254679045.473,46049212023612.22
36.60910581613728,2.518243594663469e+16,3.638763014089991e+16,4690962850443729.0,6464918377935254.0,24911952653.829887,66709898137.96755,1591069230522.5923,47630274804851.78
37.44128793246003,2.5466779309666588e+16,3.67996265681089e+16,4743930091405326.0,6537915948043426.0,25764822001.309013,68993734868.27042,1645540064425.763,49260920372267.76
38.29011369110923,2.5753554993860172e+16,3.721518572477272e+16,4797350423093950.0,6611537951698209.0,26644407152.24825,71349111914.6164,1701717176927.928,50942645424388.75
39.15591596493141,2.604279203139832e+16,3.763435110002153e+16,4851229253600077.0,6685791842137780.0,27551514174.596874,73778187788.58784,1759652049814.598,52676991133535.57
40.03903428423004,2.6334519625883172e+16,3.805716647773241e+16,4905572022945981.0,6760685116607622.0,28486973075.81569,76283185107.69862,1819397693836.283,54465544443617.73
40.93981496991464,2.6628767156796524e+16,3.848367594434802e+16,4960384203916651.0,6836225317505675.0,29451638500.983837,78866392464.80507,1881008693295.052,56309939404864.984
41.85861126931294,2.6925564183871068e+16,3.891392389660477e+16,5015671302874085.0,6912420033504394.0,30446390450.75308,81530166350.66786,1944541251898.6042,58211858546495.805
42.7957834946992,2.722494045137666e+16,3.9347955049180136e+16,5071438860555695.0,6989276900651325.0,31472135019.68645,84276933131.09816,2010053239916.271,60173034288343.63
43.751699164593184,2.7526925892327184e+16,3.9785814442265464e+16,5127692452857956.0,7066803603448932.0,32529805155.532433,87109191080.16641,2077604242672.0168,62195250392493.26
