t(s),Total solute volume 1,Total retention volume 1,Total 1 volume 1,Total 2 volume 1,Total 3 volume 1,Total 4 volume 1,Total 5 volume 1,Total 6 volume 1
0.1,1038034012882719.0,1307672365282961.0,121693262551923.95,147945089848319.12,0.0,0.0,0.0,0.0
0.202,1312841747232553.2,2232700639421123.8,153910174888697.03,187111879551948.47,566681599809.2617,1251476508685.457,22359492878850.703,554659186760579.9
0.30604000000000003,1443090966230113.0,3103203469245035.0,169179860177004.9,205675562017181.75,1258047299718.2905,2778609541197.021,49645160782973.99,1231575263196850.8
0.41216080000000005,1518753923269828.5,3962431364112695.5,178050159361477.3,216459374121569.78,2005585329642.2183,4430160249803.294,79154403172882.58,1963577758607496.5
0.5204040160000001,1567944695789899.5,4824049158624056.0,183817008644502.3,223470255929285.94,2788014826215.385,6159167412900.26,110048133390199.42,2729821882631054.0
0.6308120963200001,1602345476660145.2,5694041215586112.0,187849962559704.75,228373204125483.9,3596789425953.467,7946786140445.439,141989658307672.3,3521939338366708.5
0.7434283382464002,1627676064056148.0,6575595943827384.0,190819578047963.66,231983429096072.2,4427975194473.81,9784356078049.996,174824263987261.9,4336080277367412.0
0.8582969050113283,1647060898659400.0,7470666404685340.0,193092146946991.53,234746239646417.0,5279627924119.764,11667611050020.975,208475753287031.84,5170344127171349.0
0.9754628431115548,1662347256966530.8,8380586077315012.0,194884233554808.88,236924917616241.28,6150770982529.191,13594422385756.11,242906123741793.56,6023778352067356.0
1.094972099973786,1674695125505747.2,9306348752902282.0,196331828162392.44,238684789305230.4,7040942164197.664,15563798493463.865,278097692019957.06,6895934577251300.0
1.2168715419732616,1684868382237413.5,1.0248749512808842e+16,197524483521970.5,240134725906066.22,7949972754369.733,17575397117846.738,314044378985655.3,7786652172285534.0
1.3412089728127268,1693389836822193.5,1.1208461529768648e+16,198523490895308.12,241349240514241.44,8877871589613.432,19629269414992.785,350747136865126.44,8695944683667169.0
1.4680331522689813,1700628925254287.0,1.2186080592743858e+16,199372160878859.97,242380986746613.8,9824760538057.914,21725717556491.227,388211404958516.0,9623936636811036.0
1.597393815314361,1706853829578836.2,1.3182152265688822e+16,200101933626051.88,243268187069046.53,10790836831276.154,23865211620906.008,426445624706623.0,1.0570826642256082e+16
1.729341691620648,1712263762760213.8,1.4197189173638672e+16,200736163743504.1,244039234175533.44,11776350180593.135,26048339130163.06,465460338065649.3,1.1536864985583006e+16
1.863928525453061,1717009682272768.0,1.523168241284786e+16,201292548635811.4,244715643178783.94,12781588403965.361,28275773379149.695,505267621687091.56,1.2522339555290292e+16
2.001207095962122,1721207987688987.2,1.628610932540039e+16,201784734333676.1,245314003849764.2,13806868141503.33,30548253003421.54,545880721907338.8,1.3527566756475696e+16
2.1412312378813647,1724949820219227.8,1.7360938948417576e+16,202223405719599.97,245847306028342.66,14852528715125.41,32866568491833.633,587313813835723.4,1.4552885505407716e+16
2.284055862638992,1728307524014152.0,1.84566359323886e+16,202617044014609.5,246325860516076.3,15918927987437.217,35231553116346.15,629581839374629.4,1.559865318336535e+16
2.4297369798917723,1731339228365450.5,1.9573663425985084e+16,202972463969678.5,246757952151290.8,17006439524454.668,37644076743753.07,672700396739424.1,1.6665242868491032e+16
2.578331719489608,1734092157230605.5,2.0712485247503284e+16,203295201855779.88,247150311496871.8,18115450628069.168,40105041570970.52,716685664353957.6,1.7753041420367026e+16
2.7298983538794,1736605059114799.2,2.1873567554162464e+16,203589800329565.88,247508461157553.38,19246360960566.43,42615379170875.15,761554348168188.6,1.8862448145260904e+16
2.884496320956988,1738910017753366.8,2.305738015173933e+16,203860020707584.0,247836973846217.34,20399581579639.76,45176048447932.25,807323645237149.6,1.9993873864167492e+16
3.0421862473761276,1741033819661534.0,2.426439754256986e+16,204109003290113.03,248139667293004.25,21575534262830.36,47788034236425.36,854011218787099.4,2.114774026503883e+16
3.2030299723236504,1742998999752504.2,2.5495099780591096e+16,204339389943541.28,248419753271324.2,22774651039211.402,50452346359956.91,901635181528917.5,2.232447945869563e+16
3.3670905717701234,1744824649843287.2,2.6749973182320636e+16,204553418885038.03,248679952829611.97,23997373871615.64,53170019027163.99,950214084984346.8,2.3524533682879588e+16
3.5344323832055258,1746527050308713.0,2.80295109291117e+16,204752998734117.22,248922586317391.56,25244154449704.21,55942110476128.805,999766913261370.0,2.474835511556424e+16
3.7051210308696363,1748120168292758.5,2.9334213586577176e+16,204939766920125.75,249149644392506.38,26515454065695.582,58769702805407.82,1050313080169723.5,2.5996405769930956e+16
3.879223451487029,1749616054148511.5,3.066458956039411e+16,205115136158637.16,249362844523467.16,27811743552499.18,61653901947114.75,1101872428880396.4,2.726915745118351e+16
4.0568079205167695,1751025159488581.2,3.2021155502910864e+16,205280331737888.06,249563676319364.53,29133503269526.496,64595837749698.52,1154465233551166.8,2.856709176079463e+16
4.237944078927105,1752356594297313.2,3.3404436681501372e+16,205436421661169.84,249753438174623.03,30481223125356.16,67596664146688.42,1208112202494374.2,2.9890700137601852e+16
4.422702960505647,1753618336263362.8,3.481496731705759e+16,205584341187799.94,249933267103979.8,31855402629218.664,70657559393844.14,1262834482573367.0,3.124048392790603e+16
4.61115701971576,1754817402348543.8,3.625329089911238e+16,205724912946887.9,250104163195222.88,33256550965281.305,73779726361600.34,1318653664593604.0,3.2616954478701228e+16
4.803380160110075,1755959990284838.2,3.771996048266391e+16,205858863525648.44,250267009775957.84,34685187085184.418,76964392872956.33,1375591789512658.8,3.402063324960669e+16
4.9994477633122765,1757051595955837.2,3.921553897069329e+16,205986837230542.84,250422590143317.56,36141839815362.56,80212812079349.31,1433671355336119.8,3.5452051940132724e+16
5.199436718578522,1758097111310941.0,4.0740599385544104e+16,206109407566184.84,250571601519117.97,37627047976487.84,83526262868847.55,1492915324598355.0,3.6911752629704184e+16
5.403425452950093,1759100906466633.2,4.22957251316991e+16,206227086860435.38,250714666751288.75,39141360512977.84,86906050302320.61,1553347132351005.5,3.840028792845439e+16
5.611493962009095,1760066898887637.0,4.388151025199313e+16,206340334374810.0,250852344173869.66,40685336630961.44,90353506074277.05,1614990694600191.8,3.991822113725145e+16
5.823723841249277,1760998611952803.8,4.549855967892116e+16,206449563170415.38,250985135954075.62,42259545943445.66,93869988995811.6,1677870417147187.8,4.14661264157574e+16
6.040198318074262,1761899224753619.5,4.7147489482390136e+16,206555145946044.12,251113495189794.88,43864568621687.73,97456885497710.5,1742011204797970.2,4.304458895758326e+16
6.261002284435747,1762771614615408.5,4.8828927115027896e+16,206657420023124.06,251237831969895.5,45500995551982.66,101115610152219.14,1807438470915232.8,4.465420517180014e+16
6.486222330124463,1763618393549531.8,5.054351165596754e+16,206756691619165.97,251358518569550.28,47169428497232.234,104847606212324.66,1874178147292829.5,4.629558287022687e+16
6.715946776726952,1764441939621508.5,5.229189405386871e+16,206853239525186.6,251475893920957.5,48870480262784.805,108654346167702.0,1942256694337694.2,4.79693414600328e+16
6.950265712261491,1765244424041931.0,5.407473736981921e+16,206947318281696.12,251590267474454.72,50604774866130.06,112537332316677.3,2011701111548138.8,4.967611214129015e+16
7.18927102650672,1766027834644389.0,5.589271702065054e+16,207039160931116.94,251701922544695.0,52372947710109.414,116498097353747.92,2082538948280726.8,5.141653810918574e+16
7.433056447036854,1766793996299566.0,5.774652102312511e+16,207128981411017.03,251811119220152.94,54175645759359.586,120538204972336.48,2154798314800357.0,5.3191274760662296e+16
7.681717575977592,1767544588721656.8,5.963685023937948e+16,207216976641634.9,251918096900970.56,56013527719754.1,124659250482567.67,2228507893610225.5,5.500098990530277e+16
7.935351927497144,1768281162047389.8,6.1564418623956424e+16,207303328352276.03,252023076519348.66,57887264220644.32,128862861443952.9,2303696951060068.5,5.6846363980312824e+16
8.194058966047088,1769005150506159.2,6.35299534727073e+16,207388204683922.28,252126262487872.6,59797537999729.55,133150698312937.39,2380395349232412.0,5.87280902694842e+16
8.45794014536803,1769717884448831.5,6.553419567381013e+16,207471761599422.38,252227844413909.5,61745044090409.23,137524455105331.83,2458633558107614.0,6.0646875126044616e+16
8.72709894827539,1770420600960966.2,6.757789996111755e+16,207554144127723.94,252327998612251.56,63730490011486.36,141985860073699.3,2538442668009614.5,6.260343819932179e+16
9.0016409272409,1771114453251505.0,6.966183517001399e+16,207635487464553.62,252426889443232.0,65754595959107.04,146536676399810.4,2619854402334875.0,6.459851266516088e+16
9.281673745785717,1771800518979187.2,7.178678449594811e+16,207715917948555.44,252524670499440.6,67818095000828.586,151178702902320.8,2702901130567756.0,6.663284546005005e+16
9.567307220701432,1772479807654865.0,7.395354575577845e+16,207795553929100.75,252621485660737.6,69921733271719.914,155913774759848.9,2787615881586338.0,6.870719751891591e+16
9.85865336511546,1773153267237955.2,7.616293165205603e+16,207874506539615.84,252717470034402.94,72066270172400.66,160743764249666.22,2874032357262787.0,7.082234401655922e+16
10.155826432417769,1773821790028158.5,7.841577004035294e+16,207952880388295.6,252812750794854.78,74252478568931.5,165670581502235.38,2962184946363309.5,7.29790746127073e+16
10.458942961066125,1774486217939590.8,8.071290419973325e+16,208030774176412.8,252907447935339.56,76481144994466.55,170696175271841.72,3052108738752672.5,7.517819370066274e+16
10.768121820287448,1775147347232302.0,8.3055193106448e+16,208108281253013.25,253001674942286.9,78753069852589.22,175822533723598.62,3143839539909007.0,7.742052065953523e+16
11.083484256693197,1775805932766032.5,8.544351171093246e+16,208185490113604.16,253095539401575.72,81069067622239.72,181051685237111.62,3237413885754659.0,7.970689011003722e+16
11.405153941827061,1776462691832402.5,8.787875121816483e+16,208262484849419.1,253189143544714.22,83429967064153.25,186385699227106.34,3332869057809338.5,8.203815217383762e+16
11.733257020663602,1777118307614371.0,9.036181937144949e+16,208339345552981.28,253282584741895.1,85836611428721.03,191826686981339.3,3430243098672024.5,8.441517273645826e+16
12.067922161076874,1777773432315397.2,9.289364073966957e+16,208416148684954.12,253375955947979.7,88289858665183.3,197376802516124.47,3529574827838262.0,8.683883371370173e+16
12.409280604298411,1778428689995478.0,9.547515700805326e+16,208492967406619.72,253469346106700.75,90790581632065.16,203038243449816.2,3630903857860049.5,8.931003332160251e+16
12.75746621638438,1779084679146459.2,9.810732727248994e+16,208569871881791.7,253562840517706.38,93339668308758.6,208813251894612.0,3734270610855343.0,9.182968634988536e+16
13.112615540712067,1779741975035066.5,1.0079112833742709e+17,208646929551504.75,253656521170502.25,95938022008149.61,214704115367036.7,3839716335374747.0,9.439872443892e+16
13.474867851526309,1780401131838700.5,1.0352755501737042e+17,208724205384397.16,253750467048849.62,98586561590190.98,220713167717489.44,3947283123633192.5,9.701809636015744e+16
13.844365208556836,1781062684595915.8,1.0631762044200894e+17,208801762105377.3,253844754408758.94,101286221676312.03,226842790079246.9,4057013929114371.0,9.96887683000289e+16
14.221252512727972,1781727150991041.5,1.0916235636497774e+17,208879660404843.4,253939457032842.88,104037952864547.38,233095411837318.56,4168952584556260.0,1.0241172414729096e+17
14.605677562982532,1782395032990120.0,1.1206281347626862e+17,208957959130466.38,254034646463472.66,106842721945275.08,239473511617570.4,4283143820326088.0,1.051879657837957e+17
14.997791114242183,1783066818343229.2,1.1502006171828934e+17,209036715463322.3,254130392216902.34,109701512117431.78,245979618296535.6,4399633283193414.5,1.0801851337865853e+17
15.397746936527026,1783742981966852.2,1.1803519060557499e+17,209115985079944.47,254226761980282.72,112615323205080.52,252616312032346.97,4518467555510116.0,1.109044056858004e+17
15.805701875257567,1784423987218058.8,1.2110930954814325e+17,209195822301708.47,254323821793269.5,115585171874191.94,259386225317237.03,4639694174806551.0,1.1384670034483229e+17
16.221815912762718,1785110287071310.5,1.2424354817848206e+17,209276280232791.06,254421636215743.62,118612091849494.78,266292044052052.3,4763361653813020.0,1.1684647418524773e+17
16.64625223101797,1785802325207334.5,1.2743905668215528e+17,209357410887821.62,254520268483001.34,121697134131250.4,273336508643254.53,4889519500916387.0,1.1990482353388606e+17
17.079177275638333,1786500537022534.8,1.3069700613200514e+17,209439265310224.56,254619780649622.16,124841367211786.69,280522415122878.8,5018218241061405.0,1.2302286452562654e+17
17.5207608211511,1787205350566579.8,1.3401858882592562e+17,209521893682132.94,254720233723097.25,128045877291632.02,287852616291937.56,5149509437107035.0,1.2620173341726328e+17
17.97117603757412,1787917187414946.0,1.3740501862817522e+17,209605345426683.7,254821687788187.53,131311768495072.78,295330022887766.1,5283445711647977.0,1.2944258690451456e+17
18.430599558325603,1788636463482548.5,1.4085753131419226e+17,209689669303398.47,254924202122885.5,134640163084955.98,302957604775817.56,5420080769312003.0,1.3274660244211075e+17
18.899211549492115,1789363589783903.2,1.4437738491887248e+17,209774913497306.84,255027835306758.7,138032201676542.28,310738392166429.9,5559469419543998.0,1.3611497856689747e+17
19.37719578048196,1790098973144845.2,1.4796586008825773e+17,209861125702378.38,255132645322384.34,141489043450217.53,318675476857088.06,5701667599887677.0,1.3954893522389318e+17
19.864739696091597,1790843016870153.8,1.5162426043458685e+17,209948353199796.9,255238689650504.75,145011866362847.8,326772013500733.2,5846732399776536.0,1.430497140952264e+17
20.36203449001343,1791596121371236.8,1.553539128946442e+17,210036642931539.06,255346025359485.1,148601867357565.9,335031220900666.5,5994722084845542.0,1.4661857893187853e+17
20.869275179813698,1792358684757379.8,1.591561680913439e+17,210126041569697.97,255454709189582.4,152260262571758.44,343456383332616.5,6145696121775480.0,1.5025681588814755e+17
21.38666068340997,1793131103393961.0,1.6303240069847434e+17,210216595581919.7,255564797632505.97,155988287543019.0,352050851894541.8,6299715203682373.0,1.539657338587464e+17
21.91439389707817,1793913772430584.5,1.6698400980852726e+17,210308351293318.47,255676347006684.62,159787197412818.0,360818045884770.44,6456841276064250.0,1.577466648184349e+17
22.452681775019734,1794707086301811.2,1.7101241930352234e+17,210401354945181.9,255789413528639.03,163658267127632.0,369761454209064.25,6617137563318176.0,1.616009641640917e+17
23.00173541052013,1795511439203027.8,1.7511907822873437e+17,210495652750757.47,255904053380799.0,167602791637258.62,378884636817241.25,6780668595840710.0,1.655300110591045e+17
23.561770118730532,1796327225543625.0,1.793054611692272e+17,210591290948382.38,256020322776097.78,171622086090044.44,388191226169959.8,6947500237725120.0,1.6953520877997414e+17
24.133005521105144,1797154840379610.2,1.8357306862907914e+17,210688315852198.53,256138278019624.97,175717486024725.88,397684928736329.6,7117699715069147.0,1.7361798506499747e+17
24.715665631527248,1797994679827460.8,1.879234274131861e+17,210786773900672.7,256257975567614.3,179890347558580.34,407369526522989.94,7291335644907434.0,1.777797924649014e+17
25.309978944157795,1798847141460982.0,1.9235809101152275e+17,210886711703117.47,256379472084002.7,184142047571570.5,417248878635320.1,7468478064782946.0,1.820221086952847e+17
25.91617852304095,1799712624692691.5,1.9687863998571997e+17,210988176084409.88,256502824494789.2,188473983886156.16,427326922871476.1,7649198462972146.0,1.86346436990718e+17
26.53450209350177,1800591531141220.2,2.0148668235782218e+17,211091214128055.88,256628090040398.16,192887575442422.56,437607677349930.44,7833569809379048.0,1.907543064603412e+17
27.165192135371807,1801484264986017.8,2.06183854001072e+17,211195873217779.1,256755326326230.62,197384262468175.47,448095242171242.5,8021666587113582.0,1.9524727244478928e+17
27.808495978079243,1802391233310559.8,2.1097181903256195e+17,211302201077754.75,256884591371585.03,201965506643631.38,458793801114760.25,8213564824769971.0,1.998269168742736e+17
28.464665897640828,1803312846435261.0,2.158522702075754e+17,211410245811637.03,257015943657098.5,206632791260319.2,469707623371014.8,8409342129421482.0,2.044948486276185e+17
29.133959215593645,1804249518240983.0,2.208269293154476e+17,211520055940489.4,257149442170863.2,211387621373793.47,480841065310528.75,8609077720347899.0,2.092527038920628e+17
29.816638399905518,1805201666484278.0,2.2589754757674368e+17,211631680439736.8,257285146453346.4,216231523949748.6,492198572289836.7,8812852463512738.0,2.1410214652361418e+17
30.51297116790363,1806169713105058.2,2.3106590604155722e+17,211745168775239.94,257423116641250.1,221166048003104.22,503784680495466.9,9020748906807454.0,2.1904486840772973e+17
31.223230591261704,1807154084527671.8,2.3633381598870896e+17,211860570938588.3,257563413510414.56,226192764729621.4,515604018826703.1,9232851316080486.0,2.240825898200952e+17
31.947695203086937,1808155211956043.0,2.417031193256258e+17,211977937481702.22,257706098517887.06,231313267629587.84,527661310817917.56,9449245711969020.0,2.292170597872535e+17
32.686649107148675,1809173531663626.8,2.47175688988656e+17,212097319550825.47,257851233843245.94,236529172623099.88,539961376601317.06,9670019907552108.0,2.3445005644682186e+17
33.44038208929165,1810209485278831.2,2.5275342934357178e+17,212218768919985.78,257998882429280.47,241842118156450.16,552509134910922.4,9895263546844200.0,2.3978338740703203e+17
34.20918973107749,1811263520066518.5,2.5843827658599146e+17,212342338023997.1,258149108022111.8,247253765299113.06,565309605128653.8,1.0125068144148054e+16,2.4521889010530262e+17
34.993373525699035,1812336089206157.0,2.6423219914144758e+17,212468079991070.5,258301975210837.75,252765797830805.22,578367909373377.1,1.0359527124287372e+16,2.5075843216554778e+17
35.793240996213015,1813427652067191.0,2.7013719806480637e+17,212596048675091.5,258457549466774.53,258379922318083.28,591689274633819.1,1.0598735863738774e+16,2.564039117539065e+17
36.60910581613728,1814538674482057.5,2.7615530743872794e+17,212726298687632.9,258615897182376.28,264097868179911.28,605279034946211.8,1.0842791732684194e+16,2.6215725793256605e+17
37.44128793246003,1815669629017448.5,2.8228859477085443e+17,212858885429753.53,258777085709889.22,269921387741638.5,619142633617621.5,1.109179413800469e+16,2.680204310113331e+17
38.29011369110923,1816820995244138.5,2.8853916138937504e+17,212993865123630.1,258941183399812.6,275852256276782.0,633285625495887.2,1.1345844567237048e+16,2.7399542289659773e+17
39.15591596493141,1817993260005877.0,2.94909142836634e+17,213131294844083.0,259108259639221.7,281892272036009.44,647713679287072.0,1.1605046633515536e+16,2.800842574373061e+17
40.03903428423004,1819186917687735.0,3.014007092603901e+17,213271232550034.6,259278384890012.94,288043256262691.75,662432579921461.9,1.1869506121520904e+16,2.862889907675575e+17
40.93981496991464,1820402470484261.5,3.0801606580236e+17,213413737115946.53,259451630727123.9,294307053194386.75,677448230969015.6,1.2139331034460008e+16,2.9261171164540934e+17
41.85861126931294,1821640428667822.5,3.1475745298362835e+17,213558868363277.62,259628069876777.5,300685530049579.6,692766657105300.2,1.2414631642099002e+16,2.990545417874659e+17
42.7957834946992,1822901310857480.8,3.216271470865093e+17,213706687092006.75,259807776254802.78,307180576999004.6,708394006628907.2,1.2695520529874436e+16,3.0561963619880275e+17
