t(s),Total solute volume 1,Total retention volume 1,Total 1 volume 1,Total 2 volume 1,Total 3 volume 1,Total 4 volume 1,Total 5 volume 1,Total 6 volume 1
0.1,1277535415264620.8,2216485712870468.2,368078767489456.25,570871530116391.1,0.0,0.0,0.0,3.710125213445117e-74
0.202,1921052695109673.8,3333451634779188.5,553486591951806.9,858429750005371.9,134570213.94700304,432138213.160378,13496364999.154556,468534638907.2862
0.30604000000000003,2411936617707041.5,4185865367900375.5,694918252190470.1,1077783120810246.2,341289374.516285,1095970590.5520566,34237294486.94159,1191702638164.3293
0.41216080000000005,2827201081456934.5,4907291611177274.0,814562713095622.0,1263345641138236.2,606088471.7360132,1946314996.00643,60807436995.86629,2118815646020.2654
0.5204040160000001,3195948742643200.5,5548199800722173.0,920804924793134.9,1428121948392330.0,922705515.3615595,2963062044.9978933,92577926329.45683,3227721199621.2554
0.6308120963200001,3532707403242295.5,6133783028692433.0,1017830583946085.8,1578603847515168.2,1287775981.824993,4135407173.122864,129210972095.9621,4506559833635.534
0.7434283382464002,3845927475765328.5,6678695517931211.0,1108074392175919.4,1718567438050390.0,1699371771.8345764,5457158647.628245,170513014102.5044,5948542395058.202
0.8582969050113283,4141024620265323.0,7192329316241841.0,1193096689432588.0,1850432728585848.5,2156400405.969614,6924808175.173091,216374379878.2867,7549822369622.631
0.9754628431115548,4421710771570924.0,7681122512874570.0,1273966944650383.8,1975858411492144.5,2658308881.7303057,8536579889.468818,266739549495.9654,9308450722852.945
1.094972099973786,4690659022786180.0,8149712196444053.0,1351455319526461.0,2096038968702825.0,3204919622.1594343,10291903530.034746,321590685819.0248,11223797919615.234
1.2168715419732616,4949868827103931.0,8601567711828511.0,1426137889117812.8,2211867863560306.2,3796331872.512311,12191097796.084305,380937736171.5057,13296206880617.36
1.3412089728127268,5200881470613947.0,9039364271148212.0,1498458723070252.5,2324033825673171.0,4432858772.390035,14235168265.7256,444812115651.6281,15526771648153.715
1.4680331522689813,5444914522590003.0,9465216068844756.0,1568768622938009.0,2433080930545643.5,5114985326.30205,16425672426.585737,513262488388.0791,17917189624953.625
1.597393815314361,5682949595354449.0,9880828437198170.0,1637350407231349.0,2539447815411316.0,5843339327.5161085,18764626303.46301,586351849076.3147,20469659386327.35
1.729341691620648,5915791791350077.0,1.0287600910424204e+16,1704436039087057.8,2643494243385964.0,6618670685.392713,21254438072.15428,664155448042.3629,23186808044320.633
1.863928525453061,6144111241988964.0,1.0686699239034308e+16,1770218594287914.2,2745519665261993.5,7441836414.329217,23897859854.44109,746759284592.1876,26071638514561.516
2.001207095962122,6368472909935563.0,1.1079107055855194e+16,1834860847786250.2,2845776536773182.0,8313789560.73611,26697952159.294323,834258995632.6418,29127490622846.137
2.1412312378813647,6589358462790810.0,1.1465663796353278e+16,1898501575868894.8,2944480092934479.0,9235570945.438017,29658057365.25989,926759026879.1888,32358012103914.152
2.284055862638992,6807182648438155.0,1.1847093086964572e+16,1961260274161291.5,3041815665428304.5,10208302967.851498,32781779823.83143,1024372011002.6697,35767136843034.04
2.4297369798917723,7022305769149031.0,1.2224024370467704e+16,2023240751620612.5,3137944256706436.5,11233184952.6093,36072970916.08277,1127218300588.2507,39359068535169.16
2.578331719489608,7235043331280124.0,1.259700963534732e+16,2084533910770813.8,3233006851994306.0,12311489672.544127,39535717886.94358,1235425619161.7559,43138268475336.83
2.7298983538794,7445673613244293.0,1.2966536536726136e+16,2145219928158454.8,3327127801067861.0,13444560784.77708,43174335611.728,1349128803860.4219,47109446555265.234
2.884496320956988,7654443674406891.0,1.3333038814954124e+16,2205369985613649.2,3420417503351945.0,14633810987.246265,46993360676.21194,1468469620410.5508,51277554789558.414
3.0421862473761276,7861574179418847.0,1.3696904661102362e+16,2265047660219042.0,3512974563692003.0,15880720752.459885,50997547310.35088,1593596636037.7668,55647782868344.6
3.2030299723236504,8067263310748878.0,1.4058483502206388e+16,2324310051574163.0,3604887540684184.0,17186837530.531834,55191864829.00441,1724665139476.074,60225555357320.92
3.3670905717701234,8271689971023029.0,1.4418091555745046e+16,2383208704441596.0,3696236377652991.5,18553775339.135857,59581496315.17163,1861837099809.1865,65016530255962.33
3.5344323832055258,8475016426199151.0,1.4776016415153364e+16,2441790370288658.5,3787093583763971.0,19983214676.839096,64171838341.69475,2005281157766.95,70026598690791.164
3.7051210308696363,8677390504110569.0,1.5132520864904318e+16,2500097640723662.0,3877525216451360.5,21476902710.32018,68968501572.48769,2155172644509.3462,75261885569930.11
3.879223451487029,8878947436220521.0,1.5487846077421254e+16,2558169478135376.5,3967591704413137.0,23036653696.58635,73977312118.41791,2311693623995.393,80728751062420.83
4.0568079205167695,9079811410659878.0,1.5842214309813528e+16,2616041663148510.0,4057348541591865.5,24664349609.410507,79204313548.99936,2475032955847.7935,86433792794259.69
4.237944078927105,9280096889807858.0,1.6195831192750592e+16,2673747174240231.0,4146846875940743.0,26361940945.46987,84655769481.16135,2645386376252.669,92383848675085.45
4.422702960505647,9479909734458738.0,1.6548887684347174e+16,2731316511630843.0,4236134011761700.5,28131447690.550735,90338166682.03851,2822956594923.6865,98586000286597.2
4.61115701971576,9679348168036822.0,1.6901561747058302e+16,2788777975089901.0,4325253840568683.0,29974960430.029037,96258218635.07445,3007953406545.782,105047576777284.45
4.803380160110075,9878503607699782.0,1.7254019794104962e+16,2846157903390602.5,4414247212469266.0,31894641590.887726,102422869528.53026,3200593815420.132,111776159218761.08
4.9994477633122765,1.0077461384012606e+16,1.7606417943011252e+16,2903480881659576.5,4503152257753776.0,33892726804.977634,108839298633.34218,3401102172277.1772,118779585387581.56
5.199436718578522,1.0276301366827192e+16,1.7958903106819366e+16,2960769921703018.0,4592004666571961.0,35971526385.19991,115514925043.60622,3609710322422.6343,126065954943340.73
5.403425452950093,1.0475098511800844e+16,1.8311613947999016e+16,3018046619467568.5,4680837933146902.0,38133426907.89177,122457412758.11609,3826657764542.174,133643634979487.61
5.611493962009095,1.0673923339437328e+16,1.8664681715649924e+16,3075331293059831.5,4769683569836290.0,40380892896.01291,129674676085.59793,4052191819622.6064,141521265927891.38
5.823723841249277,1.0872842356489302e+16,1.901823098305184e+16,3132643104159281.0,4858571295437809.0,42716468598.80609,137174885359.7624,4286567809555.514,149707767802002.1
6.040198318074262,1.1071918427911664e+16,1.9372380299758084e+16,3190000165184140.0,4947529201397799.0,45142779864.514114,144966472953.18152,4530049245080.027,158212346766602.28
6.261002284435747,1.1271211106215888e+16,1.9727242770107484e+16,3247419634183664.5,5036583898984637.0,47662536103.47647,153058139581.41077,4782908022796.54,167044502024780.75
6.486222330124463,1.1470776923982688e+16,2.008292656813682e+16,3304917799115843.0,5125760649999010.0,50278532339.56733,161458860890.7975,5045424631046.439,176214033014975.4
6.715946776726952,1.167066965439315e+16,2.0439535397320124e+16,3362510152910640.5,5215083483193327.0,52993651348.46794,170177894325.14664,5317888364507.003,185731046912816.47
6.950265712261491,1.1870940543898962e+16,2.079716890228007e+16,3420211460506127.5,5304575298241330.0,55810865881.7236,179224786267.8663,5600597547395.774,195605966434091.75
7.18927102650672,1.2071638520539408e+16,2.115592303855474e+16,3478035818867955.5,5394257958825236.0,58733240975.92314,188609379457.4691,5893859765218.345,205849537936524.75
7.433056447036854,1.2272810380901862e+16,2.1515890405618828e+16,3535996710855735.0,5484152376179902.0,61763936346.679504,198341820675.4001,6197992105027.063,216472839819254.3
7.681717575977592,1.2474500958296588e+16,2.1877160547617424e+16,3594107053676983.5,5574278584242199.0,64906208867.377426,208432568706.07742,6513321404187.447,227487291219902.34
7.935351927497144,1.2676753274357678e+16,2.2239820225653496e+16,3652379242565714.5,5664655807394617.0,68163415132.91439,218892402569.8723,6840184507674.967,238904661010048.06
8.194058966047088,1.2879608675980158e+16,2.260395366494135e+16,3710825190236384.0,5755302521656079.0,71539014108.8814,229732430030.47202,7178928533947.065,250737077090679.5
8.45794014536803,1.3083106959248214e+16,2.296964277970314e+16,3769456362589538.5,5846236510059755.0,75036569866.83142,240964096378.69092,7529911149455.52,262997035989922.84
8.72709894827539,1.3287286481791802e+16,2.3336967378301236e+16,3828283811083640.0,5937474912860037.0,78659754406.45871,252599193495.38602,7893500851881.82,275697412765945.16
9.0016409272409,1.3492184264824298e+16,2.37060053507869e+16,3887318202133711.0,6029034273128437.0,82412350565.67256,264649869196.6274,8270077262194.071,288851471218503.4
9.281673745785717,1.369783608595599e+16,2.4076832840766868e+16,3946569843852494.0,6120930578227712.0,86298255019.68697,277128636864.7369,8660031425638.544,302472874413099.94
9.567307220701432,1.3904276563742422e+16,2.444952440325577e+16,4006048710410157.0,6213179297592515.0,90321481370.38614,290048385369.22314,9063766121791.832,316575695522175.44
9.85865336511546,1.4111539234809676e+16,2.4824153149982904e+16,4065764464255370.0,6305795417193264.0,94486163327.33507,303422389282.02704,9481696183811.352,331174428988159.4
10.155826432417769,1.4319656624299034e+16,2.5200790883443052e+16,4125726476411504.5,6398793471014458.0,98796557981.91873,317264319391.83124,9914248827033.17,346284002013631.25
10.458942961066125,1.4528660310284868e+16,2.5579508220835536e+16,4185943845036579.5,6492187569840179.0,103257049176.19148,331588253522.52216,10361863987075.748,361919786384131.75
10.768121820287448,1.4738580982745598e+16,2.5960374708900456e+16,4246425412413639.0,6585991427605394.0,107872150968.11382,346408687661.1762,10824994667618.227,378097610629552.1
11.083484256693197,1.4949448497600788e+16,2.634345893055026e+16,4307179780519831.5,6680218385542748.0,112646511194.93686,361740547401.2465,11304107298029.951,394833772530306.75
11.405153941827061,1.5161291926270878e+16,2.6728828604095188e+16,4368215325305278.5,6774881434328398.0,117584915136.58325,377599199706.8534,11799682101036.338,412145051974781.8
11.733257020663602,1.537413960116505e+16,2.7116550675772268e+16,4429540209798943.5,6869993234408547.0,122692289280.94006,394000465004.37,12312213470614.498,430048724174837.3
12.067922161076874,1.5588019157459996e+16,2.75066914062156e+16,4491162396145731.5,6965566134668368.0,127973705193.06522,410960629607.7046,12842210360318.314,448562573246382.5
12.409280604298411,1.5802957571492828e+16,2.789931645143559e+16,4553089656668146.0,7061612189588099.0,133434383490.36752,428496458483.8913,13390196682240.69,467704906162312.7
12.75746621638438,1.601898119605803e+16,2.829449093881783e+16,4615329584035871.0,7158143175015543.0,139079697925.8911,446625208365.85596,13956711716826.473,487494567085299.06
13.112615540712067,1.6236115792868046e+16,2.8692279538600212e+16,4677889600618219.0,7255170602671233.0,144915179581.89944,465364641219.38934,14542310533756.766,507950952088166.44
13.474867851526309,1.6454386562410866e+16,2.909274653124118e+16,4740776967086653.0,7352705733490457.0,150946521176.01248,484733038071.56995,15147564424130.418,529094024269815.5
13.844365208556836,1.667381817141499e+16,2.9495955871052492e+16,4803998790327762.0,7450759589896060.0,157179581482.21136,504749213208.06116,15773061344175.66,550944329274830.5
14.221252512727972,1.6894434778110104e+16,2.9901971246432124e+16,4867562030721370.0,7549342967086173.0,163620389869.07925,525432528746.9101,16419406370729.117,573523011225125.9
14.605677562982532,1.7116260055454922e+16,3.031085613700301e+16,4931473508832793.0,7648466443413852.0,170275150957.70187,546802909596.60614,17087222168726.03,596851829072189.6
14.997791114242183,1.7339317212485926e+16,3.072267386793428e+16,4995739911563869.0,7748140389926675.0,177150249401.70963,568880858806.3822,17777149470950.355,620953173378649.8
15.397746936527026,1.7563629013927214e+16,3.113748766169595e+16,5060367797802701.0,7848374979129564.0,184252254791.97903,591687473316.8568,18489847570298.543,645850083538066.6
15.805701875257567,1.7789217798186982e+16,3.15553606874762e+16,5125363603608917.0,7949180193026593.0,191587926688.5868,615244460119.2993,19225994824815.34,671566265442065.6
16.221815912762718,1.801610549385672e+16,3.1976356108470076e+16,5190733646967236.0,8050565830493661.0,199164219782.62222,639574152831.9764,19986289175766.38,698126109604047.9
16.64625223101797,1.8244313634816284e+16,3.2400537127229884e+16,5256484132139512.0,8152541514028234.0,206988289190.5481,664699528702.0923,20771448679014.36,725554709748914.4
17.079177275638333,1.8473863374040108e+16,3.2827967029251908e+16,5322621153642581.0,8255116695918857.0,215067495883.8167,690644226042.1394,21582212049972.938,753877881878392.6
17.5207608211511,1.8704775496191604e+16,3.3258709224959652e+16,5389150699876807.0,8358300663872786.0,223409412256.50317,717432562109.448,22419339222414.63,783122183821685.6
17.97117603757412,1.8937070429082944e+16,3.3692827290230036e+16,5456078656427988.0,8462102546137056.0,232021827833.75803,745089551437.9692,23283611921414.39,813314935281370.6
18.430599558325603,1.917076825407418e+16,3.41303850055978e+16,5523410809063366.0,8566531316145237.0,240912755123.9258,773640924631.4327,24175834250714.777,844484238384533.8
18.899211549492115,1.9405888715475896e+16,3.457144639426299e+16,5591152846440718.0,8671595796718982.0,250090435617.20767,803113147627.0873,25096833294801.19,876658998749365.5
19.37719578048196,1.9642451229015624e+16,3.5016075759015804e+16,5659310362547771.0,8777304663851547.0,259563345933.7873,833533441439.464,26047459735981.637,909868947077487.2
19.864739696091597,1.9880474889424412e+16,3.5464337718185484e+16,5727888858887843.0,8883666450097471.0,269340204124.3804,864929802393.6117,27028588486766.07,944144661282466.5
20.36203449001343,2.0119978477192056e+16,3.5916297240711904e+16,5796893746426281.0,8990689547591614.0,279429976126.1957,897331022857.4124,28041119337848.24,979517589165088.0
20.869275179813698,2.0360980464539108e+16,3.637201968043046e+16,5866330347311018.0,9098382210717496.0,289841882377.32574,930766712482.6954,29085977621990.18,1016020071646031.0
21.38666068340997,2.0603499020647196e+16,3.683157080965684e+16,5936203896379620.0,9206752558444454.0,300585404592.631,965267319964.9731,30164114894119.8,1053685366566796.5
21.91439389707817,2.0847552016187136e+16,3.729501685214788e+16,6006519542463659.0,9315808576351354.0,311670292704.1935,1000864155331.6543,31276509627947.824,1092547673069726.0
22.452681775019734,2.109315702718082e+16,3.776242451551695e+16,6077282349501756.0,9425558118351966.0,323106571969.4477,1037589412768.7704,32424167929418.902,1132642156568151.8
23.00173541052013,2.1340331338230748e+16,3.8233861023167736e+16,6148497297469626.0,9536008908138082.0,334904550250.13684,1075476193996.2693,33608124267310.73,1174004974317733.2
23.561770118730532,2.1589091945145996e+16,3.870939414581559e+16,6220169283137138.0,9647168540353350.0,347074825465.23956,1114558532201.9995,34829442221298.168,1216673301600184.5
24.133005521105144,2.1839455556996064e+16,3.918909223265441e+16,6292303120659640.0,9759044481510552.0,359628293221.0601,1154871416544.655,36089215247803.37,1260685358530618.8
24.715665631527248,2.2091438597615676e+16,3.967302424222755e+16,6364903542011774.0,9871644070664344.0,372576154621.6615,1196450817235.8965,37388567463950.87,1306080437499856.8
25.309978944157795,2.2345057206587076e+16,4.016125977305598e+16,6437975197270366.0,9984974519850008.0,385929924262.8868,1239333711211.9736,38728654449952.695,1352898931263040.5
25.91617852304095,2.2600327239721e+16,4.065386909407572e+16,6511522654753096.0,1.0099042914298542e+16,399701438413.1662,1283558108405.3176,40110664070246.9,1401182361686033.8
26.53450209350177,2.28572642690582e+16,4.1150923174931256e+16,6585550401018915.0,1.0213856212437324e+16,413902863384.3728,1329163078626.3562,41535817313714.234,1450973409161049.0
27.165192135371807,2.3115883582410884e+16,4.16524937161713e+16,6660062840735777.0,1.0329421245684958e+16,428546704095.9675,1376188779066.1216,43005369153302.49,1502315942703058.0
27.808495978079243,2.3376200182461196e+16,4.215865317939024e+16,6735064296421161.0,1.0445744718048818e+16,443645812835.6835,1424676482430.0222,44520609425380.53,1555255050738423.8
28.464665897640828,2.3638228785435504e+16,4.2669474817358216e+16,6810559008059915.0,1.056283320553231e+16,459213398220.0221,1474668605713.2944,46082863729154.0,1609837072597485.5
29.133959215593645,2.390198381936899e+16,4.31850327041758e+16,6886551132604292.0,1.0680693155359638e+16,475263034357.79663,1526208739628.5579,47693494346466.91,1666109630722410.8
29.816638399905518,2.4167479421976196e+16,4.3705401765493976e+16,6963044743360434.0,1.0799330885023974e+16,491808670220.0021,1579341678695.924,49353901182317.67,1724121663602082.2
30.51297116790363,2.4434729438140864e+16,4.423065780883524e+16,7040043829265235.0,1.0918752581166198e+16,508864639219.22925,1634113452006.1018,51065522726414.37,1783923459445374.8
31.223230591261704,2.4703747417039576e+16,4.476087755405033e+16,7117552294057455.0,1.1038964298289086e+16,526445669001.8861,1690571354666.9155,52829837036095.12,1845566690604431.2
31.947695203086937,2.4974546608910136e+16,4.529613866394221e+16,7195573955346771.0,1.1159971957313712e+16,544566891456.42535,1748763979943.5137,54648362740938.22,1909104448759300.2
32.686649107148675,2.5247139961477656e+16,4.583651977509357e+16,7274112543584048.0,1.1281781343982134e+16,563243852940.8018,1808741252102.6062,56522660069380.84,1974591280875368.5
33.44038208929165,2.5521540116049584e+16,4.6382100528925496e+16,7353171700936133.0,1.1404398107112524e+16,582492524732.312,1870554459970.9568,58454331897670.47,2042083225944868.2
34.20918973107749,2.5797759403289668e+16,4.693296160301899e+16,7432754980068460.0,1.1527827756710782e+16,602329313703.0159,1934256291218.2156,60445024821460.9,2111637852523738.5
34.993373525699035,2.6075809838681916e+16,4.748918474272951e+16,7512865842838081.0,1.1652075661943652e+16,622771073223.8107,1999900867374.18,62496430250372.484,2183314297074855.8
35.793240996213015,2.635570311769496e+16,4.805085279312125e+16,7593507658900200.0,1.1777147048977566e+16,643835114300.2875,2067543779590.3618,64610285525821.7,2257173303128804.5
36.60910581613728,2.6637450610654164e+16,4.861804973125067e+16,7674683704231246.0,1.1903046998687806e+16,665539216943.4047,2137242125155.6897,66788375062430.445,2333277261272896.0
37.44128793246003,2.6921063357334544e+16,4.919086069882576e+16,7756397159570442.0,1.2029780444241704e+16,687901641777.992,2209054544776.0083,69032531513315.66,2411690249979235.0
38.29011369110923,2.7206552061279304e+16,4.976937203526743e+16,7838651108783327.0,1.2157352168560364e+16,710941141892.0219,2283041260626.806,71344636959557.22,2492478077282408.0
39.15591596493141,2.7493927083856476e+16,5.035367131119944e+16,7921448537149103.0,1.2285766801662466e+16,734676974929.5798,2359264115188.5874,73726624124134.03,2575708323317115.0
40.03903428423004,2.7783198438059944e+16,5.094384736239214e+16,8004792329574777.0,1.2415028817894562e+16,759128915430.3558,2437786610873.9863,76180477610618.3,2661450383725961.0
40.93981496991464,2.8074375782065016e+16,5.153999032418645e+16,8088685268738255.0,1.2545142533051082e+16,784317267418.4464,2518673950455.5015,78708235166901.33,2749775513947281.5
41.85861126931294,2.8367468412545636e+16,5.214219166641962e+16,8173130033163126.0,1.2676112101388324e+16,810262877243.1733,2601993078302.636,81311988974231.83,2840756874392784.0
42.7957834946992,2.8662485257763132e+16,5.275054422888169e+16,8258129195227230.0,1.2807941512535888e+16,836987146674.5514,2687812722436.861,83993886961822.16,2934469576524467.0
