t(s),Total solute volume 1,Total retention volume 1,Total 1 volume 1,Total 2 volume 1,Total 3 volume 1,Total 4 volume 1,Total 5 volume 1,Total 6 volume 1
0.1,839524706393360.9,941664656952722.2,50673114377222.37,51466836182138.266,0.0,0.0,0.0,0.0
0.202,1264926390912435.0,1418974865006007.2,76350057685459.62,77545972265818.17,386319470.6061512,646863158.3273289,7633305013.870844,143777654648.94772
0.30604000000000003,1588821979232337.0,1782511228753649.8,95900165141480.62,97402304251832.06,980159979.8280612,1641205286.7093244,19367054970.082863,364791707760.90784
0.41216080000000005,1862732371612290.5,2090046879755938.5,112433201700379.58,114194307221270.33,1740956036.6261513,2915102652.5986414,34399705786.17928,647943457522.3864
0.5204040160000001,2105936408251482.0,2363199091029161.0,127112824454932.53,129103865302680.19,2650694349.7267585,4438393515.56834,52375332109.88625,986528600091.4486
0.6308120963200001,2328037902896771.5,2612736297804751.0,140518712776327.94,142719737718892.8,3699701950.2133136,6194881381.651991,73102806579.77992,1376947022848.6055
0.7434283382464002,2534618251842510.0,2844916764952365.5,152987755777296.28,155384090470173.34,4882437883.400979,8175288508.661366,96472646937.58405,1817136489051.658
0.8582969050113283,2729252736274264.5,3063749518510079.5,164735754888599.38,167316105208783.03,6195764301.516942,10374360982.53762,122422854288.98967,2305929158856.0405
0.9754628431115548,2914391170346770.0,3271981800795424.5,175910579151059.84,178665967133019.2,7638094621.13001,12789442372.464363,150922081446.65588,2842734546131.5894
1.094972099973786,3091797421982522.0,3471591878902114.5,186618694378547.16,189541809691737.7,9208921751.018484,15419683785.144154,181960311140.73337,3427363932626.43
1.2168715419732616,3262790694226730.0,3664059569436491.0,196939726729041.7,200024506272998.4,10908534580.58176,18265569147.06367,215543254093.56372,4059924849900.335
1.3412089728127268,3428387828409723.0,3850525783464760.0,206935052022362.3,210176394061201.34,12737837069.30548,21328612284.427162,251688774400.64154,4740753747714.21
1.4680331522689813,3589392072791505.0,4031892047432230.5,216653153752444.6,220046715974981.72,14698227431.584547,24611154628.20472,290424502342.461,5470371028893.05
1.597393815314361,3746451011884200.0,4208885447422135.5,226133119660064.28,229675172008756.72,16791514566.58992,28116225283.187344,331786183125.2891,6249449946142.359
1.729341691620648,3900095799991242.5,4382102612561418.0,235407009841372.62,239094324434299.3,19019858649.452766,31847441553.351154,375816503028.12714,7078794491274.566
1.863928525453061,4050768571919791.0,4552040443610340.0,244501511239008.94,248331278207093.34,21385727999.771454,35808936722.38643,422564237175.2548,7959323342559.697
2.001207095962122,4198842106670599.0,4719118156463495.0,253439124528446.9,257408886443558.53,23891867271.83832,40005306791.61861,472083621016.14044,8892058025812.97
2.1412312378813647,4344634258404572.0,4883693459487257.0,262239035160868.44,266346635107571.47,26541273739.089626,44441570771.12614,524433881740.34503,9878114088003.201
2.284055862638992,4488418757643735.0,5046074663496707.0,270917765317890.25,275161305181578.3,29337179504.130974,49123140956.339,579678900661.3344,10918696132392.303
2.4297369798917723,4630433445419829.0,5206529905737070.0,279489670911188.56,283867477432961.6,32283038153.46079,54055800329.93431,637886894113.3635,12015086240489.865
2.578331719489608,4770886629615964.0,5365294285657947.0,287967325258519.75,292477922127268.06,35382514774.814674,59245686227.418274,699130299208.9326,13168650155982.492
2.7298983538794,4909962082447430.0,5522575460833134.0,296361820720150.56,301003905370739.3,38639478619.727936,64699277799.635345,763485573630.5074,14380827964762.535
2.884496320956988,5047823002138981.0,5678558090217681.0,304683007824902.6,309455431986661.75,42057997828.298744,70423387244.13301,831033105205.5546,15653133776860.87
3.0421862473761276,5184615194718142.0,5833407401625440.0,312939687320946.8,317841440574348.94,45642335816.195435,76425153756.79445,901857140533.6223,16987154381886.855
3.2030299723236504,5320469654396201.0,5987272085156630.0,321139765925741.9,326169961698699.0,49396949011.76436,82712039744.1724,976045740290.9858,18384548406931.844
3.3670905717701234,5455504675540398.0,6140286661667699.0,329290383803198.25,334448247364088.75,53326485706.55987,89291828900.23912,1053690756536.3983,19847045888872.945
3.5344323832055258,5589827595867568.0,6292573437962778.0,337398019781596.56,342682877880386.94,57435785836.73676,96172625841.86307,1134887828410.7483,21376448193132.19
3.7051210308696363,5723536246410410.0,6444244133393693.0,345468578872520.1,350879850752751.4,61729881553.11583,103362857064.93758,1219736393421.148,22974628225970.992
3.879223451487029,5856720166197793.0,6595401242815510.0,353507465588095.06,359044655147269.06,66213998468.2294,110871273034.14352,1308339712102.597,24643530898750.426
4.0568079205167695,5989461626548286.0,6746139186224241.0,361519645766623.4,367182334685005.75,70893557491.96118,118706951258.35364,1400804904310.779,26385173811261.94
4.237944078927105,6121836500105027.0,6896545284450972.0,369509699026903.5,375297540717945.75,75774177185.39125,126879300233.82246,1497242995755.3079,28201648127931.785
4.422702960505647,6253915002339963.0,7046700591991893.0,377481863524906.25,383394577786722.0,80861676576.49556,135398064160.81248,1597768973659.9434,30095119625925.637
4.61115701971576,6385762327596795.0,7196680611710407.0,385440074344868.8,391477442613044.2,86162078392.40303,144273328357.81387,1702501850654.9524,32067829898297.176
4.803380160110075,6517439197372840.0,7346555911250778.0,393387996593199.9,399549857711979.2,91681612671.68964,153515525312.21628,1811564736179.9397,34122097698587.273
4.9994477633122765,6649002335138852.0,7496392657190521.0,401329054058269.3,407615300500650.44,97426720727.22122,163135441318.05377,1925084914814.6055,36260320415899.74
5.199436718578522,6780504879326136.0,7646253079966203.0,409266454138015.0,415677028616303.2,103404059435.72551,173144223660.95538,2043193931066.872,38484975671588.25
5.403425452950093,6911996743998976.0,7796195880240876.0,417203209609870.7,423738102027227.3,109620505834.88875,183553388318.14313,2166027680238.9812,40798623030409.41
5.611493962009095,7043524935048455.0,7946276585497013.0,425142157716003.06,431801402416937.9,116083162012.55396,194374828147.6581,2293726505066.832,43203905820399.91
5.823723841249277,7175133828395785.0,8096547864127218.0,433085976955473.6,439869650239354.9,122799360275.70605,205620821546.2129,2426435297889.4595,45703553056895.84
6.040198318074262,7306865415605211.0,8247059803075877.0,441037201909244.56,447945419776033.5,129776668589.5266,217304041559.3879,2564303608156.528,48300381467080.016
6.261002284435747,7438759521423292.0,8397860154095433.0,448998236370706.56,456031152472354.3,137022896278.95656,229437565431.53732,2707485755124.775,50997297612239.234
6.486222330124463,7570853997040983.0,8548994552873032.0,456971365010837.5,464129168785403.2,144546099987.0298,242034884585.78607,2856140945629.868,53797300105602.336
6.715946776726952,7703184892283192.0,8700506714620596.0,464958763771439.2,472241678740004.4,152354589885.7781,255109915027.1147,3010433396851.0776,56703481924192.71
6.950265712261491,7835786609442875.0,8852438609174750.0,472962509150459.0,480370791359479.0,160456936136.8296,268677008163.70364,3170532464011.7056,59719032813625.68
7.18927102650672,7968692041072325.0,9004830618200003.0,480984586518968.5,488518523112900.94,168861975599.93948,282750962043.6071,3336612772980.907,62847241785198.12
7.433056447036854,8101932693707947.0,9157721676711594.0,489026897589106.3,496686805500014.9,177578818788.67365,297347033005.45746,3508854357761.3228,66091499704977.45
7.681717575977592,8235538799223390.0,9311149400818976.0,497091267135274.6,504877491877708.06,186616857073.30872,312480947743.3194,3687442802864.0894,69455301974918.06
7.935351927497144,8369539415269616.0,9465150203326518.0,505179449056628.5,513092363617459.4,195985770131.75098,328168915787.0368,3872569390587.161,72942251306301.47
8.194058966047088,8503962516061392.0,9619759398604582.0,513293131856882.0,521333135670985.94,205695533649.92798,344427642400.53705,4064431253225.7397,76556060586045.25
8.45794014536803,8638835074601286.0,9775011297955620.0,521433943607299.1,529601461610959.94,215756427273.68796,361274341901.49084,4263231530255.332,80300555836636.3
8.72709894827539,8774183137289187.0,9930939296539562.0,529603456450056.25,537898938204922.25,226179042814.75,378726751406.60815,4469179530537.563,84179679270637.67
9.0016409272409,8910031891743116.0,1.0087575952786222e+16,537803190691871.3,546227109573024.7,236974292713.71722,396803145007.6292,4682490899608.704,88197492440890.4
9.281673745785717,9046405728553534.0,1.0244953061105782e+16,546034618531448.06,554587470973860.2,248153418763.57974,415522348383.74664,4903387792118.58,92358179487686.05
9.567307220701432,9183328297603418.0,1.0403101718608252e+16,554299167458909.9,562981472257148.0,259728001097.51105,434903753856.8607,5132099049495.336,96666050484329.22
9.85865336511546,9320822559509738.0,1.0562052386456696e+16,562598223360768.8,571410521017336.4,271709967445.11685,454967335896.63293,5368860382918.239,101125544882637.0
10.155826432417769,9458910832675262.0,1.0721834946404798e+16,570933133359957.1,579875985478111.5,284111602661.61084,475733667082.8442,5613914561687.274,105741235060039.27
10.458942961066125,9597614836383208.0,1.0882478753004686e+16,579305208416964.8,588379197134288.2,296945558534.6872,497223934533.06616,5867511607083.988,110517829970064.6
10.768121820287448,9736955730315826.0,1.1044012681916108e+16,587715725715175.2,596921453174501.9,310224863874.1379,519459956804.1179,6129908991823.292,115460178898082.39
11.083484256693197,9876954150836538.0,1.120646517469848e+16,596165930850806.5,605504018705463.9,323962934889.5257,542464201276.19745,6401371845201.736,120573275324285.08
11.405153941827061,1.0017630244335638e+16,1.136986428042544e+16,604657039845660.4,614128128796217.8,338173585861.4582,566259802029.0197,6682173164051.758,125862260895974.9
11.733257020663602,1.0159003697908488e+16,1.1534237694425386e+16,613190240998813.2,622794990358846.6,352871040112.2451,590870578219.6437,6972594029616.487,131332429511305.44
12.067922161076874,1.0301093767603924e+16,1.169961279441731e+16,621766696591690.4,631505783880255.4,368069941281.94635,616321052972.0634,7272923830464.067,136989231516719.23
12.409280604298411,1.04439193044579e+16,1.1866016674285098e+16,630387544459412.1,640261665018134.8,383785364915.99786,642636472788.9614,7583460491564.204,142838278020386.56
12.75746621638438,1.0587498778501962e+16,1.203347617570629e+16,639053899439959.0,649063766072804.1,400032830370.85486,669842827496.4116,7904510709653.8125,148885345324036.12
13.112615540712067,1.0731850300919352e+16,1.2202017917830758e+16,647766854711476.5,657913197345482.8,416828313044.2176,697966870732.5582,8236390195022.718,155136379475632.9
13.474867851526309,1.087699164450194e+16,1.2371668325184574e+16,656527483027041.9,666811048392400.0,434188256936.65375,727036140991.6865,8579423919853.418,161597500945431.28
13.844365208556836,1.1022940262546798e+16,1.2542453653957356e+16,665336837855263.6,675758389183243.4,452129587551.5488,757078983235.359,8933946373252.812,168275009427994.44
14.221252512727972,1.1169713306317466e+16,1.2714400016815464e+16,674195954434214.9,684756271171608.4,470669725140.5463,788124571082.5667,9300301823117.44,175175388772838.0
14.605677562982532,1.1317327641182106e+16,1.288753340637128e+16,683105850745528.0,693805728284365.6,489826598301.7525,820202929591.1726,9678844584976.469,182305312046411.56
14.997791114242183,1.1465799861530892e+16,1.3061879717424564e+16,692067528414798.5,702907777836138.9,509618657938.1705,853344958643.1241,10069939297959.887,189671646728201.3
15.397746936527026,1.1615146304564348e+16,1.3237464768083158e+16,701081973543835.6,712063421374618.8,530064891583.9894,887582456946.2686,10473961208043.756,197281460043784.5
15.805701875257567,1.1765383063036178e+16,1.3414314319858948e+16,710150157479810.6,721273645461742.8,551184838106.4626,922948146665.7308,10891296458724.719,205142024437723.94
16.221815912762718,1.191652599702604e+16,1.359245409682735e+16,719273037525859.5,730539422395432.5,572998602791.3049,959475698698.1653,11322342389281.633,213260823189252.56
16.64625223101797,1.2068590744811272e+16,1.3771909803930562e+16,728451557597284.0,739861710876076.9,595526872819.6289,997199758602.3596,11767507840782.902,221645556173732.84
17.079177275638333,1.2221592732899176e+16,1.3952707144497126e+16,737686648827097.0,749241456621559.1,618790933144.5929,1036155973199.907,12227213470001.611,230304145772938.72
17.5207608211511,1.2375547185276704e+16,1.4134871837044612e+16,746979230124330.0,758679592934307.0,642812682776.07,1076381017859.8677,12701892071402.418,239244742937241.22
17.97117603757412,1.2530469131928742e+16,1.4318429631426554e+16,756330208688184.0,768177041223501.4,667614651481.6913,1117912624481.5007,13191988907367.002,248475733402833.44
18.430599558325603,1.2686373416671058e+16,1.4503406324378256e+16,765740480480828.8,777734711485280.8,693220016912.8062,1160789610189.359,13697962046826.203,258005744067143.1
18.899211549492115,1.2843274704340156e+16,1.468982777451206e+16,775210930661369.8,787353502743502.9,719652622163.9167,1205051906755.149,14220282712469.043,267843649525641.75
19.37719578048196,1.3001187487377158e+16,1.487771991680828e+16,784742433983246.4,797034303453371.6,746936993774.2284,1250740590760.8801,14759435636699.637,277998578773264.06
19.864739696091597,1.3160126091839888e+16,1.5067108776641906e+16,794335855157126.5,806777991870010.6,775098360180.0398,1297897914517.899,15315919426515.314,288479922073671.25
20.36203449001343,1.3320104682872698e+16,1.5258020483382986e+16,803992049181052.4,816585436383780.5,804162670626.6515,1346567337756.4497,15890246937477.562,299297337999609.2
20.869275179813698,1.3481137269660132e+16,1.545048128360276e+16,813711861639440.6,826457495823976.0,834156614548.5175,1396793560100.4507,16482945656949.197,310460760647593.4
21.38666068340997,1.364323770988714e+16,1.5644517553914392e+16,823496128972306.1,836395019732236.0,865107641426.3053,1448622554341.9004,17094558096769.455,321980407030150.94
21.91439389707817,1.3806419713724012e+16,1.5840155813472614e+16,833345678715773.9,846398848606863.0,897043981129.4021,1502101600529.4648,17725642195536.25,333866784648802.44
22.452681775019734,1.3970696847351208e+16,1.6037422736152206e+16,843261329714857.8,856469814118897.6,929994664752.322,1557279320885.2854,18376771730663.48,346130699250924.9
23.00173541052013,1.4136082536035588e+16,1.6236345162420834e+16,853243892309109.4,866608739300703.2,963989545953.1931,1614205715563.9167,19048536740376.258,358783262773538.3
23.561770118730532,1.4302590066763584e+16,1.6436950110917458e+16,863294168491586.0,876816438707403.0,999059322802.2859,1672932199266.6445,19741543955800.977,371835901476992.6
24.133005521105144,1.4470232590435216e+16,1.6639264789741382e+16,873412952041261.5,887093718551375.2,1035235560148.1327,1733511638723.9937,20456417243300.777,385300364271338.56
24.715665631527248,1.4639023123615748e+16,1.6843316607452982e+16,883601028628753.9,897441376809641.0,1072550712508.3066,1795998391058.332,21193798057198.438,399188731238056.8
25.309978944157795,1.4808974549838648e+16,1.704913318378046e+16,893859175894983.2,907860203303736.8,1111038147491.4316,1860448343037.538,21954345903013.67,413513422349531.8
25.91617852304095,1.4980099620446972e+16,1.7256742360020996e+16,904188163501938.6,918350979751302.6,1150732169756.1309,1926918951229.508,22738738811332.8,428287206388460.8
26.53450209350177,1.5152410954955262e+16,1.7466172209118066e+16,914588753154549.5,928914479788264.0,1191668045511.9087,1995469283065.8691,23547673822407.79,443523210069005.44
27.165192135371807,1.5325921040908122e+16,1.7677451045389516e+16,925061698592114.8,939551468960160.0,1233882027565.8132,2066160058821.4326,24381867481562.246,459234927361156.6
27.808495978079243,1.5500642233204516e+16,1.789060743387295e+16,935607745547549.4,950262704680720.8,1277411380917.6023,2139053694513.982,25242056345459.348,475436229019289.0
28.464665897640828,1.567658675285101e+16,1.8105670199247824e+16,946227631672110.4,961048936155436.4,1322294408904.596,2214214345726.6196,26128997499256.516,492141372315394.5
29.133959215593645,1.5853766685099296e+16,1.832266843428341e+16,956922086422987.0,971910904267376.1,1368570479895.884,2291707952352.059,27043469084641.414,509365010976835.0
29.816638399905518,1.6032193976916644e+16,1.8541631507754612e+16,967691830910618.1,982849341422113.9,1416280054533.5823,2371602284255.112,27986270838703.188,527122205327773.8
30.51297116790363,1.6211880433729646e+16,1.876258907175743e+16,978537577702145.0,993864971348109.5,1465464713516.7031,2453966987846.19,28958224643555.805,545428432632643.8
31.223230591261704,1.6392837715374838e+16,1.8985571068345416e+16,989460030577000.2,1004958508848453.5,1516167185920.812,2538873633554.274,29960175086576.754,564299597639101.1
31.947695203086937,1.6575077331181646e+16,1.921060773540143e+16,1000459884230105.9,1016130659499439.0,1568431378043.8882,2626395764183.6514,30992990031075.17,583752043316927.2
32.686649107148675,1.6758610634105214e+16,1.943772961164605e+16,1011537823917746.0,1027382119290862.6,1622302402765.8555,2716608944133.3296,32057561197141.906,603802561788196.5
33.44038208929165,1.694344881382018e+16,1.9666967540677556e+16,1022694525040707.4,1038713574202652.2,1677826609405.907,2809590809452.8325,33154804752370.195,624468405442803.4
34.20918973107749,1.7129602888679098e+16,1.989835267392683e+16,1033930652658892.6,1050125699711874.4,1735051614058.0764,2905421118701.6665,34285661912061.74,645767298232126.2
34.993373525699035,1.7317083696432576e+16,2.0131916472403116e+16,1045246860931201.4,1061619160223836.2,1794026330381.691,3004181804573.496,35451099548457.97,667717447132071.2
35.793240996213015,1.7505901883603334e+16,2.03676907070989e+16,1056643792474148.5,1073194608420659.8,1854801000818.9028,3105957026238.651,36652110808449.44,690337553765224.6
36.60910581613728,1.7696067893400992e+16,2.0605707457913596e+16,1068122077632409.8,1084852684520404.6,1917427228207.1833,3210833222351.2163,37889715739129.98,713646826170130.9
37.44128793246003,1.788759195206085e+16,2.0845999110951424e+16,1079682333654256.1,1096594015439576.0,1981958007749.62,3318899164658.7354,39164961920462.836,737664990703882.5
38.29011369110923,1.8080484053488316e+16,2.108859835404272e+16,1091325163764669.5,1108419213851743.9,2048447759300.8245,3430246012143.9473,40478925104227.82,762412304062348.9
39.15591596493141,1.8274753942087784e+16,2.1333538170335844e+16,1103051156128944.5,1120328877134882.4,2116952359920.9954,3544967365619.3354,41832709858313.25,787909565400382.9
40.03903428423004,1.8470411093658156e+16,2.158085182980469e+16,1114860882699520.8,1132323586200163.8,2187529176644.9954,3663159322685.49,43227450215303.83,814178128532236.5
40.93981496991464,1.86674646942361e+16,2.1830572878516924e+16,1126754897939008.0,1144403904194960.2,2260237099407.5845,3784920532955.1445,44664310324205.56,841239914190318.6
41.85861126931294,1.8865923616775588e+16,2.208273512551109e+16,1138733737412550.0,1156570375073186.2,2335136574060.197,3910352253434.5894,46144485104030.445,869117422318233.5
42.7957834946992,1.906579639555555e+16,2.2337372627134028e+16,1150797916243114.0,1168823522026362.0,2412289635408.4727,4039558403944.283,47669200897846.62,897833744371805.1
43.751699164593184,1.9267091198217376e+16,2.2594519668698436e+16,1162947927423677.2,1181163845769378.5,2491759940193.9673,4172645622450.5327,49239716125781.44,927412575599573.0
44.72673314788505,1.94698157953429e+16,2.285421074332687e+16,1175184239980979.8,1193591822675498.2,2573612799937.216,4309723320169.8193,50857321935344.914,957878227272006.6
