t(s),Total solute volume 1,Total retention volume 1,Total 1 volume 1,Total 2 volume 1,Total 3 volume 1,Total 4 volume 1,Total 5 volume 1,Total 6 volume 1
0.1,988500314890707.8,1201179625827040.0,98333854761724.14,114345456174609.27,0.0,0.0,0.0,0.0
0.202,1489020312122941.8,1809500743454719.2,148124492562783.7,172243454226191.8,139379704.33149886,287390980.59088933,4633981503.49058,107423790612.39586
0.30604000000000003,1870243976292610.8,2272918933253547.5,186047791142223.16,216341765420347.56,353622940.9452548,729145422.8859866,11757039989.496546,272560590011.642
0.41216080000000005,2192679251388881.2,2664948831428017.5,218122948986355.2,253639688930948.0,628110142.0955936,1295118740.2987502,20883078122.92969,484135814829.66675
0.5204040160000001,2478998834876914.0,3013136006272123.0,246605396601868.0,286759904803387.3,956350417.164825,1971927173.3174253,31796284935.62224,737145427426.2262
0.6308120963200001,2740500323065543.0,3331205960004323.5,272618994230442.28,317009270324617.6,1334860586.2711473,2752388657.1240067,44380851593.67265,1028904282885.7386
0.7434283382464002,2983750274649526.5,3627136460905006.5,296816968808791.06,345147376720082.8,1761647828.30241,3632394143.818029,58570520963.26943,1357876163668.8489
0.8582969050113283,3212955358162426.5,3906038348208439.0,319617790547166.25,371660833284661.3,2235586249.2444673,4609622129.213101,74327859510.2596,1723193146298.9148
0.9754628431115548,3430998197978668.5,4171413996060591.0,341308216630699.75,396883089587895.44,2756109713.906464,5682905293.210312,91634044522.53261,2124418803792.5532
1.094972099973786,3639954409747434.0,4425785453631313.5,362094724776738.25,421054243906242.56,3323041736.4042387,6851879745.879611,110483208304.02036,2561417071110.335
1.2168715419732616,3841376453657420.5,4671039287897600.0,382131750338520.6,444353878146136.9,3936493262.1662064,8116774261.149516,130879039635.70543,3034273448367.658
1.3412089728127268,4036461053124133.0,4908629970408343.0,401538340751032.6,466920424116576.4,4596797451.351095,9478275804.831516,152832615461.21255,3543244727881.323
1.4680331522689813,4226153633702733.5,5139706751449044.0,420408544886250.0,488863244572674.06,5304466135.247334,10937439750.820005,176360953155.26346,4088725428342.0913
1.597393815314361,4411216480158236.5,5365196457040654.0,438818193169830.0,510270517331928.8,6060159705.32494,12495627794.483244,201486009400.09482,4671224583752.665
1.729341691620648,4592274897689209.0,5585859564642161.0,456829489598945.6,531214575005721.06,6864665716.676279,14154463834.515913,228233968797.03864,5291349249932.878
1.863928525453061,4769849463137944.0,5802329380790556.0,474494220022325.06,551755635680361.94,7718883362.745471,15915801960.978477,256634727685.9999,5949792536934.711
2.001207095962122,4944379161384696.0,6015140146136988.0,491856053698300.7,571944479235518.8,8623812034.307154,17781702864.774704,286721513757.5016,6647324789804.815
2.1412312378813647,5116238365071297.0,6224747661539806.0,508952232400653.0,591824411485479.5,9580542798.86142,19754416268.825165,318530602762.29065,7384787020543.815
2.284055862638992,5285749545269703.0,6431544728327613.0,525814834848211.1,611432734494535.5,10590252019.197927,21836367770.059093,352101106343.7058,8163085989034.541
2.4297369798917723,5453192953423846.0,6635872909486116.0,542471739843302.6,630801866542303.1,11654196572.840733,24030148982.313496,387474813095.884,8983190517998.674
2.578331719489608,5618814110755059.0,6838031627562635.0,558947371301460.2,649960208465874.1,12773710292.974085,26338510197.84324,424696070233.57086,9846128749521.744
2.7298983538794,5782829681788420.0,7038285299795543.0,575263282537030.9,668932823084045.6,13950201358.065638,28764355004.981224,463811696804.0808,10752986132872.197
2.884496320956988,5945432137780267.0,7236869003391981.0,591438620170749.2,687741974642519.9,15185150430.590786,31310736450.39745,504870921805.28564,11704903989756.744
3.0421862473761276,6106793500790038.0,7433993024132683.0,607490496581852.9,706407561911997.5,16480109396.530174,33980854440.112164,547925342278.0261,12703078542674.396
3.2030299723236504,6267068380135613.0,7629846545508524.0,623434291968035.0,724947469432257.4,17836700593.883755,36778054148.832436,593028897657.3171,13748760320222.361
3.3670905717701234,6426396457725488.0,7824600668483954.0,639283901580864.9,743377855004681.9,19256616444.965782,39705825261.859505,640237857548.4185,14843253873650.748
3.5344323832055258,6584904539493466.0,8018410904280951.0,655051939798025.5,761713386993363.2,20741619426.76269,42767801914.064606,689610820742.865,15987917754008.684
3.7051210308696363,6742708261830574.0,8211419248163623.0,670749909875460.5,779967441717812.6,22293542328.2046,45967763220.4629,741208723773.7522,17184164710452.553
3.879223451487029,6899913521189297.0,8403755917033497.0,686388346161267.9,798152268823415.6,23914288754.19915,49309634315.60077,795094857675.4507,18433462078767.926
4.0568079205167695,7056617679689262.0,8595540815005901.0,701976934026730.5,816279130740699.8,25605833844.690464,52797487836.31513,851334891892.4849,19737332335639.668
4.237944078927105,7212910588056514.0,8786884777171834.0,717524611626081.5,834358421014548.5,27370225183.500324,56435545795.8148,909996904498.3656,21097353799213.44
4.422702960505647,7368875458522412.0,8977890631174516.0,733039656730588.0,852399765277373.6,29209583876.77867,60228181807.49209,971151418053.6262,22515161460396.98
4.61115701971576,7524589613648821.0,9168654108141248.0,748529761220033.8,870412107870002.2,31126105784.883175,64179923625.09874,1034871440565.1389,23992447932430.266
4.803380160110075,7680125131906446.0,9359264628267980.0,764002095303461.4,888403786519388.6,33122062894.67884,68295455972.4668,1101232511114.2378,25530964508696.805
4.9994477633122765,7835549406831169.0,9549805981492370.0,779463363142813.8,906382597019402.2,35199804821.79387,72579623641.19499,1170312749805.6282,27132522320708.453
5.199436718578522,7990925633441259.0,9740356919876230.0,794919851240660.9,924355849497498.5,37361760434.41716,77037434838.95564,1242192911757.507,28798993589780.824
5.403425452950093,8146313233115235.0,9930991675300578.0,810377470706119.4,942330417562736.8,39610439591.9006,81674064774.52441,1316956444908.712,30532312967202.145
5.611493962009095,8301768217027547.0,1.012178041407495e+16,825841793413540.2,960312780367976.6,41948434958.24086,86494859557.47922,1394689613742.5876,32334490357628.453
5.823723841249277,8457343550612379.0,1.0312789635681608e+16,841318088238910.6,978309064683052.9,44378424092.509605,91505339870.98529,1475481316404.0874,34207567066897.23
6.040198318074262,8613089388038135.0,1.0504082527574606e+16,856811344414484.1,996325072147996.9,46903171299.54537,96711205739.65735,1559423522883.4968,36153685074072.57
6.261002284435747,8769053365593240.0,1.069571927817818e+16,872326300694321.0,1014366313123415.8,49525529920.006134,102118340620.39587,1646611101317.184,38175043795337.8
6.486222330124463,8925280820402163.0,1.0887757355733132e+16,887867467116675.0,1032438032012542.2,52248444548.75607,107732816133.79443,1737141953899.9268,40273912987155.12
6.715946776726952,9081814993623796.0,1.1080251757110378e+16,903439145217702.1,1050545230766340.5,55074953383.26103,113560896906.57784,1831117094967.8704,42452634557284.75
6.950265712261491,9238697212068714.0,1.1273255230476462e+16,919045446098379.0,1068692689892206.8,58008190667.496574,119609045610.99141,1928640732256.685,44713624448632.26
7.18927102650672,9395967050956658.0,1.1466818475118122e+16,934690306615235.0,1086884987281057.9,61051389230.99989,125883928200.38225,2029820351323.219,47059374596436.63
7.433056447036854,9553662480139504.0,1.1660990321251988e+16,950377503926314.2,1105126515121775.6,64207883123.061455,132392419340.96506,2134766803130.5896,49492454958796.66
7.681717575977592,9711819995784550.0,1.1855817892242954e+16,966110668590723.5,1123421495133747.5,67481110342.37546,139141608040.42752,2243594394807.219,52015515620780.625
7.935351927497144,9870474739233962.0,1.2051346751317878e+16,981893296392535.9,1141773992316049.5,70874615662.74074,146138803474.60345,2356420983599.627,54631288972577.14
8.194058966047088,1.0029660604523634e+16,1.2247621034575812e+16,997728759036498.0,1160187927384715.0,74392053555.66083,153391541013.95108,2473368074047.1187,57342591962339.77
8.45794014536803,1.018941033584401e+16,1.2444683571856508e+16,1013620313843263.5,1178667088046631.0,78037191210.90985,160907588452.05478,2594560918413.802,60152328424548.65
8.72709894827539,1.034975561606001e+16,1.2642575996823642e+16,1029571112555119.0,1197215139239110.5,81813911656.33208,168694952438.7451,2720128620420.2817,63063491484866.24
9.0016409272409,1.0510727147261132e+16,1.2841338847444704e+16,1045584209348949.8,1215835632447594.8,85726216978.3299,176761885120.856,2850204242323.2456,66079166042608.484
9.281673745785717,1.0672354724191724e+16,1.3041011657902516e+16,1061662568140943.2,1234532014199745.0,89778231644.65672,185116890993.9421,2984924915396.74,69202531332079.63
9.567307220701432,1.0834667301306072e+16,1.324163304284309e+16,1077809069257046.0,1253307633822091.0,93974205931.29433,193768733968.62405,3124431953874.3105,72436863564137.39
9.85865336511546,1.099769305410184e+16,1.3443240774756956e+16,1094026515534315.0,1272165750534825.8,98318519455.32617,202726444655.5171,3268870972415.6655,75785538649469.02
10.155826432417769,1.1161459435308062e+16,1.3645871855194796e+16,1110317637910345.1,1291109539951355.0,102815684815.86581,211999327872.9761,3418392007166.212,79252035005159.45
10.458942961066125,1.1325993226435736e+16,1.38495625804371e+16,1126685100551434.8,1310142100041499.2,107470351345.21638,221596970382.15015,3573149640481.89,82839936446232.7
10.768121820287448,1.149132058514101e+16,1.4054348602166564e+16,1143131505564158.8,1329266456610228.0,112287308972.56232,231529248854.1005,3733303129395.8926,86552935163940.97
11.083484256693197,1.1657467088799752e+16,1.426026498362886e+16,1159659397330078.8,1348485568338187.0,117271492202.61417,241806338073.95175,3899016537907.5894,90394834792662.19
11.405153941827061,1.1824457774647468e+16,1.446734625171527e+16,1176271266498767.2,1367802331424917.8,122427984211.72246,252438719387.29587,4070458873177.58,94369553567353.31
11.733257020663602,1.1992317176800504e+16,1.46756264453522e+16,1192969553670610.0,1387219583871311.0,127762021064.1037,263437189394.27512,4247804225716.545,98481127573591.31
12.067922161076874,1.2161069360439692e+16,1.4885139160541686e+16,1209756652797292.0,1406740109433793.8,133278996050.90948,274812868896.98984,4431231913658.9,102733714092310.97
12.409280604298411,1.233073795340775e+16,1.5095917592361158e+16,1226634914325075.5,1426366641279421.5,138984464154.97968,286577212106.0784,4620926631215.533,107131595041422.53
12.75746621638438,1.250134617544613e+16,1.5307994574197912e+16,1243606648103189.5,1446101865367858.2,144884146644.21063,298742016112.5384,4817078601403.374,111679180516582.4
13.112615540712067,1.2672916865272792e+16,1.5521402614466896e+16,1260674126077479.2,1465948423583604.5,150983935796.5799,311319430631.0248,5019883733152.555,116381012433443.6
13.474867851526309,1.2845472505682634e+16,1.5736173931033986e+16,1277839584787341.8,1485908916639514.2,157289899759.94833,324321968021.09784,5229543782895.45,121241768273809.84
13.844365208556836,1.3019035246833752e+16,1.595234048354647e+16,1295105227682195.2,1505985906770454.5,163808287549.8718,337762513593.0606,5446266520744.52,126266264938168.67
14.221252512727972,1.3193626927866766e+16,1.6169934003851912e+16,1312473227272094.8,1526181920234119.0,170545534188.72717,351654336205.22125,5670265901369.474,131459462707166.77
14.605677562982532,1.3369269096989712e+16,1.638898602466938e+16,1329945727125791.8,1546499449634392.8,177508265989.58,366011099159.63336,5901762239686.9795,136826469314654.47
14.997791114242183,1.3545983030149146e+16,1.6609527906662154e+16,1347524843728025.8,1566940956081105.2,184703305988.27542,380846871403.5052,6140982391479.75,142372544134998.25
15.397746936527026,1.3723789748395518e+16,1.6831590864046492e+16,1365212668207058.8,1587508871198826.5,192137679527.36948,396176139043.73315,6388159939064.029,148103102487435.22
15.805701875257567,1.390271003404164e+16,1.7055205988859262e+16,1383011267942027.0,1608205598995960.0,199818619995.56482,412013817182.12024,6643535382128.513,154023720060308.5
16.221815912762718,1.4082764445703518e+16,1.728040427399614e+16,1400922688059209.8,1629033517604642.5,207753574726.44736,428375262079.0997,6907356333870.255,160140137458097.16
16.64625223101797,1.4263973332304716e+16,1.7507216635122024e+16,1418948952825137.2,1649994980900686.8,215950211060.38144,445276283653.94037,7179877722555.977,166458264874224.22
17.079177275638333,1.4446356846118142e+16,1.7735673931546564e+16,1437092066943965.8,1671092320012214.5,224416422573.5302,462733158329.5976,7461361998640.99,172984186892697.12
17.5207608211511,1.4629934954912648e+16,1.7965806986150106e+16,1455354016765782.2,1692327844724696.5,233160335478.0562,480762642230.5673,7752079347580.093,179724167421702.62
17.97117603757412,1.4814727453265434e+16,1.819764660443769e+16,1473736771411953.2,1713703844789558.8,242190315197.6405,499381984742.3075,8052307908468.708,186684654762354.16
18.430599558325603,1.5000753973096508e+16,1.8431223592792364e+16,1492242283823058.8,1735222591142731.2,251514973122.56537,518608942440.95636,8362333998654.797,193872286815859.1
18.899211549492115,1.5188033993476348e+16,1.8666568775993892e+16,1510872491734538.0,1756886337039167.8,261143173548.68338,538461793402.274,8682452344465.933,201293896432438.72
19.37719578048196,1.5376586849753114e+16,1.890371301406276e+16,1529629318584652.5,1778697319108658.5,271084040804.7039,558959351898.939,9012966318198.184,208956516905411.56
19.864739696091597,1.5566431742042646e+16,1.9142687218485084e+16,1548514674359052.0,1800657758337881.5,281346966572.29846,580120983495.5042,9354188181517.377,216867387613925.28
20.36203449001343,1.5757587743120084e+16,1.9383522367870444e+16,1567530456375805.0,1822769860983312.2,291941617403.6449,601966620550.5127,9706439335425.684,225033959817876.56
20.869275179813698,1.5950073805749222e+16,1.9626249523088924e+16,1586678550014502.8,1845035819419009.2,302877942441.1023,624516778135.485,10070050576949.898,233463902608651.84
21.38666068340997,1.6143908769482294e+16,1.9870899841932016e+16,1605960829392719.8,1867457812923222.8,314166181343.8136,647792570380.6317,10445362362711.01,242165109019377.4
21.91439389707817,1.6339111366960532e+16,2.011750459333817e+16,1625379157992743.0,1890038008407196.8,325816872426.12036,671815727257.406,10832725079537.15,251145702298442.94
22.452681775019734,1.6535700229743532e+16,2.0366095171219744e+16,1644935389241481.8,1912778561089481.0,337840861012.7663,696608611808.1364,11232499322285.928,260414042350135.94
23.00173541052013,1.6733693893692204e+16,2.061670310792796e+16,1664631367045949.0,1935681615118613.8,350249308015.9597,722194237833.2188,11645056179044.629,269978732346294.2
23.561770118730532,1.6933110803929456e+16,2.0869360087386748e+16,1684468926286731.8,1958749304146956.8,363053698739.46515,748596288046.5017,12070777523879.814,279848625512948.66
24.133005521105144,1.7133969319399754e+16,2.112409795792745e+16,1704449893271597.2,1981983751858124.0,376265851914.9718,775839132709.7145,12510056317311.43,290032832096010.0
24.715665631527248,1.73362877170476e+16,2.138094874485156e+16,1724576086151109.8,2005387072450313.8,389897928976.08826,803947848756.9686,12963296914688.852,300540726510109.06
25.309978944157795,1.7540084195632718e+16,2.1639944662749e+16,1744849315298190.8,2028961371077658.8,403962443575.3891,832948239420.5367,13430915382650.05,311381954674783.1
25.91617852304095,1.7745376879199192e+16,2.1901118127595668e+16,1765271383653210.2,2052708744251496.2,418472271350.06445,862866854369.32,13913339823847.229,322566441542250.7
26.53450209350177,1.7952183820213404e+16,2.2164501768654468e+16,1785844087036157.5,2076631280203384.8,433440659941.75824,893731010371.5677,14411010710126.182,334104398821104.6
27.165192135371807,1.81605230023852e+16,2.2430128440200284e+16,1806569214427253.8,2100731059211389.2,448881239276.3108,925568812493.6249,14924381224348.201,346006332900310.0
27.808495978079243,1.837041234318475e+16,2.269803123309026e+16,1827448548217351.8,2125010153891274.5,464808032109.188,958409175846.6312,15453917611047.531,358283052977932.8
28.464665897640828,1.8581869696066788e+16,2.2968243486197732e+16,1848483864429181.2,2149470629453777.0,481235464842.45844,992281847893.2756,16000099536119.09,370945679399139.44
29.133959215593645,1.8794912852412932e+16,2.3240798797726484e+16,1869676932910588.0,2174114543929275.2,498178378619.2577,1027217431326.8555,16563420455734.064,384005652208012.7
29.816638399905518,1.900955954320147e+16,2.351573103642379e+16,1891029517500606.0,2198943948360941.0,515652040701.7824,1063247407535.074,17144387994683.654,397474739917819.0
30.51297116790363,1.9225827440412196e+16,2.3793074352704256e+16,1912543376169240.8,2223960886967262.2,533672156138.8437,1100404160661.0898,17743524334352.992,411365048504379.4
31.223230591261704,1.9443734158174204e+16,2.40728631897004e+16,1934220261131626.2,2249167397274797.2,552254879729.1942,1138721002274.563,18361366610529.766,425689030627290.75
31.947695203086937,1.9663297253662068e+16,2.43551322942511e+16,1956061918937201.0,2274565510221863.5,571416828286.7672,1178232196665.3882,18998467321253.523,440459495083731.7
32.686649107148675,1.988453422774519e+16,2.463991672783757e+16,1978070090534268.0,2300157250233608.5,591175093214.1033,1218972986773.1133,19655394744913.36,455689616499636.06
33.44038208929165,2.010746252539306e+16,2.4927251877478404e+16,2000246511310338.0,2325944635268936.0,611547253390.2273,1260979620764.849,20332733368802.1,471392945263071.75
34.20918973107749,2.033209953583863e+16,2.5217173466586972e+16,2022592911108362.8,2351929676839365.5,632551388379.2483,1304289379274.733,21031084328335.957,487583417704598.75
34.993373525699035,2.0558462592499172e+16,2.5509717565799852e+16,2045111014218882.0,2378114379999907.0,654206091965.968,1348940603317.8845,21751065857149.086,504275366529445.2
35.793240996213015,2.0786568972653028e+16,2.5804920603775944e+16,2067802539347845.5,2404500743311645.5,676530486024.7782,1394972722891.705,22493313748269.867,521483531506280.3
36.60910581613728,2.101643589686742e+16,2.6102819377967576e+16,2090669199559715.2,2431090758775558.0,699544234727.9945,1442426286277.407,23258481826586.047,539223070417332.06
37.44128793246003,2.1248080528171348e+16,2.640345106535983e+16,2113712702195153.8,2457886411736844.0,723267559099.7928,1491342990054.2937,24047242432801.3,557509570274511.56
38.29011369110923,2.1481519970962844e+16,2.670685323317072e+16,2136934748762370.5,2484889680758524.5,747721251921.7067,1541765709839.2356,24860286919082.95,576359058806142.6
39.15591596493141,2.1716771269638948e+16,2.7013063849502724e+16,2160337034800764.0,2512102537462904.0,772926692995.5238,1593738531763.3145,25698326156593.54,595788016218731.8
40.03903428423004,2.1953851406930524e+16,2.7322121293927564e+16,2183921249715353.0,2539526946339070.5,798905864769.195,1647306784697.2246,26562091055094.426,615813387238055.4
40.93981496991464,2.2192777301922664e+16,2.7634064367986164e+16,2207689076579784.5,2567164864513751.5,825681368331.0615,1702517073236.4526,27452333094796.316,636452593433643.9
41.85861126931294,2.2433565807734064e+16,2.7948932305574904e+16,2231642191905514.5,2595018241483012.0,853276439777.4186,1759417311456.4712,28369824870623.79,657723545830429.4
42.7957834946992,2.267623370882594e+16,2.826676478318538e+16,2255782265374097.5,2623089018800850.0,881714966957.9341,1818056757447.4226,29315360649045.625,679644657811056.4
43.751699164593184,2.2920797717903304e+16,2.8587601929957868e+16,2280110959528952.5,2651379129720832.0,911021506603.0107,1878486048636.6045,30289756937604.02,702234858311895.6
44.72673314788505,2.3167274472367516e+16,2.891148433749799e+16,2304629929422410.5,2679890498785673.0,941221301836.5077,1940757237905.9172,31293853067258.883,725513605315400.6
