t(s),Total solute volume 1,Total retention volume 1,Total 1 volume 1,Total 2 volume 1,Total 3 volume 1,Total 4 volume 1,Total 5 volume 1,Total 6 volume 1
0.1,1360095892163908.8,3176178273173015.0,653029631800972.5,1163052749208134.2,0.0,0.0,0.0,-4.1755110825714755e-98
0.202,2006591190554360.0,4816563635600814.0,963434703042947.6,1715887970743718.2,21665757478.062363,86049083955.0964,3634652913119.152,126907403505237.0
0.30604000000000003,2475572443865384.5,6112201878357065.0,1188609035249897.0,2116926043839838.5,53993234543.149025,214448404952.43414,9071686211827.383,321754227550626.94
0.41216080000000005,2852471318639981.5,7243651560844700.0,1369571389615139.8,2439222063919553.0,94255923200.26974,374366435731.49115,15846687235471.133,566071479075622.4
0.5204040160000001,3170488363505908.0,8279529554161306.0,1522262514524496.5,2711166701405505.0,141090782623.11057,560389108804.2167,23729551485857.336,851180943348122.1
0.6308120963200001,3446547481925107.5,9253976175913424.0,1654808169264712.8,2947232029032321.5,193654319380.53745,769166122258.1827,32578125562637.48,1171847549687001.2
0.7434283382464002,3690691536324817.0,1.0186776813049874e+16,1772030283969432.2,3156005959720585.5,251365937510.71002,998391417212.5226,42294629043646.64,1524504646636667.8
0.8582969050113283,3909481895521985.5,1.109058087033966e+16,1877079201654210.0,3343099290109513.0,313800239231.17737,1246375378723.3647,52807445760881.93,1906552861675110.5
0.9754628431115548,4107499435184443.0,1.1974053896019534e+16,1972154361175155.5,3512429245564120.5,380632800465.06537,1511829453265.4785,64061971502950.55,2316016420339149.0
1.094972099973786,4288101260523108.0,1.2843447302108318e+16,2058867626318464.2,3666866573547307.5,451609456847.16284,1793744152926.4817,76015434600563.78,2751351053509110.5
1.2168715419732616,4453840220172895.0,1.3703457484155858e+16,2138444709115649.2,3808594280874207.5,526527401810.85297,2091313977846.2075,88633710244667.19,3211326722368785.5
1.3412089728127268,4606714752292244.0,1.4557730784498122e+16,2211845129709729.8,3939321283608228.0,605222813467.8386,2403888271079.139,101889235994899.78,3694951271808480.5
1.4680331522689813,4748326269286719.0,1.5409177350854464e+16,2279837782274596.5,4060416990823205.5,687562359332.8093,2730937476165.134,115759581029162.08,4201418227605271.0
1.597393815314361,4879982880624338.0,1.6260175199185084e+16,2343050735971963.0,4173000000671535.5,773437137821.8057,3072029073448.1885,130226426042435.88,4730069689663540.0
1.729341691620648,5002770341025070.0,1.7112707905196178e+16,2402005299662193.5,4277998770018137.5,862758222052.4886,3426809880630.5786,145274813089886.8,5280369113298212.0
1.863928525453061,5117602117053499.0,1.796846044958942e+16,2457140060629030.5,4376194427679367.5,955453297340.0037,3794992697394.8213,160892579643724.1,5851880818589059.0
2.001207095962122,5225255667289718.0,1.8828887727786612e+16,2508828303960231.5,4468251798535092.0,1051464068965.2448,4176346009473.2744,177069922362275.28,6444254225560838.0
2.1412312378813647,5326399339295827.0,1.969526465417408e+16,2557390926723164.5,4554742403819818.0,1150744227069.4043,4570685905563.056,193799054661065.62,7057211499541569.0
2.284055862638992,5421612710031194.0,2.0568723545042788e+16,2603106204110482.0,4636161854737095.0,1253257823850.0952,4977869631854.07,211073933690979.2,7690537715017299.0
2.4297369798917723,5511402238346821.0,2.145028250574655e+16,2646217304750820.0,4712943237311539.0,1358977962023.9128,5397790382867.904,228890039707602.12,8344072917284872.0
2.578331719489608,5596213497049285.0,2.2340867327247372e+16,2686938163751000.5,4785467572342274.0,1467885722425.4612,5830373042114.608,247244195685795.28,9017705639654472.0
2.7298983538794,5676440864036516.0,2.3241328615180064e+16,2725458135749708.0,4854072102543218.0,1579969278191.7485,6275570663840.485,266134418331688.84,9711367554576918.0
2.884496320956988,5752435295263100.0,2.4152455360791532e+16,2761945726990271.5,4919056939406032.0,1695223156548.682,6733361541029.963,285559793929503.06,1.042502902050505e+16
3.0421862473761276,5824510628567994.0,2.507498581798591e+16,2796551622009100.0,4980690453765740.0,1813647618811.546,7203746742935.908,305520374076496.9,1.1158695345204826e+16
3.2030299723236504,5892948747473699.0,2.6009616314210256e+16,2829411162956478.0,5039213691498506.0,1935248136121.798,7686748032860.12,326017087522978.5,1.1912403628589618e+16
3.3670905717701234,5958003849772101.0,2.6957008457909564e+16,2860646399094044.5,5094844023699291.0,2060034943501.7224,8182406097000.74,347051665186111.3,1.2686220079117514e+16
3.5344323832055258,6019906005482024.0,2.7917795088259316e+16,2890367795094864.0,5147778189183045.0,2188022658568.0696,8690779030115.39,368626576039176.75,1.3480237720771546e+16
3.7051210308696363,6078864145080217.0,2.889258522864786e+16,2918675665797679.0,5198194849797939.0,2319229954077.578,9211941034996.816,390744972054631.1,1.4294574424928314e+16
3.879223451487029,6135068586787083.0,2.98819682439129e+16,2945661389645304.0,5246256751572500.0,2453679275636.8726,9745981301335.186,413410640742778.8,1.5129371214588274e+16
4.0568079205167695,6188693187771288.0,3.0886517355916556e+16,2971408441553276.0,5292112564266004.0,2591396597575.039,10293003036157.385,436627964108248.8,1.598479079858401e+16
4.237944078927105,6239897186120686.0,3.190679263809064e+16,2995993277304577.0,5335898456485263.0,2732411211275.593,10853122623191.508,460401883064955.1,1.686101630128066e+16
4.422702960505647,6288826786707597.0,3.2943343583933544e+16,3019486094979087.0,5377739451798796.0,2876755541286.53,11426468892562.469,484737866522183.1,1.775825015949202e+16
4.61115701971576,6335616533525235.0,3.3996711324864188e+16,3041951493860335.5,5417750602257039.0,3024464985338.597,12013182485449.629,509641884490988.56,1.867671316325979e+16
4.803380160110075,6380390502881258.0,3.5067430557763924e+16,3063449047329507.5,5456038008722858.0,3175577775051.8867,12613415300916.55,535120384669415.9,1.9616643621084908e+16
4.9994477633122765,6423263345420749.0,3.6156031230826616e+16,3084033803177165.0,5492699711932207.0,3330134854635.1514,13227330014207.588,561180272053286.3,2.0578296633374388e+16
5.199436718578522,6464341199888046.0,3.7263040027166456e+16,3103756722332266.5,5527826473875322.0,3488179775308.6987,13855099657498.088,587828891190987.6,2.1561943460447e+16
5.403425452950093,6503722497509175.0,3.838898167839704e+16,3122665065074367.5,5561502465644936.0,3649758603530.399,14496907255471.373,615074010759397.4,2.2567870973550172e+16
5.611493962009095,6541498672650772.0,3.953438013464692e+16,3140802732245842.0,5593805875138895.0,3814919841391.7974,15152945509236.008,642923810186378.9,2.359638117907439e+16
5.823723841249277,6577754792808712.0,4.06997596128745e+16,3158210567731437.0,5624809445779730.0,3983714357789.295,15823416523043.055,671386868085316.9,2.4647790807588456e+16
6.040198318074262,6612570118867793.0,4.1885645541646136e+16,3174926627458628.5,5654580955607044.0,4156195329173.6816,16508531569050.293,700472152300557.4,2.572243096051381e+16
6.261002284435747,6646018604849398.0,4.309256541754055e+16,3190986419343932.0,5683183644624673.0,4332418188847.3657,17208510886040.297,730189011390441.5,2.6820646808257172e+16
6.486222330124463,6678169344947661.0,4.432104958590281e+16,3206423117930605.0,5710676597072750.0,4512440583918.604,17923583508553.945,760547167398261.9,2.794279733446106e+16
6.715946776726952,6709086974485918.0,4.557163195667107e+16,3221267756901898.0,5737115084295910.0,4696322339139.937,18653987123371.656,791556709781243.2,2.9089255121743616e+16
6.950265712261491,6738832030454988.0,4.684485066435671e+16,3235549402188112.0,5762550873048840.0,4884125426958.944,19399967950672.2,823228090384567.6,3.0260406174902572e+16
7.18927102650672,6767461276486229.0,4.814124867989715e+16,3249295307997523.5,5787032503389126.0,5075913943194.474,20161780647540.324,855572119361899.2,3.1456649778071588e+16
7.433056447036854,6795027996434825.0,4.9461374380973464e+16,3262531057776003.0,5810605539727841.0,5271754087825.516,20939688231784.402,888599961956131.8,3.2678398382759044e+16
7.681717575977592,6821582260179008.0,5.080578208644231e+16,3275280691826531.0,5833312798121321.0,5471714150442.349,21733962024277.96,922323136064730.8,3.3926077524075972e+16
7.935351927497144,6847171164759487.0,5.217503255974282e+16,3287566823088677.5,5855194552475726.0,5675864499964.576,22544881608252.246,956753510523188.9,3.520012576278747e+16
8.194058966047088,6871839053575360.0,5.356969348547803e+16,3299410742382237.5,5876288721987021.0,5884277578277.124,23372734804156.926,991903304047979.5,3.6500994651102984e+16
8.45794014536803,6895627716004843.0,5.4990339922809224e+16,3310832514252122.5,5896631041841880.0,6097027897476.933,24217817658866.117,1027785084787351.2,3.78291487203667e+16
8.72709894827539,6918576569522827.0,5.6437554738828376e+16,3321851064409390.5,5916255218951108.0,6314192040458.014,25080434448150.492,1064411770434229.1,3.9185065489022184e+16
9.0016409272409,6940722826132364.0,5.791192902467213e+16,3332484259640834.5,5935193074269427.0,6535848664594.164,25960897691458.184,1101796628860750.0,4.056923548941264e+16
9.281673745785717,6962101644708465.0,5.941406249679647e+16,3342748980954535.5,5953474673068600.0,6762078508305.812,26859528178157.48,1139953279238573.5,4.198216231213988e+16
9.567307220701432,6982746270663515.0,6.094456388553959e+16,3352661190638153.0,5971128444368994.0,6992964400321.362,27776655004488.13,1178895693613103.8,4.342436266685105e+16
9.85865336511546,7002688164180489.0,6.250405131284619e+16,3362235993828203.5,5988181290595016.0,7228591271464.718,28712615620552.797,1218638198903330.5,4.489636645844706e+16
10.155826432417769,7021957118118011.0,6.409315266081336e+16,3371487695120331.0,6004658688398810.0,7469046168819.282,29667755886754.69,1259195479302155.5,4.639871687781851e+16
10.458942961066125,7040581366567694.0,6.5712505932529416e+16,3380429850691574.0,6020584781490437.0,7714418272135.209,30642430139152.363,1300582579054820.5,4.7931970506313496e+16
10.768121820287448,7058587684936939.0,6.736275960651547e+16,3389075316353549.5,6035982466221276.0,7964798912361.56,31637001263261.51,1342814905595556.5,4.94966974332325e+16
11.083484256693197,7076001482335506.0,6.904457298594399e+16,3397436291910555.0,6050873470586132.0,8220281592197.886,32651840775886.305,1385908233024754.5,5.1093481385718984e+16
11.405153941827061,7092846886961933.0,7.075861654368008e+16,3405524362156493.5,6065278427239354.0,8480962008571.698,33687328914607.453,1429878705910898.2,5.2722919870488216e+16
11.733257020663602,7109146825112767.0,7.250557226409275e+16,3413350534810046.0,6079216941057730.0,8746938076958.341,34743854734597.39,1474742843403355.2,5.4385624326897384e+16
12.067922161076874,7124923094373931.0,7.42861339824883e+16,3420925275656362.5,6092707651728260.0,9018309957469.617,35821816212468.66,1520517543643483.2,5.6082220290916344e+16
12.409280604298411,7140196431496739.0,7.610100772293522e+16,3428258541136739.5,6105768291790688.0,9295180082645.412,36921620356896.555,1567220088463230.2,5.781334756960828e+16
12.75746621638438,7154986575410784.0,7.79509120351851e+16,3435359808603311.0,6118415740521494.0,9577653186890.537,38043683325785.3,1614868148361355.8,5.9579660425775544e+16
13.112615540712067,7169312325782227.0,7.983657833132829e+16,3442238104434901.5,6130666074008551.0,9865836337505.496,39188430549775.64,1663479787748776.8,6.138182777246652e+16
13.474867851526309,7183191597485631.0,8.17587512227681e+16,3448902030190925.0,6142534611731441.0,10159838967266.438,40356296861915.32,1713073470455471.2,6.322053337707546e+16
13.844365208556836,7196641471323219.0,8.371818885805533e+16,3455359786963421.5,6154035959932790.0,10459772908514.588,41547726633336.336,1763668065492347.0,6.509647607480172e+16
14.221252512727972,7209678241293595.0,8.571566326207589e+16,3461619198072432.0,6165184052038920.0,10765752428721.027,42763173914803.42,1815282853062305.0,6.701036999126521e+16
14.605677562982532,7222317458684049.0,8.775196067705206e+16,3467687730236285.0,6175992186364381.0,11077894267497.047,44003102584015.34,1867937530815560.0,6.896294477410041e+16
14.997791114242183,7234573973235794.0,8.982788190578552e+16,3473572513336468.0,6186473061313461.0,11396317675024.48,45267986498559.2,1921652220344909.8,7.09549458333813e+16
15.397746936527026,7246461971608781.0,9.19442426575367e+16,3479280358885883.0,6196638808272285.0,11721144451884.51,46558309654430.54,1976447473917348.5,7.298713459074594e+16
15.805701875257567,7257995013352528.0,9.410187389691717e+16,3484817777299762.5,6206501022368547.0,12052498990266.314,47874566350049.24,2032344281438992.0,7.506028873711714e+16
16.221815912762718,7269186064571594.0,9.630162219614258e+16,3490190994059616.5,6216070791259660.0,12390508316541.309,49217261355710.625,2089364077650835.0,7.717520249892869e+16
16.64625223101797,7280047529457690.0,9.854435009097696e+16,3495405964852893.0,6225358722096719.0,12735302135190.053,50586910088426.08,2147528749553330.5,7.933268691279266e+16
17.079177275638333,7290591279845819.0,1.0083093644068237e+17,3500468389763933.5,6234374966798683.0,13087012874073.45,51984038792115.24,2206860644058253.2,8.153357010854938e+16
17.5207608211511,7300828682938568.0,1.0316227679227083e+17,3505383726585369.5,6243129245760161.0,13445775731040.791,53409184723125.35,2267382575866792.0,8.377869760066576e+16
17.97117603757412,7310770627330601.0,1.055392837493435e+17,3510157203313389.5,6251630870105617.0,13811728721870.56,54862896341059.19,2329117835573070.5,8.606893258795797e+16
18.430599558325603,7320427547454485.0,1.0796288734578629e+17,3514793829885056.5,6259888762593667.0,14185012729541.584,56345733504904.16,2392090197992858.0,8.840515626162576e+16
18.899211549492115,7329809446559287.0,1.1043403542458718e+17,3519298409211094.5,6267911477266588.0,14565771554834.307,57858267674461.32,2456323930717328.0,9.078826812160363e+16
19.37719578048196,7338925918323947.0,1.1295369402202555e+17,3523675547553286.5,6275707217932574.0,14954151968263.91,59401082117082.29,2521843802892323.0,9.321918630123802e+16
19.864739696091597,7347786167200102.0,1.1552284775747624e+17,3527929664291718.5,6283283855561360.0,15350303763348.271,60974772119727.83,2588675094223587.5,9.569884790031645e+16
20.36203449001343,7356399027570606.0,1.1814250022906957e+17,3532065001123479.5,6290648944667153.0,15754379811216.32,62579945206368.09,2656843604208916.5,9.82282093264818e+16
20.869275179813698,7364772981804054.0,1.208136744154321e+17,3536085630731303.5,6297809738747611.0,16166536116562.795,64217221360752.46,2726375661598426.5,1.008082466450734e+17
21.38666068340997,7372916177279176.0,1.2353741308374075e+17,3539995464957522.5,6304773204841717.0,16586931874957.717,65887233254580.23,2797298134084165.0,1.0343995593744883e+17
21.91439389707817,7380836442447032.0,1.2631477920430605e+17,3543798262516117.5,6311546037265081.0,17015729531519.871,67590626481110.88,2869638438220833.0,1.061243536678444e+17
22.452681775019734,7388541301994414.0,1.2914685637190243e+17,3547497636273191.5,6318134670576516.0,17453094840964.87,69328059794258.016,2943424549579414.0,1.0886247705884357e+17
23.00173541052013,7396037991166519.0,1.3203474923406264e+17,3551097060123797.5,6324545291825726.0,17899196929039.875,71100205353212.55,3018685013135704.0,1.1165538447552859e+17
23.561770118730532,7403333469303148.0,1.349795839265441e+17,3554599875491131.0,6330783852128494.0,18354208355357.535,72907748972650.64,3095448953896054.0,1.1450415581839718e+17
24.133005521105144,7410434432638410.0,1.3798250851617722e+17,3558009297472127.0,6336856077612026.0,18818305177644.25,74751390378582.45,3173746087762737.5,1.1740989292513573e+17
24.715665631527248,7417347326410469.0,1.4104469345130352e+17,3561328420651768.0,6342767479770292.0,19291667017417.008,76631843469902.6,3253606732641526.0,1.203737199813421e+17
25.309978944157795,7424078356324386.0,1.4416733202000858e+17,3564560224606759.0,6348523365266174.0,19774477127105.438,78549836585709.58,3335061819794356.5,1.2339678394030418e+17
25.91617852304095,7430633499408116.0,1.4735164081635616e+17,3567707579117979.5,6354128845214838.0,20266922458636.633,80506112778461.92,3418142905439868.5,1.264802549519383e+17
26.53450209350177,7437018514299159.0,1.505988602148253e+17,3570773249109325.0,6359588843979962.0,20769193733500.395,82501430093046.4,3502882182605205.0,1.2962532680100498e+17
27.165192135371807,7443238950996085.0,1.539102548531567e+17,3573759899329853.5,6364908107512632.0,21281485514314.35,84536561851832.69,3589312493232004.0,1.3283321735471994e+17
27.808495978079243,7449300160107626.0,1.5728711412381328e+17,3576670098794581.0,6370091211260398.0,21803996277908.78,86612296945799.34,3677467340540374.5,1.3610516901988667e+17
28.464665897640828,7455207301629086.0,1.607307526742564e+17,3579506324998319.5,6375142567672304.0,22336928489952.047,88729440131809.19,3767380901654110.5,1.3944244920968086e+17
29.133959215593645,7460965353274380.0,1.6424251091624333e+17,3582270967916176.5,6380066433323710.0,22880488681138.3,90888812336127.25,3859088040491056.5,1.4284635082022086e+17
29.816638399905518,7466579118389385.0,1.678237555443553e+17,3584966333803091.0,6384866915683352.0,23434887524959.887,93091250964269.62,3952624320922421.5,1.4631819271706752e+17
30.51297116790363,7472053233471617.0,1.7147588006395757e+17,3587594648804225.0,6389547979543500.0,24000339917087.797,95337610217275.38,4048026020204987.5,1.4985932023179875e+17
31.223230591261704,7477392175318527.0,1.7520030532880342e+17,3590158062387130.5,6394113453132667.0,24577065056384.266,97628761414502.23,4145330142690434.5,1.5347110566880362e+17
31.947695203086937,7482600267825848.0,1.7899848008848912e+17,3592658650605900.5,6398567033929109.0,25165286527572.33,99965593323042.7,4244574433815934.5,1.5715494882246173e+17
32.686649107148675,7487681688456057.0,1.8287188154597238e+17,3595098419206885.5,6402912294192160.0,25765232385587.484,102349012493867.27,4345797394380455.0,1.6091227750485718e+17
33.44038208929165,7492640474395466.0,1.868220159253627e+17,3597479306584913.0,6407152686227261.0,26377135241638.734,104779943604797.56,4449038295111280.0,1.6474454808419757e+17
34.20918973107749,7497480528417315.0,1.9085041905020714e+17,3599803186598399.5,6411291547399677.0,27001232351004.99,107259329810420.11,4554337191525393.0,1.686532460341046e+17
34.993373525699035,7502205624467400.0,1.949586569324748e+17,3602071871251180.0,6415332104911002.0,27637765702595.176,109788133099053.64,4661734939090419.0,1.7263988649395312e+17
35.793240996213015,7506819412987421.0,1.991483263724707e+17,3604287113248428.0,6419277480351129.0,28286982110300.38,112367334656883.72,4771273208690128.0,1.7670601484042634e+17
36.60910581613728,7511325425990435.0,2.034210555698924e+17,3606450608433589.5,6423130694038550.0,28949133306167.105,114997935239380.86,4882994502399326.0,1.808532072704849e+17
37.44128793246003,7515727081901962.0,2.077785047462547e+17,3608563998112749.0,6426894669160021.0,29624476035421.65,117680955550128.05,4996942169573540.0,1.8508307139592086e+17
38.29011369110923,7520027690179324.0,2.122223667789085e+17,3610628871272520.0,6430572235720702.0,30313272153375.918,120417436627174.19,5113160423258348.0,1.8939724684969728e+17
39.15591596493141,7524230455721123.0,2.167543678468822e+17,3612646766697215.5,6434166134314872.0,31015788724246.234,123208440237045.33,5231694356924102.0,1.937974059042636e+17
40.03903428423004,7528338483078049.0,2.2137626808877264e+17,3614619174990605.0,6437679019726592.0,31732298121916.42,126055049276539.89,5352589961531305.0,1.9828525410204784e+17
40.93981496991464,7532354780475516.0,2.2608986227292688e+17,3616547540507293.0,6441113464369693.0,32463078132678.547,128958368182439.88,5475894142932300.0,2.0286253089832682e+17
41.85861126931294,7536282263657999.0,2.308969804801423e+17,3618433263198574.0,6444471961575047.0,33208412059984.17,131919523349274.47,5601654739614975.0,2.075310103166867e+17
