t(s),Total solute volume 1,Total retention volume 1,Total 1 volume 1,Total 2 volume 1,Total 3 volume 1,Total 4 volume 1,Total 5 volume 1,Total 6 volume 1
0.1,1405356901042544.8,1.6627283363228424e+16,3932847546865173.5,1.1289078915320706e+16,0.0,0.0,0.0,0.355950925957304
0.202,1950676337048954.5,2.3088034035343384e+16,5458922832568014.0,1.5669994095646922e+16,15414398206.63917,121073889736.71613,1845575795087.1248,6458705996455.676
0.30604000000000003,2396981525001743.0,2.8383616617867852e+16,6707900252806337.0,1.9255282241378956e+16,38267344469.254036,301986172811.6323,5050963782609.06,18061381380916.94
0.41216080000000005,2783463260523212.5,3.2977022619150652e+16,7789462148009875.0,2.2359976129578296e+16,67329097664.06659,532311121537.6826,9380440966899.47,34140999853162.473
0.5204040160000001,3129893226846011.0,3.7101740566308856e+16,8758939681768932.0,2.5142918917137644e+16,101964509360.60117,806940414188.4554,14711490025787.72,54368345606917.12
0.6308120963200001,3447658636705406.0,4.089225604955469e+16,9648199898492616.0,2.769559044908632e+16,141816169175.28723,1123013973071.8687,20973804868625.27,78568430259473.02
0.7434283382464002,3743852839029132.5,4.443235425009407e+16,1.0477093454589774e+16,3.007497457960438e+16,186674357261.57886,1478855341796.887,28123792135831.5,106644055035897.56
0.8582969050113283,4023189484518764.5,4.777773074178065e+16,1.125881143513802e+16,3.231893770174998e+16,236417018927.09595,1873488414180.4287,36134008774826.79,138548206165967.53
0.9754628431115548,4288968453740887.5,5.096739720747138e+16,1.2002588504145454e+16,3.445398876109413e+16,290978999486.80255,2306390960928.5146,44987752510851.35,174266366019649.34
1.094972099973786,4543598354144996.0,5.402984971813761e+16,1.2715165109334764e+16,3.649947676930004e+16,350334765527.943,2777356501185.2886,54675778406068.58,213806015684983.16
1.2168715419732616,4788897275125890.0,5.698662019195017e+16,1.3401629142249426e+16,3.847000690883937e+16,414487945510.1706,3286410782415.674,65194324436349.36,257191642571195.97
1.3412089728127268,5026275681333272.0,5.98544353602081e+16,1.40659277629638e+16,4.03769097881052e+16,483464625268.5543,3833758284197.562,76543857737007.36,304461047159324.0
1.4680331522689813,5256852919273418.0,6.264659136018932e+16,1.4711193442212654e+16,4.222917738064221e+16,557308853758.303,4419746378061.108,88728201795558.27,355662361033657.75
1.597393815314361,5481534362515274.0,6.537386401574922e+16,1.5339959851107258e+16,4.4034082757869736e+16,636079517495.4562,5044840411569.104,101753914368238.56,410852209959642.7
1.729341691620648,5701064240572923.0,6.804513221260744e+16,1.5954309701936188e+16,4.579760447963391e+16,719848104915.8658,5709605891642.775,115629842718814.53,470094493749075.3
1.863928525453061,5916062890328687.0,7.06678172458068e+16,1.655597899566672e+16,4.752472584564746e+16,808697073923.9059,6414695478253.623,130366796570796.58,533459325040963.9
2.001207095962122,6127053676815793.0,7.324820022563024e+16,1.714643235930355e+16,4.921965115755161e+16,902718639302.2145,7160839324851.415,145977300729694.12,601022173265445.4
2.1412312378813647,6334482863126724.0,7.57916563711822e+16,1.7726918651485986e+16,5.088596533914402e+16,1002013859396.5698,7948837803295.271,162475406409052.0,672863259353714.6
2.284055862638992,6538734558210960.0,7.830283125061296e+16,1.829851279363805e+16,5.252675401585979e+16,1106691942339.5283,8779555977780.076,179876547037078.16,749067087946981.6
2.4297369798917723,6740142154469755.0,8.078577558614826e+16,1.886214777787438e+16,5.414469539581434e+16,1216869717089.6016,9653919391682.82,198197427295533.78,829722041585467.8
2.578331719489608,6938997208883702.0,8.324404990993549e+16,1.9418639520675696e+16,5.574213161405446e+16,1332671229912.6187,10572910853367.121,217455937311610.56,914920046926730.1
2.7298983538794,7135556429588903.0,8.568080690126869e+16,1.996870641469504e+16,5.732112485738133e+16,1454227437793.008,11537567993678.596,237671086616410.6,1004756317555513.4
2.884496320956988,7330047238601659.0,8.809885694502262e+16,2.0512984895940772e+16,5.888350205101222e+16,1581675978228.4138,12548981431544.562,258862953932966.34,1099329148125235.4
3.0421862473761276,7522672249546162.0,9.050072089978907e+16,2.1052041974614424e+16,6.043089082919182e+16,1715161000152.369,13608293426225.814,281052649633505.62,1198739742376817.2
3.2030299723236504,7713612907099721.0,9.288867299259472e+16,2.158638542003056e+16,6.196474877167659e+16,1854833044251.1062,14716696922726.63,304262288428711.5,1303092075392178.0
3.3670905717701234,7903032471155194.0,9.52647760037437e+16,2.211647211173919e+16,6.348638737617544e+16,2000848963647.6455,15875434918446.863,328514970500354.94,1412492790291412.0
3.5344323832055258,8091078483727442.0,9.763091036752302e+16,2.264271494311718e+16,6.499699187555098e+16,2153371878050.2476,17085800096127.365,353834769689426.6,1527051123463828.8
3.7051210308696363,8277884823586239.0,9.998879842514203e+16,2.316548857121926e+16,6.649763774313193e+16,2312571155964.9346,18349134680101.96,380246727581920.2,1646878853786622.0
3.879223451487029,8463573429099177.0,1.0234002478060043e+17,2.3685134238121348e+16,6.798930453268047e+16,2478622420634.567,19666830481301.88,407776852545253.0,1772090275252234.0
4.0568079205167695,8648255751787208.0,1.0468605349794493e+17,2.4201963838667824e+16,6.947288755511247e+16,2651707576218.227,21040329103234.355,436452122966926.1,1902802192731048.5
4.237944078927105,8832033989707814.0,1.070282427189002e+17,2.4716263372070588e+16,7.094920778652378e+16,2832014851416.5703,22471122286675.69,466300494077260.94,2039133939382668.5
4.422702960505647,9015002139522108.0,1.0936785715878253e+17,2.5228295886098644e+16,7.241902031966384e+16,3019738858266.2524,23960752374937.723,497350907814481.9,2181207414450244.2
4.61115701971576,9197246898190798.0,1.1170607884580269e+17,2.57383040004567e+16,7.388302160744434e+16,3215080664216.073,25510812884657.906,529633305262310.2,2329147140899639.5
4.803380160110075,9378848439172706.0,1.1404401639708128e+17,2.6246512078961572e+16,7.534185569829885e+16,3418247875917.6406,27122949169609.363,563178641261492.9,2483080342341051.5
4.9994477633122765,9559881083284872.0,1.1638271306870506e+17,2.6753128106931136e+16,7.679611962533627e+16,3629454733426.3066,28798859167123.863,598018900845984.6,2643137038406222.0
5.199436718578522,9740413880660094.0,1.1872315377311798e+17,2.72583453197809e+16,7.824636808131968e+16,3848922213715.5713,30540294218369.24,634187117186682.4,2809450157738560.0
5.403425452950093,9920511117293740.0,1.2106627122226109e+17,2.776234362058521e+16,7.969311748785398e+16,4076878142578.3623,32349059955078.508,671717390759865.9,2982155667670640.0
5.611493962009095,1.0100232757337382e+16,1.2341295132705542e+17,2.82652908178273e+16,8.113684954841474e+16,4313557314134.341,34227017246489.49,710644909493623.6,3161392719421758.0
5.823723841249277,1.0279634830417264e+16,1.257640379614803e+17,2.8767343709301904e+16,8.257801435974824e+16,4559201617282.543,36176083201212.21,751005969673896.8,3347303807520563.0
6.040198318074262,1.0458769771733552e+16,1.2812033718145306e+17,2.926864903387631e+16,8.401703314394968e+16,4814060168538.646,38198232219540.65,792837997416359.5,3540034942089104.0
6.261002284435747,1.06376867214744e+16,1.3048262097405026e+17,2.9769344309394396e+16,8.54543006537091e+16,5078389450788.501,40295497092463.24,836179570540079.6,3739735832389069.5
6.486222330124463,1.0816431789084666e+16,1.3285163060062371e+17,3.026955857222724e+16,8.68901872952258e+16,5352453457573.275,42469970144301.54,881070440710688.5,3946560079773477.0
6.715946776726952,1.0995048287098488e+16,1.3522807958752106e+17,3.0769413031648516e+16,8.832504100662466e+16,5636523842590.298,44723804416455.37,927551555748148.2,4160665378142165.5
6.950265712261491,1.1173576938554274e+16,1.376126564099915e+17,3.1269021650281052e+16,8.97591889241528e+16,5930880074152.783,47059214890211.664,975665082021203.8,4382213720017758.5
7.18927102650672,1.1352056061448632e+16,1.4000602690811742e+17,3.1768491660287212e+16,9.119293886392666e+16,6235809594411.439,49478479747054.21,1025454426882620.9,4611371606230801.0
7.433056447036854,1.153052173321753e+16,1.424088364679948e+17,3.2267924023665988e+16,9.262658064323394e+16,6551607983196.818,51983941665366.97,1076964261131206.2,4848310257097579.0
7.681717575977592,1.1709007937821826e+16,1.4482171199668432e+17,3.2767413843868516e+16,9.406038726209246e+16,6878579126384.1455,54578009152767.75,1130240541512081.0,5093205823110178.0
7.935351927497144,1.1887546697659978e+16,1.4724526371550768e+17,3.3267050734952988e+16,9.549461596292464e+16,7217035388716.509,57263157913587.64,1185330533290064.5,5346239593377695.0
8.194058966047088,1.206616819223987e+16,1.496800867929318e+17,3.3766919153685188e+16,9.692950918386411e+16,7567297791058.702,60041932251304.85,1242282832957177.2,5607598200143131.0
8.45794014536803,1.2244900865292666e+16,1.5212676283546374e+17,3.4267098699294256e+16,9.836529541921738e+16,7929696192087.417,62916946506015.086,1301147391157975.8,5877473817803338.0
8.72709894827539,1.242377152177961e+16,1.5458586125258176e+17,3.476766438494422e+16,9.980218999873312e+16,8304569474441.516,65890886527165.66,1361975535928659.2,6156064355194430.0
9.0016409272409,1.2602805416035058e+16,1.5705794050968912e+17,3.5268686884400216e+16,1.0124039579566854e+17,8692265735365.222,68966511181851.75,1424819996353165.5,6443573640314970.0
9.281673745785717,1.2782026332120382e+16,1.5954354928132646e+17,3.57702327568973e+16,1.026801038722843e+17,9093142481889.002,72146653899070.8,1489734926748679.0,6740211596894759.0
9.567307220701432,1.2961456657320088e+16,1.6204322751537872e+17,3.627236465281768e+16,1.0412149407025149e+17,9507566830604.047,75434224250420.39,1556775931497466.5,7046194412410946.0
9.85865336511546,1.3141117449569604e+16,1.6455750741772918e+17,3.677514150238623e+16,1.0556473555231026e+17,9935915712081.348,78832209567681.64,1626000090633731.8,7361744697549759.0
10.155826432417769,1.33210284994734e+16,1.670869143656918e+17,3.7278618689226616e+16,1.0700998730047338e+17,10378576079971.438,82343676597607.03,1697465986280160.5,7687091637560756.0
10.458942961066125,1.3501208387474688e+16,1.6963196775759293e+17,3.7782848210349896e+16,1.0845739857528152e+17,10835945124814.55,85971773194177.33,1771233730020666.5,8022471136147227.0
10.768121820287448,1.3681674536662804e+16,1.721931818050416e+17,3.8287878823934824e+16,1.0990710934001645e+17,11308430492589.5,89719730048577.75,1847364991286956.2,8368125952599309.0
11.083484256693197,1.3862443261622888e+16,1.7477106627369126e+17,3.879375618603262e+16,1.1135925065312174e+17,11796450508012.545,93590862457006.1,1925923026814677.2,8724305833134284.0
11.405153941827061,1.4043529813652604e+16,1.773661271776712e+17,3.930052297710557e+16,1.128139450314397e+17,12300434402569.93,97588572126191.12,2006972711198296.2,9091267637746256.0
11.733257020663602,1.4224948422623752e+16,1.799788674323037e+17,3.980821901917556e+16,1.142713067864966e+17,12820822547255.379,101716349016403.31,2090580568561076.5,9469275463883054.0
12.067922161076874,1.440671233574429e+16,1.8260978746924262e+17,4.0316881384299304e+16,1.157314423358887e+17,13358066689987.885,105977773221766.72,2176814805351556.8,9858600768046928.0
12.409280604298411,1.4588833853440462e+16,1.8525938581773984e+17,4.082654449498374e+16,1.1719445049153446e+17,13912630197672.889,110376516887587.08,2265745344258763.0,1.0259522486437044e+16
12.75746621638438,1.4771324362528774e+16,1.8792815965537133e+17,4.133724021701715e+16,1.186604227261536e+17,14484988302838.568,114916346164143.03,2357443859210857.0,1.0672327155993952e+16
13.112615540712067,1.495419436682878e+16,1.906166053312261e+17,4.1848997945138936e+16,1.2012944341919154e+17,15075628354768.693,119601123196313.4,2451983811416429.5,1.109730903709943e+16
13.474867851526309,1.5137453515384588e+16,1.9332521886426387e+17,4.236184468201671e+16,1.2160159008353045e+17,15685050075076.69,124434808148596.31,2549440486422438.0,1.1534770238685962e+16
13.844365208556836,1.5321110628456782e+16,1.9605449641929373e+17,4.287580511098467e+16,1.2307693357429251e+17,16313765817670.256,129421461265123.23,2649891032158721.0,1.1985020846318232e+16
14.221252512727972,1.5505173721403552e+16,1.988049347627966e+17,4.339090166287422e+16,1.2455553828068467e+17,16962300833019.389,134565244963965.19,2753414497910201.5,1.2448379054127062e+16
14.605677562982532,1.56896500265508e+16,2.0157703170060682e+17,4.39071545772177e+16,1.2603746230169008e+17,17631193536622.566,139870425964882.5,2860091874154866.5,1.2925171301491754e+16
14.997791114242183,1.5874546013191044e+16,2.043712864992894e+17,4.44245819582145e+16,1.2752275760672667e+17,18320995781609.914,145341377450035.2,2970006133245589.0,1.3415732414679848e+16
15.397746936527026,1.605986740587216e+16,2.0718820029289107e+17,4.494319982591222e+16,1.2901147018256749e+17,19032273135457.26,150982581257462.84,3083242270932539.0,1.3920405753213772e+16
15.805701875257567,1.6245619201083724e+16,2.1002827647659485e+17,4.546302216290318e+16,1.305036401673897e+17,19765605160735.56,156798630106732.84,3199887348681395.5,1.443954336126944e+16
16.221815912762718,1.6431805682399586e+16,2.1289202108867965e+17,4.598406095670063e+16,1.3199930197242038e+17,20521585699763.29,162794229855691.34,3320030536716344.5,1.4973506124887198e+16
16.64625223101797,1.6618430434184448e+16,2.1577994318207533e+17,4.6506326238096584e+16,1.3349848439204798e+17,21300823163084.53,168974201787707.94,3443763157777905.5,1.552266393501762e+16
17.079177275638333,1.6805496354039366e+16,2.1869255518669754e+17,4.702982611599012e+16,1.350012107038021e+17,22103940821789.707,175343484929584.56,3571178731648223.5,1.6087395855466444e+16
17.5207608211511,1.699300566410481e+16,2.2163037326365373e+17,4.755456680901942e+16,1.3650749875915706e+17,22931577103644.574,181907138399877.5,3702373020439086.5,1.6668090295429872e+16
17.97117603757412,1.7180959921227486e+16,2.2459391765233024e+17,4.8080552674013096e+16,1.38017361065206e+17,23784385892848.965,188670343786189.25,3837444074543399.5,1.7265145187661314e+16
18.430599558325603,1.7369360026026736e+16,2.2758371301129686e+17,4.860778623136259e+16,1.3953080485749648e+17,24663036833271.547,195638407550201.88,3976492279209606.0,1.787896817281812e+16
18.899211549492115,1.7558206231043462e+16,2.306002887538945e+17,4.913626818782682e+16,1.4104783216549475e+17,25568215635209.684,202816763460892.22,4119620401854036.0,1.8509976788579316e+16
19.37719578048196,1.7747498148147136e+16,2.336441793793148e+17,4.966599745726069e+16,1.4256843987209056e+17,26500624385745.1,210210975056561.6,4266933640196970.5,1.9158598662177136e+16
19.864739696091597,1.7937234755170406e+16,2.3671592479992608e+17,5.019697117918207e+16,1.4409261976689654e+17,27460981862484.855,217826738133972.53,4418539671084437.0,1.9825271707596036e+16
20.36203449001343,1.812741440167376e+16,2.3981607066554672e+17,5.072918473490419e+16,1.456203585925603e+17,28450023850344.023,225669883261807.16,4574548699826884.0,2.0510444329469444e+16
20.869275179813698,1.831803481398419e+16,2.4294516868532858e+17,5.126263176163591e+16,1.471516380852416e+17,29468503461368.125,233746378318477.0,4735073510189684.0,2.121457563249728e+16
21.38666068340997,1.8509093099811616e+16,2.461037769478692e+17,5.1797304165401576e+16,1.486864350117012e+17,30517191457880.934,242062331056700.8,4900229515319250.0,2.1938135633120812e+16
21.91439389707817,1.8700585752473532e+16,2.492924602401361e+17,5.233319213286295e+16,1.502247212032396e+17,31596876578860.285,250623991694091.66,5070134809514061.0,2.268160547377304e+16
22.452681775019734,1.8892508654441544e+16,2.525117903657573e+17,5.2870284141244584e+16,1.517664635841894e+17,32708365868892.81,259437755524438.22,5244910220406032.0,2.3445477644082436e+16
23.00173541052013,1.9084857080167696e+16,2.55762346463195e+17,5.34085669662432e+16,1.5331162419462186e+17,33852485009380.234,268510165547041.06,5424679361515212.0,2.4230256210090588e+16
23.561770118730532,1.9277625698650864e+16,2.590447153243028e+17,5.394802568920995e+16,1.5486016021096573e+17,35030078652548.027,277847915118726.53,5609568685771259.0,2.5036457045933856e+16
24.133005521105144,1.9470808576059856e+16,2.623594917137356e+17,5.448864370449089e+16,1.5641202396708013e+17,36242010758679.055,287457850632081.56,5799707540276150.0,2.5864608064437892e+16
24.715665631527248,1.9664399178002844e+16,2.6570727868966038e+17,5.503040272577833e+16,1.579671629724892e+17,37489164935708.18,297346974212822.4,5995228221574117.0,2.671524945266733e+16
25.309978944157795,1.9858390370942104e+16,2.690886879262005e+17,5.557328279006958e+16,1.5952551992374704e+17,38772444779977.54,307522446426446.4,6196266030744128.0,2.758893391949132e+16
25.91617852304095,2.005277442317564e+16,2.7250434003802442e+17,5.611726226041476e+16,1.6108703271232573e+17,40092774218597.18,317991588997933.8,6402959329058516.0,2.8486226949833156e+16
26.53450209350177,2.024754300629114e+16,2.7595486490747533e+17,5.666231782998496e+16,1.626516344362971e+17,41451097854973.58,328761887557491.9,6615449595459633.0,2.9407707054030132e+16
27.165192135371807,2.0442687196962904e+16,2.79440902014624e+17,5.720842452710157e+16,1.642192534147693e+17,42848381317234.84,339840994410131.7,6833881485320919.0,3.0353966014741856e+16
27.808495978079243,2.063819747790455e+16,2.8296310077061274e+17,5.775555571790225e+16,1.6578981319554365e+17,44285611606952.64,351236731307666.6,7058402888507182.0,3.132560914784044e+16
28.464665897640828,2.083406373771588e+16,2.8652212085465085e+17,5.830368310591218e+16,1.6736323255388176e+17,45763797447117.695,362957092214601.06,7289164986619651.0,3.232325558085979e+16
29.133959215593645,2.1030275271140916e+16,2.901186325550046e+17,5.885277673276695e+16,1.6893942549458413e+17,47283969632186.016,375010246091329.75,7526322312121793.0,3.334753852866714e+16
29.816638399905518,2.122682078078505e+16,2.937533171143207e+17,5.940280498301703e+16,1.7051830126578214e+17,48847181382525.98,387404539713947.4,7770032810658967.0,3.439910555298101e+16
30.51297116790363,2.1423688378794896e+16,2.974268670796149e+17,5.995373458882981e+16,1.720997643724381e+17,50454508700053.17,400148500504124.75,8020457903396894.0,3.5478618826950876e+16
31.223230591261704,2.1620865586533e+16,3.011399866572428e+17,6.050553062907858e+16,1.7368371457373046e+17,52107050720065.266,413250839327928.0,8277762546135328.0,3.658675543171736e+16
31.947695203086937,2.181833933339197e+16,3.048933920731706e+17,6.105815652602451e+16,1.7527004687352854e+17,53805930061086.14,426720453278715.0,8542115288098443.0,3.7724207668787496e+16
32.686649107148675,2.2016095957883064e+16,3.086878119388541e+17,6.161157404836264e+16,1.768586515291372e+17,55552293179998.78,440566428504402.5,8813688336153270.0,3.8891683345633624e+16
33.44038208929165,2.2214121210953428e+16,3.125239876230289e+17,6.216574332050531e+16,1.7844941407794947e+17,57347310732948.61,454798043083028.75,9092657623081304.0,4.0089906036723544e+16
34.20918973107749,2.24124002574814e+16,3.164026736297109e+17,6.272062282676689e+16,1.8004221534945907e+17,59192177931937.516,469424769863301.4,9379202871380036.0,4.1319615376828504e+16
34.993373525699035,2.2610917674211348e+16,3.2032463798270234e+17,6.3276169405584376e+16,1.8163693144866806e+17,61088114891377.055,484456279222959.75,9673507650482200.0,4.2581567409641976e+16
35.793240996213015,2.2809657448620584e+16,3.242906626168925e+17,6.3832338246346456e+16,1.832334337469846e+17,63036366975175.89,499902441832657.8,9975759437968672.0,4.38765349281641e+16
36.60910581613728,2.300860298308922e+16,3.283015437766447e+17,6.438908290106257e+16,1.8483158891572237e+17,65038205156721.59,515773331527530.9,1.0286149692608362e+16,4.520530774747781e+16
37.44128793246003,2.3207737100672656e+16,3.323580924215503e+17,6.4946355300517704e+16,1.8643125897247523e+17,67094926383015.31,532079228213965.9,1.0604873928630024e+16,4.656869296465754e+16
