t(s),Total solute volume 1,Total retention volume 1,Total 1 volume 1,Total 2 volume 1,Total 3 volume 1,Total 4 volume 1,Total 5 volume 1,Total 6 volume 1
0.1,858476762157242.6,970941579421749.6,55300119698977.766,57164697565528.79,0.0,0.0,0.0,0.0
0.202,1293471264751852.5,1463030473737253.5,83320969205651.52,86130338350819.0,249158451.90293956,428660569.50464267,5268297927.510761,101955311982.28812
0.30604000000000003,1624699452605276.8,1837817107201581.2,104657549622888.44,108186333508688.66,632168306.9428115,1087603804.8950264,13366820126.176685,258684872491.6193
0.41216080000000005,1904829357508302.8,2154857964278412.5,122702554428260.56,126839769558595.11,1122876124.240614,1931834486.079834,23742559954.24845,459485512690.91077
0.5204040160000001,2153571627246637.5,2436440859438262.0,138725675750689.95,143403149400530.4,1709671336.1319056,2941377463.568727,36150018329.62256,699605973275.1449
0.6308120963200001,2380745413650026.0,2693668604382744.5,153359429573462.25,158530315835781.25,2386322018.976598,4105511189.514587,50457425243.14747,976496065025.5981
0.7434283382464002,2592057333026632.5,2932993866349686.0,166971416488275.56,172601264005243.2,3149261128.617081,5418098865.820839,66589358253.580414,1288696111285.7793
0.8582969050113283,2791162929341268.0,3158550210603172.5,179797114062108.44,185859411175323.97,3996471614.2505975,6875670357.218714,84503168750.43884,1635380713751.9512
0.9754628431115548,2980567060164529.0,3373170203628445.0,191997876602801.4,198471552107077.88,4926937124.072451,8476477167.389525,104177367407.15353,2016133972339.436
1.094972099973786,3162073270757668.0,3578893525763090.0,203689882291767.9,210557782212035.1,5940337806.173822,10219969085.112148,125605192054.70306,2430825002666.9717
1.2168715419732616,3337030484807903.5,3777245900507264.0,214960024152542.3,222207924323462.34,7036867512.424213,12106479696.123112,148790742559.66336,2879533133583.859
1.3412089728127268,3506478497807084.0,3969403597763690.5,225875282233732.97,233491216885284.9,8217117166.450291,14137025725.872637,173746514707.50613,3362500179987.148
1.4680331522689813,3671238735576163.5,4156296048462792.0,236488569960956.03,244462357428008.9,9481996885.426706,16313173055.6198,200491753514.69028,3880098574205.946
1.597393815314361,3831973482019172.0,4338672808128138.5,246842549384998.3,255165446457262.62,10832682120.522135,18636944061.018707,229051314402.36505,4432809326114.564
1.729341691620648,3989225991949988.5,4517148908110123.0,256972215112126.84,265636658507604.1,12270575378.975033,21110751757.860977,259454853835.26718,5021206359430.993
1.863928525453061,4143448516064988.5,4692236539941600.0,266906699576423.84,275906108284008.22,13797278443.881826,23737352008.439266,291736241929.1627,5645945143797.981
2.001207095962122,4295022405255993.5,4864367784549419.0,276670568090458.47,285999189378323.94,15414571896.18066,26519808290.8597,325933129459.3503,6307754315002.6455
2.1412312378813647,4444272864935413.0,5033911292863832.0,286284769268164.7,295937556737968.2,17124399857.692068,29461465450.8472,362086625265.7188,7007429431708.907
2.284055862638992,4591479999709640.0,5201184772448860.0,295767346484702.9,305739862114392.2,18928858558.192055,32565930032.557556,400241054515.07574,7745828297024.78
2.4297369798917723,4736887226227027.0,5366464498764177.0,305133979803184.8,315422314262184.94,20830187763.9335,35837055532.33694,440443777467.42206,8523867451004.674
2.578331719489608,4880707779521963.0,5529992672666523.0,314398405093081.25,324999112194204.1,22830764388.55046,39278931458.92569,482745066612.9201,9342521094806.494
2.7298983538794,5023129821833533.0,5691983190252977.0,323572743114235.4,334482785340689.3,24933097801.963673,42895875056.61391,527197958715.50397,10202813032931.422
2.884496320956988,5164320486667704.0,5852626224577009.0,332667760034358.25,343884462882292.8,27139826471.873524,46692425836.74723,573858256783.8389,11105824483562.025
3.0421862473761276,5304429137377265.0,6012091903934570.0,341693077326814.0,353214090703755.2,29453715683.600132,50673341449.746544,622784433322.1158,12052687036289.693
3.2030299723236504,5443590004120151.0,6170533295212973.0,350657341636611.3,362480606992755.4,31877656130.182674,54843595311.29122,674037612636.5646,13044583599378.383
3.3670905717701234,5581924343299252.0,6328088845930003.0,359568363884092.1,371692086033812.3,34414663223.49439,59208375417.688095,727681556276.5702,14082748117937.305
3.5344323832055258,5719542219978361.0,6484884400118315.0,368433234082029.8,380855856896730.25,37067877008.243614,63773084198.49193,783782661223.8074,15168465538775.145
3.7051210308696363,5856543990517592.0,6641034875377824.0,377258416841907.8,389978602163091.3,39840562587.31204,68543339248.87779,842409968893.7115,16303071984501.088
3.879223451487029,5993021544667002.0,6796645668064452.0,386049831385316.06,399066440635439.2,42736110986.551704,73524974818.10297,903635183429.4675,17487955107459.32
4.0568079205167695,6129059353022879.0,6951813838508877.0,394812919017480.2,408124997085844.1,45758040402.19552,78724043956.26497,967532698086.5967,18724554600236.16
4.237944078927105,6264735355761126.0,7106629116864878.0,403552700376409.06,417159461435338.5,48909997785.65289,84146821241.53629,1034179628751.752,20014362844230.008
4.422702960505647,6400121720996557.0,7261174761634353.0,412273824283796.0,426174639251947.2,52195760729.511345,89799806025.6498,1103655853830.9214,21358925681482.816
4.61115701971576,6535285495331267.0,7415528296375655.0,420980609651101.75,435174995069736.06,55619239625.7138,95689726147.67355,1176044059893.0525,22759843297889.805
4.803380160110075,6670289164688573.0,7569762145051979.0,429677081606546.9,444164689733919.2,59184480072.53522,101823542075.87378,1251429792574.9878,24218771208225.062
4.9994477633122765,6805191140051433.0,7723944182546187.0,438367002784717.2,453147612745455.3,62895665511.533264,108208451445.27345,1329901512349.5708,25737421335277.465
5.199436718578522,6940046179995260.0,7878138213782589.0,447053900544663.7,462127410396891.1,66757120079.30786,114851893964.81909,1411550654836.4224,27317563176892.797
5.403425452950093,7074905759745586.0,8032404392455950.0,455741090743337.06,471107510347359.75,70773311661.89105,121761556673.20956,1496471695397.794,28961025055938.37
5.611493962009095,7209818394772714.0,8186799588425120.0,464431698580436.5,480091143170272.3,74948855142.03616,128945379526.63948,1584762217813.79,30669695449206.824
5.823723841249277,7344829925556251.0,8341377711269697.0,473128676941963.3,489081361315362.2,79288515831.6863,136411561305.18976,1676522986873.8933,32445524392103.477
6.040198318074262,7479983769040465.0,8496189996251621.0,481834822598108.06,498081055852734.1,83797213083.5961,144168565827.48633,1771858024757.146,34290524956647.438
6.261002284435747,7615321141398750.0,8651285257902668.0,490552790552974.94,507092971306411.8,88480024077.46693,152225128465.66156,1870874691103.2468,36206774800892.125
6.486222330124463,7750881255988185.0,8806710115625944.0,499285106796128.06,516119718835846.2,93342187777.16165,160590262954.70248,1973683766701.6392,38196417788356.914
6.715946776726952,7886701499771061.0,8962509195016461.0,508034179667066.25,525163787983558.94,98389109056.55026,169273268491.98642,2080399540747.2214,40261665676471.06
6.950265712261491,8022817590980997.0,9118725308041534.0,516802310011522.06,534227557173896.06,103626362992.41779,178283737124.29276,2191139901629.233,42404799873384.78
7.18927102650672,8159263720398256.0,9275399614755332.0,525591700281942.06,543313303120345.75,109059699323.58768,187631561420.8575,2306026431235.641,44628173262805.6
7.433056447036854,8296072678255001.0,9432571768832332.0,534404462712283.8,552423209275973.0,114695047076.06644,197326942432.12354,2425184502768.951,46934212096776.945
7.681717575977592,8433275968503301.0,9590280048880326.0,543242626678760.3,561559373442344.8,120538519354.56981,207380397934.82135,2548743382081.0015,49325417956549.234
7.935351927497144,8570903911937018.0,9748561477219596.0,552108145342606.2,570723814636282.5,126596418301.28613,217802770964.84323,2676836332545.067,51804369781892.125
8.194058966047088,8708985739455771.0,9907451927585464.0,561002901657819.6,579918479300157.0,132875240223.16153,228605238640.1451,2809600723492.2695,54373725969376.14
8.45794014536803,8847549676586327.0,1.0066986223016856e+16,569928713815736.6,589145246930050.6,139381680889.3905,239799321276.55258,2947178142248.1187,57036226540310.36
8.72709894827539,8986623020230748.0,1.0227198225027694e+16,578887340188884.1,598405935186296.5,146122641001.1277,251396891799.96527,3089714509811.8696,59794695379164.375
9.0016409272409,9126232208485942.0,1.0388120915018058e+16,587880483828515.5,607702304542663.9,153105231835.77386,263410185459.0001,3237360200228.328,62652042543435.02
9.281673745785717,9266402884272882.0,1.0549786468760256e+16,596909796563384.8,617036062523338.0,160336781068.45676,275851809842.58826,3390270163707.7886,65611266646032.14
9.567307220701432,9407159953422072.0,1.0712226324693124e+16,605976882741418.1,626408867570735.5,167824838773.60187,288734755207.51776,3548604053555.297,68675457311368.98
9.85865336511546,9548527637783626.0,1.0875471246668676e+16,615083302650872.0,635822332582024.8,175577183609.73145,302072405121.3178,3712526356975.6616,71847797706441.02
10.155826432417769,9690529523861914.0,1.1039551381717508e+16,624230575653223.6,645278028147655.1,183601829190.8543,315878547426.2851,3882206529825.393,75131567148269.62
10.458942961066125,9833188607417052.0,1.120449631333528e+16,633420183056223.6,654777485521271.6,191907030648.0249,330167385530.8061,4057819135387.3574,78530143789176.23
10.768121820287448,9976527334422954.0,1.1370335110732458e+16,642653570752303.1,664322199347089.1,200501291384.84445,344953550034.4817,4239543987247.9355,82047007381431.03
11.083484256693197,1.0120567638729504e+16,1.1537096374441834e+16,651932151644613.9,673913630167727.9,209393370030.8797,360252110693.8848,4427566296360.882,85685742122903.08
11.405153941827061,1.0265330976735832e+16,1.170480827863361e+16,661257307880577.6,683553206733069.5,218592287597.1382,376078588736.1004,4622076822385.521,89450039585407.36
11.733257020663602,1.041083835934904e+16,1.1873498610449222e+16,670630392910552.0,693242328128343.4,228107334837.93213,392448969527.4869,4823272029390.764,93343701727519.92
12.067922161076874,1.055711038147284e+16,1.2043194806633114e+16,680052733387384.2,702982365737729.5,237948079823.61188,409379715605.3954,5031354246020.22,97370643993698.55
12.409280604298411,1.0704167249244568e+16,1.2213923987711174e+16,689525630920932.0,712774665058026.6,248124375728.82764,426887780080.85004,5246531830216.513,101534898501612.45
12.75746621638438,1.0852028805216068e+16,1.2385712989939126e+16,699050363700124.4,722620547375416.5,258646368841.1249,444990620420.4798,5469019338606.863,105840617319651.8
13.112615540712067,1.100071455165402e+16,1.255858839522162e+16,708628187993893.1,732521311316993.8,269524506794.83276,463706212616.2401,5699037700654.857,110292075836641.94
13.474867851526309,1.1150243672117276e+16,1.2732576559182262e+16,718260339541103.8,742478234287565.8,280769547035.3643,483053065751.73413,5936814397686.591,114893676225864.72
13.844365208556836,1.130063505145288e+16,1.2907703637547604e+16,727948034838642.4,752492573801171.0,292392565519.1781,503050236974.18085,6182583646902.518,119649951005528.84
14.221252512727972,1.1451907294338872e+16,1.3083995610991466e+16,737692472335863.2,762565568715804.2,304404965654.81006,523717346881.34143,6436586590489.35,124565566697906.84
14.605677562982532,1.1604078742488792e+16,1.3261478308572876e+16,747494833542857.8,772698440379044.0,316818487490.5153,545074595332.9473,6699071489949.378,129645327589404.23
14.997791114242183,1.1757167490622624e+16,1.344017742988787e+16,757356284059238.0,782892393691526.5,329645217154.2004,567142777696.4229,6970293925767.51,134894179593891.6
15.397746936527026,1.19111914012979e+16,1.3620118566044264e+16,767277974529514.8,793148618094543.4,342897596551.48,589943301536.925,7250517002539.209,140317214221676.38
15.805701875257567,1.2066168118687124e+16,1.3801327219558476e+16,777261041530583.1,803468288487447.6,356588433327.79266,613498203761.9554,7540011559685.558,145919672656555.22
16.221815912762718,1.222211508137843e+16,1.3983828823265408e+16,787306608396298.8,813852566080028.8,370730911100.6922,637830168231.0604,7839056387884.252,151706949943440.1
16.64625223101797,1.2379049534270142e+16,1.4167648758322646e+16,797415785983688.9,824302599184562.1,385338599968.5125,662962543841.2893,8147938451348.381,157684599289103.9
17.079177275638333,1.2536988539623194e+16,1.4352812371384966e+16,807589673384906.8,834819523951766.9,400425467301.7801,688919363099.4241,8466953116087.419,163858336478644.38
17.5207608211511,1.269594898732929e+16,1.4539344991017114e+16,817829358588677.0,845404465054555.8,416005888823.82874,715725361192.0619,8796404384287.594,170234044410318.84
17.97117603757412,1.2855947604448128e+16,1.4727271943407834e+16,828135919094639.8,856058536323091.6,432094659987.2522,743405995564.9956,9136605134951.541,176817777751450.62
18.430599558325603,1.301700096406112e+16,1.4916618567441908e+16,838510422483686.2,866782841334349.5,448707007652.8904,771987466023.4396,9487877370939.723,183615767718162.66
18.899211549492115,1.3179125493485464e+16,1.5107410229183354e+16,848953926947079.6,877578473959091.2,465858602078.2024,801496735364.9006,9850552472557.83,190634426981729.25
19.37719578048196,1.3342337481888424e+16,1.5299672335816236e+16,859467481776939.8,888446518868865.8,483565569221.9748,831961550556.656,10224971457838.543,197880354704397.12
19.864739696091597,1.3506653087336958e+16,1.5493430349087848e+16,870052127820355.5,899388052005459.0,501844503372.4232,863410464470.0067,10611485249665.723,205360341707555.4
20.36203449001343,1.3672088343315228e+16,1.5688709798292654e+16,880708897899216.8,910404141014859.8,520712480105.8233,895872858183.61,11010454949893.035,213081375775185.4
20.869275179813698,1.3838659164738532e+16,1.5885536292833504e+16,891438817197621.4,921495845647738.9,540187069582.90924,929378963868.3704,11422252120610.35,221050647095535.4
21.38666068340997,1.40063813534891e+16,1.6083935534390772e+16,902242903618457.1,932664218128055.4,560286350190.332,963959888266.413,11847259072711.838,229275553844016.22
21.91439389707817,1.4175270603495692e+16,1.6283933328729188e+16,913122168110626.1,943910303491314.0,581028922534.5293,999647636776.8684,12285869161921.635,237763707910319.53
22.452681775019734,1.4345342505376198e+16,1.648555559716517e+16,924077614968104.1,955235139893691.9,602433923795.3702,1036475138161.1343,12738487092433.584,246522940772766.1
23.00173541052013,1.4516612550658414e+16,1.6688828387716906e+16,935110242101807.9,966639758893102.8,624521042446.9714,1074476269880.321,13205529228320.78,255561309522916.38
23.561770118730532,1.4689096135590982e+16,1.6893777885952792e+16,946221041285114.5,978125185702968.9,647310533353.0054,1113685884077.6067,13687423912870.88,264887103043431.06
24.133005521105144,1.4862808564553316e+16,1.7100430425551714e+16,957410998373493.5,989692439419266.4,670823233243.7855,1154139834217.952,14184611796001.215,274508848342163.53
24.715665631527248,1.503776505306882e+16,1.7308812498582888e+16,968681093498612.6,1001342533221179.5,695080576582.3086,1195875002397.5884,14697546169905.502,284435317045413.94
25.309978944157795,1.5213980730421678e+16,1.7518950765509374e+16,980032301236912.8,1013076474545351.8,720104611826.1844,1238929327335.3157,15226693313079.572,294675532053191.2
25.91617852304095,1.5391470641873758e+16,1.7730872064912936e+16,991465590752402.1,1024895265233501.0,745918018092.2649,1283341833057.1838,15772532842870.438,305238774359250.25
26.53450209350177,1.5570249750472432e+16,1.7944603422934088e+16,1002981925913107.0,1036799901652799.1,772544122230.3647,1329152658285.8118,16335558076683.783,316134590038535.44
27.165192135371807,1.5750332938435396e+16,1.8160172062413068e+16,1014582265380290.9,1048791374788080.8,800006916312.1486,1376403086544.59,16916276401979.129,327372797404493.4
27.808495978079243,1.5931735008092908e+16,1.837760541171288e+16,1026267562669141.4,1060870670304605.6,828331075540.6927,1425135576986.478,17515209655169.596,338963494338527.75
28.464665897640828,1.611447068236202e+16,1.8596931113196636e+16,1038038766179314.5,1073038768579609.0,857541976585.6954,1475393795955.882,18132894509531.734,350917065793612.8
29.133959215593645,1.6298554604719946e+16,1.8818177031325388e+16,1049896819193232.5,1085296644700542.6,887665716348.5182,1527222649290.8706,18769882872213.72,363244191473781.1
29.816638399905518,1.6484001338637918e+16,1.9041371260332668e+16,1061842659839592.0,1097645268427373.2,918729131160.394,1580668315371.5098,19426742290414.734,375955853690847.0
30.51297116790363,1.6670825366428392e+16,1.926654213142476e+16,1073877221019136.6,1110085604115820.8,950759816416.1144,1635778278918.3386,20104056366782.25,389063345399311.56
31.223230591261704,1.685904108745184e+16,1.949371821944499e+16,1086001430289106.9,1122618610597945.5,983786146644.3059,1692601365542.9563,20802425184053.84,402578278409898.3
31.947695203086937,1.7048662815619744e+16,1.9722928348931684e+16,1098216209702434.5,1135245241015893.2,1017837296014.0354,1751187777050.249,21522465738936.6,416512591781612.2
32.686649107148675,1.7239704776123586e+16,1.995420159948816e+16,1110522475596992.6,1147966442604049.5,1052943259275.8989,1811589127489.22,22264812385187.03,430878560391568.25
33.44038208929165,1.7432181101309896e+16,2.0187567310374216e+16,1122921138329909.4,1160783156414397.8,1089134873134.0188,1873858479946.2793,23030117285815.53,445688803681130.44
34.20918973107749,1.762610582561355e+16,2.0423055084216276e+16,1135413101951175.2,1173696316979118.8,1126443838043.289,1938050384071.2595,23819050874296.96,460956294576022.9
34.993373525699035,1.7821492879452868e+16,2.066069478972394e+16,1147999263810391.0,1186706851904069.8,1164902740424.09,2004220914322.9321,24632302324623.453,476694368577267.9
35.793240996213015,1.801835608198119e+16,2.0900516563290064e+16,1160680514089850.5,1199815681386149.8,1204545075284.1519,2072427708916.1995,25470580029981.0,492916733018686.25
36.60910581613728,1.821670913258336e+16,2.114255080934125e+16,1173457735256763.2,1213023717647011.2,1245405269234.5735,2142730009448.7983,26334612089777.89,509637476485687.8
37.44128793246003,1.8416565600995824e+16,2.1386828199296396e+16,1186331801426838.2,1226331864275224.2,1287518703884.1216,2215188701180.1323,27225146804687.695,526871078388817.9
38.29011369110923,1.8617938915925044e+16,2.1633379668981616e+16,1199303577631117.8,1239741015468367.5,1330921739592.6445,2289866353929.3667,28142953179303.344,544632418684250.25
39.15591596493141,1.8820842352031864e+16,2.18822364143428e+16,1212373918977543.0,1253252055166327.8,1375651739561.1272,2366827263554.299,29088821431928.797,562936787732015.0
40.03903428423004,1.902528901514481e+16,2.2133429885290404e+16,1225543669698463.2,1266865856066702.5,1421747094232.2017,2446137493965.806,30063563510954.22,581799896281279.9
40.93981496991464,1.923129182556389e+16,2.238699177750515e+16,1238813662075108.0,1280583278513000.8,1469247245971.1833,2527864919626.587,31068013617183.027,601237885570394.9
41.85861126931294,1.9438863499312452e+16,2.2642954022030324e+16,1252184715229915.5,1294405169246240.8,1518192713993.4812,2612079268475.5073,32103028731389.555,621267337527783.2
42.7957834946992,1.964801652719745e+16,2.2901348772474756e+16,1265657633777638.5,1308332360010593.8,1568625119500.1975,2698852165211.881,33169489146301.44,641905285058033.1
43.751699164593184,1.9858763151537732e+16,2.316220838965147e+16,1279233206326295.2,1322365666003779.0,1620587210979.2131,2788257174866.2983,34268299002104.496,663169222395722.1
44.72673314788505,2.00711153404262e+16,2.342556542347698e+16,1292912203819196.0,1336505884163194.0,1674122889624.646,2880369846576.9966,35400386824473.84,685077115507732.9
