t(s),Total solute volume 1,Total retention volume 1,Total 1 volume 1,Total 2 volume 1,Total 3 volume 1,Total 4 volume 1,Total 5 volume 1,Total 6 volume 1
0.1,1383945849202658.0,3981468685541325.0,887646190648165.1,1709876645690502.0,0.0,0.0,0.0,-3.740371093031155e-123
0.202,2069608561429411.0,5958413176392933.0,1327422121432039.0,2557020211852205.5,682376354.2116506,3056327838.3348494,149435709073.0426,4209107266011.1797
0.30604000000000003,2594580340872554.0,7475761791268815.0,1664132743409585.0,3205627813969507.0,1728036909.3929675,7740212674.502109,379859590266.6838,11031565177318.059
0.41216080000000005,3038576834204213.5,8762252199014741.0,1948906779679384.8,3754189617868904.5,3066060668.3899503,13733785713.844538,675028515036.9274,19887138900824.492
0.5204040160000001,3432487257233930.0,9906493542273668.0,2201556208321425.0,4240869595315100.5,4664503406.230855,20893929606.92769,1027800703350.856,30527122266856.82
0.6308120963200001,3791823884750021.0,1.0952980258219036e+16,2432030417849438.0,4684833320115304.0,6506027304.370499,29142971635.798298,1434318345401.575,42822668159927.914
0.7434283382464002,4125631318995548.0,1.1927657028485836e+16,2646130508243191.0,5097255486983064.0,8580541118.947967,38435704354.71997,1892339412776.9897,56700358605776.88
0.8582969050113283,4439712873559874.5,1.2847175533165712e+16,2847578655509539.5,5485306145553670.0,10882165126.011831,48745787506.413895,2400558040467.71,72117672549538.31
0.9754628431115548,4738048429866031.0,1.372296169537018e+16,3038927508009114.5,5853902477057963.0,13407732589.247305,60059034486.10427,2958270480824.4214,89051543189173.64
1.094972099973786,5023504475568171.0,1.4563252056033782e+16,3222015596633859.0,6206586053961376.0,16155958376.375364,72369687796.39952,3565190194497.188,107492214029708.72
1.2168715419732616,5298224744285520.0,1.5374213862899508e+16,3398217886474860.5,6546005479216180.0,19126938419.786777,85678176704.60991,4221336673951.448,127439611133863.62
1.3412089728127268,5563860964555029.0,1.6160606547823572e+16,3568593776446315.0,6874201478835325.0,22321829616.979393,99989683261.3315,4926964407456.67,148901052066571.34
1.4680331522689813,5821716968691831.0,1.69261947434843e+16,3733979528987101.5,7192784949773901.0,25742635462.26532,115313181982.06084,5682515336137.931,171889724877873.75
1.597393815314361,6072842822488118.0,1.7674018001775496e+16,3895048643724586.5,7503053258068876.0,29392057216.55744,131660773127.93338,6488585861263.297,196423638802300.78
1.729341691620648,6318098623202859.0,1.840657356397801e+16,4052352776742409.5,7806069061859467.0,33273387586.3383,149047206418.53973,7345903283324.142,222524878295941.34
1.863928525453061,6558199099601186.0,1.9125944109821428e+16,4206350346512218.5,8102715415155942.0,37390433026.96186,167489532974.8222,8255308589228.525,250219059996845.53
2.001207095962122,6793745623162940.0,1.9833889434583276e+16,4357427065499929.0,8393735317988371.0,41747455937.82947,187006846372.2975,9217743649367.83,279534929980356.62
2.1412312378813647,7025249710876955.0,2.053191375132577e+16,4505911014576682.0,8679760754328877.0,46349131058.80519,207620087311.80606,10234241562063.715,310504060762827.44
2.284055862638992,7253150625134088.0,2.1221316086102452e+16,4652083931379588.0,8961334436923808.0,51200512245.2682,229351894783.46472,11305919297654.297,343160620960272.6
2.4297369798917723,7477828783769812.0,2.1903228675205324e+16,4796189811352616.0,9238926375526384.0,56307006985.833115,252226491915.3648,12433972057820.377,377541198999776.5
2.578331719489608,7699616135733934.0,2.257864667514356e+16,4938441562576852.0,9512946696133136.0,61674356802.9673,276269598175.77185,13619668937946.293,413684667806729.8
2.7298983538794,7918804299595718.0,2.324845146915152e+16,5079026225710281.0,9783755696182540.0,67308622197.67584,301508361931.2501,14864349595838.81,451632081082990.75
2.884496320956988,8135651026089520.0,2.3913429177672908e+16,5218109118987215.0,1.0051671829090286e+16,73216171157.0512,327971308965.2399,16169421709419.09,491426594316356.75
3.0421862473761276,8350385386956925.0,2.4574285524808976e+16,5355837166279479.0,1.0316978115111654e+16,79403670494.0194,355688303683.9092,17536359061535.48,533113405425176.6
3.2030299723236504,8563211983134061.0,2.5231657899833492e+16,5492341596177363.0,1.0579927340596084e+16,85878079467.30684,384690520536.61523,18966700129647.582,576739711196342.0
3.3670905717701234,8774314388940623.0,2.5886125234044428e+16,5627740151051236.0,1.0840746313314542e+16,92646645259.21053,415010423758.6998,20462047086839.098,622354676582178.0
3.5344323832055258,8983857994610011.0,2.653821615764172e+16,5762138910216334.0,1.1099639374431742e+16,99716899984.07669,446681753971.3153,22024065141735.184,670009414587904.5
3.7051210308696363,9191992370300214.0,2.7188415789062176e+16,5895633806181017.0,1.1356791319263602e+16,107096658971.46765,479739520491.4435,23654482160645.14,719756974977218.9
3.879223451487029,9398853246047136.0,2.7837171427082828e+16,6028311894565149.0,1.1612369843527698e+16,114794020121.6636,514219998445.5945,25355088527136.938,771652340397141.2
4.0568079205167695,9604564180877722.0,2.8484897355180708e+16,6160252424649206.0,1.1866527605548068e+16,122817364172.09584,550160729964.1907,27127737203319.812,825752428808272.2
4.237944078927105,9809237978379566.0,2.9131978922062532e+16,6291527747303758.0,1.2119403975204596e+16,131175355744.91013,587600528875.1603,28974343964109.758,882116101325882.6
4.422702960505647,1.0012977893965074e+16,2.9778776027760876e+16,6422204089314178.0,1.2371126525518848e+16,139876945070.45618,626579488425.4644,30896887781198.035,940804174748067.9
4.61115701971576,1.0215878669842566e+16,3.04256261182925e+16,6552342217198724.0,1.2621812311370514e+16,148931370300.82315,667138991645.8611,32897411337722.52,1001879438181047.0
4.803380160110075,1.0418027426585178e+16,3.1072846771494588e+16,6681998009050153.0,1.2871568971039116e+16,158348160342.84543,709321724042.7435,34978021658030.07,1065406673277710.1
4.9994477633122765,1.0619504434641402e+16,3.172073794078308e+16,6811222949373376.0,1.3120495679412232e+16,168137138152.21652,753171688355.6246,37140890839621.07,1131452677689982.8
5.199436718578522,1.0820383784776874e+16,3.236958391112389e+16,6940064559098761.0,1.3368683976322672e+16,178308424440.15536,798734221162.7499,39388256876539.15,1200086291403464.8
5.403425452950093,1.102073397299329e+16,3.301965501165199e+16,7068566770742080.0,1.3616218489220934e+16,188872441752.00583,846056011152.8882,41722424565225.56,1271378425677569.2
5.611493962009095,1.1220618412726142e+16,3.367120912153097e+16,7196770256922085.0,1.386317756600055e+16,199839918883.60626,895185118910.2671,44145766485287.234,1345402094359106.0
5.823723841249277,1.1420095884923586e+16,3.4324492999349796e+16,7324712719035658.0,1.4109633831074524e+16,211221895606.5406,946170998083.2515,46660724048795.234,1422232447373556.2
6.040198318074262,1.1619220934833122e+16,3.4979743461280696e+16,7452429141752033.0,1.4355654675608868e+16,223029727677.73364,999064517826.8209,49269808612690.74,1501946806228450.0
6.261002284435747,1.181804422288117e+16,3.563718842909759e+16,7579952018062725.0,1.4601302691037624e+16,235275092112.424,1053917986424.9834,51975602649672.56,1584624701387871.0
6.486222330124463,1.2016612835854622e+16,3.629704786579511e+16,7707311548869757.0,1.4846636053530644e+16,247969992702.54288,1110785176012.5483,54780760973595.13,1670347911397781.2
6.715946776726952,1.2214970563628164e+16,3.695953461378474e+16,7834535820475117.0,1.5091708865892524e+16,261126765764.98474,1169721348326.8455,57688012015955.99,1759200503658907.8
6.950265712261491,1.241315814588395e+16,3.7624855148371384e+16,7961650962823873.0,1.5336571462387252e+16,274758086106.3448,1230783281429.1755,60700159150512.055,1851268876758276.5
7.18927102650672,1.2611213492611222e+16,3.8293210257325144e+16,8088681290930023.0,1.5581270681167392e+16,288876973192.421,1294029297343.6604,63820082063444.25,1946641804282499.2
7.433056447036854,1.28091718816236e+16,3.896479565579457e+16,8215649431561588.0,1.5825850108308496e+16,303496797512.2483,1359519290567.5532,67050738166818.54,2045410480046015.2
7.681717575977592,1.3007066135872114e+16,3.963980254449433e+16,8342576436967213.0,1.6070350296881086e+16,318631287127.6581,1427314757412.7788,70395164053358.17,2147668564676021.5
7.935351927497144,1.3204926782947034e+16,4.031841811799673e+16,8469481887178690.0,1.6314808964016658e+16,334294534400.3943,1497478826142.9194,73856476990778.08,2253512233503031.5
8.194058966047088,1.3402782198836122e+16,4.1000826029030856e+16,8596383982215676.0,1.655926116852212e+16,350501002889.70416,1570076287873.9946,77437876454121.83,2363040225712115.5
8.45794014536803,1.3600658737731356e+16,4.168720681390345e+16,8723299625342314.0,1.6803739471257452e+16,367265534414.0565,1645173628210.5222,81142645694709.66,2476353894715070.5
8.72709894827539,1.3798580849443928e+16,4.2377738283490936e+16,8850244498375741.0,1.7048274080202864e+16,384603356271.2783,1722839059591.4207,84974153344444.34,2593557259708105.5
9.0016409272409,1.399657118578714e+16,4.30725958836826e+16,8977233129918791.0,1.7292892981895872e+16,402530088611.93414,1803142554322.403,88935855054341.55,2714757058383511.0
9.281673745785717,1.4194650697117316e+16,4.377195302866918e+16,9104278957280188.0,1.753762206070849e+16,421061751961.2197,1886155878273.8613,93031295166250.28,2840062800766726.0
9.567307220701432,1.439283872007705e+16,4.447598141005403e+16,9231394382752068.0,1.778248520725484e+16,440214774885.04755,1971952625224.7263,97264108416816.31,2969586824153190.0
9.85865336511546,1.4591153057459652e+16,4.5184851284405864e+16,9358590824833954.0,1.8027504417064364e+16,460006001796.2927,2060608251834.3696,101638021672809.94,3103444349121427.0
10.155826432417769,1.4789610051005194e+16,4.58987317415628e+16,9485878764923430.0,1.827269988052212e+16,480452700897.48505,2152200113225.8179,106156855697006.7,3241753536600902.0
10.458942961066125,1.4988224647845552e+16,4.6617790955730664e+16,9613267789933004.0,1.851809006496203e+16,501572572256.4218,2246807499164.59,110824526943854.33,3384635545974730.5
10.768121820287448,1.5187010461234054e+16,4.7342196421184696e+16,9740766631241644.0,1.876369178969917e+16,523383756011.4212,2344511670818.3496,115645049384209.34,3532214594198869.0
11.083484256693197,1.5385979826125506e+16,4.8072115174185096e+16,9868383200342822.0,1.9009520294699188e+16,545904840703.0501,2445395898083.323,120622536358455.4,3684618015920343.5
11.405153941827061,1.5585143850110172e+16,4.8807714002536136e+16,9996124621513198.0,1.925558930350785e+16,569154871729.3444,2549545497464.0195,125761202457357.9,3841976324578315.5
11.733257020663602,1.5784512460152154e+16,4.954915964407164e+16,1.0123997261789976e+16,1.950191108099663e+16,593153359921.6307,2657047870493.349,131065365430019.66,4004423274472408.0
12.067922161076874,1.5984094445535174e+16,5.029661897520854e+16,1.0252006758515748e+16,1.974849648642281e+16,617920290238.149,2767992542680.678,136539448118341.2,4172095923783582.0
12.409280604298411,1.6183897497377734e+16,5.105025919059552e+16,1.0380158044683174e+16,1.99953550222505e+16,643476130572.8075,2882471202975.636,142187980417391.03,4345134698533188.0
12.75746621638438,1.6383928245043272e+16,5.181024797477938e+16,1.0508455372288006e+16,2.024249487913597e+16,669841840676.3779,3000577743736.0063,148015601261121.03,4523683457466594.0
13.112615540712067,1.6584192289738762e+16,5.257675366671942e+16,1.0636902333878552e+16,2.048992297743894e+16,697038881187.618,3122408301187.9956,154027060632861.44,4707889557847910.0
13.474867851526309,1.678469423556715e+16,5.334994541790019e+16,1.0765501882472852e+16,2.0737645005588164e+16,725089222771.7395,3248061296367.683,160227221600053.3,4897903922152788.0
13.844365208556836,1.6985437718274066e+16,5.41299933447196e+16,1.0894256349996006e+16,2.0985665455598348e+16,754015355363.778,3377637476532.547,166621062372674.94,5093881105646580.0
14.221252512727972,1.7186425431906908e+16,5.491706867576818e+16,1.1023167464379196e+16,2.123398765600737e+16,783840297514.3893,3511239957031.98,173213678384836.12,5295979364835270.0
14.605677562982532,1.7387659153584566e+16,5.571134389455659e+16,1.1152236365446662e+16,2.1482613802479924e+16,814587605835.7037,3648974263626.221,180010284399018.8,5504360726776883.0
14.997791114242183,1.7589139766559252e+16,5.651299287820011e+16,1.1281463619707296e+16,2.173154498630025e+16,846281384544.8217,3790948375242.9316,187016216632442.03,5719191059241123.0
15.397746936527026,1.7790867281735304e+16,5.732219103252365e+16,1.141084923415655e+16,2.198078122095905e+16,878946295102.659,3937272767161.035,194236934905056.6,5940640141705404.0
15.805701875257567,1.7992840857796644e+16,5.813911542400808e+16,1.1540392669185884e+16,2.223032146702111e+16,912607565945.816,4088060454611.4907,201678024808658.56,6168881737175240.0
16.221815912762718,1.8195058820081764e+16,5.896394490896935e+16,1.167009285068898e+16,2.2480163655445356e+16,947291002309.2227,4243427036784.9785,209345199896637.16,6404093664817508.0
16.64625223101797,1.8397518678333916e+16,5.979686026032237e+16,1.1799948181446648e+16,2.2730304709515484e+16,983022996137.3552,4403490741236.437,217244303893875.78,6646457873394971.0
17.079177275638333,1.860021714344455e+16,6.063804429225866e+16,1.1929956551865548e+16,2.2980740565526624e+16,1019830536081.8235,4568372468676.875,225381312926330.25,6896160515490800.0
17.5207608211511,1.880315014329777e+16,6.14876819831377e+16,1.206011535014095e+16,2.3231466192361304e+16,1057741217583.2865,4738195838143.051,233762337769832.2,7153392022512077.0
17.97117603757412,1.900631283781768e+16,6.23459605968704e+16,1.2190421471907744e+16,2.3482475610080524e+16,1096783253035.5721,4913087232535.708,242393626117663.94,7418347180461296.0
18.430599558325603,1.9209699633310384e+16,6.321306980305176e+16,1.232087132943931e+16,2.3733761907643532e+16,1136985482030.089,5093175844517.62,251281564866476.78,7691225206465531.0
18.899211549492115,1.9413304196188296e+16,6.408920179608015e+16,1.2451460860450084e+16,2.398531725986421e+16,1178377381678.6082,5278593722763.023,260432682420141.16,7972229826052922.0
19.37719578048196,1.9617119466156284e+16,6.497455141348506e+16,1.2582185536552916e+16,2.4237132943702384e+16,1220989077012.6096,5469475818550.292,269853651011129.62,8261569351166751.0
19.864739696091597,1.9821137668934652e+16,6.58693162536693e+16,1.2713040371419692e+16,2.4489199353984228e+16,1264851351457.5073,5665960032690.139,279551289039060.88,8559456758907559.0
20.36203449001343,2.0025350328590144e+16,6.677369679325692e+16,1.284401992868987e+16,2.474150601863578e+16,1309995657380.1514,5868187262782.504,289532563426057.75,8866109770994835.0
20.869275179813698,2.022974827953793e+16,6.768789650422525e+16,1.2975118329668876e+16,2.499404161351278e+16,1356454126708.18,6076301450795.329,299804591988596.75,9181750933939510.0
21.38666068340997,2.0434321678277916e+16,6.8612121970991576e+16,1.3106329260855326e+16,2.524679397690032e+16,1404259581619.833,6290449630959.502,310374645825551.8,9506607699919810.0
21.91439389707817,2.0639060014921252e+16,6.9546583007608744e+16,1.3237645981334086e+16,2.5499750123754196e+16,1453445545303.1538,6510781977974.67,321250151722187.3,9840912508353758.0
22.452681775019734,2.084395212456106e+16,7.049149277521922e+16,1.3369061330069282e+16,2.5752896259749136e+16,1504046252783.5308,6737451855521.505,332438694569863.1,1.0184902868161564e+16
23.00173541052013,2.1048986198537616e+16,7.144706789990686e+16,1.3500567733129734e+16,2.600621779519783e+16,1556096661818.7969,6970615865076.904,343948019801281.75,1.0538821440713526e+16
23.561770118730532,2.1254149795645504e+16,7.241352859107725e+16,1.3632157210876956e+16,2.6259699358896436e+16,1609632463861.267,7210433895029.236,355786035841135.9,1.0902916123458272e+16
24.133005521105144,2.1459429853326364e+16,7.339109876049067e+16,1.376382138514412e+16,2.65133248119541e+16,1664690095086.3665,7457069170092.296,367960816572064.2,1.1277440134228838e+16
24.715665631527248,2.1664812698889468e+16,7.438000614206691e+16,1.3895551486433012e+16,2.6767077261655796e+16,1721306747487.6992,7710688301016.922,380480603815881.9,1.1662652096224322e+16
25.309978944157795,2.1870284060799384e+16,7.538048241257162e+16,1.4027338361153234e+16,2.7020939075408076e+16,1779520380038.6575,7971461334601.206,393353809830096.44,1.2058816123666126e+16
25.91617852304095,2.2075829080066324e+16,7.639276331329082e+16,1.4159172478928498e+16,2.7274891894812324e+16,1839369729921.0183,8239561804000.838,406589019819797.7,1.2466201908129986e+16
26.53450209350177,2.2281432321774744e+16,7.741708877279715e+16,1.4291043939990528e+16,2.7528916649908276e+16,1900894323821.1636,8515166779342.838,420194994465046.94,1.2885084805555452e+16
27.165192135371807,2.248707778678174e+16,7.845370303090011e+16,1.4422942482682336e+16,2.778299357362729e+16,1964134489294.9978,8798456918647.111,434180672463988.0,1.3315745923936832e+16
27.808495978079243,2.2692748923615428e+16,7.950285476387654e+16,1.4554857491089694e+16,2.803710221649312e+16,2029131366202.8792,9089616519061.975,448555173091961.8,1.3758472211701116e+16
28.464665897640828,2.2898428640601268e+16,8.056479721106797e+16,1.4686778002819016e+16,2.8291221461604184e+16,2095926918216.265,9388833568421.404,463327798776973.75,1.4213556546780026e+16
29.133959215593645,2.310409931824272e+16,8.163978830292939e+16,1.4818692716937864e+16,2.854532953992942e+16,2164563944398.208,9696299797132.926,478508037691972.7,1.4681297826385892e+16
29.816638399905518,2.3309742821880156e+16,8.27280907906116e+16,1.4950590002094304e+16,2.8799404045949036e+16,2235086090860.1514,10012210730408.049,494105566364458.8,1.5162001057502246e+16
30.51297116790363,2.351534051465034e+16,8.382997237715621e+16,1.5082457904829166e+16,2.9053421953665844e+16,2307537862497.952,10336765740847.508,510130252304044.0,1.5655977448103588e+16
31.223230591261704,2.3720873270767212e+16,8.494570585037867e+16,1.5214284158093752e+16,2.9307359633013524e+16,2381964634810.5063,10670168101397.004,526592156648685.0,1.6163544499119312e+16
31.947695203086937,2.3926321489142268e+16,8.607556921750995e+16,1.534605618998633e+16,2.956119286668508e+16,2458412665804.7324,11012625038689.979,543501536830401.7,1.6685026097161318e+16
32.686649107148675,2.4131665107361796e+16,8.721984584167216e+16,1.5477761132716632e+16,2.981489686740176e+16,2536929107991.303,11364347786797.205,560868849261403.4,1.722075260803576e+16
33.44038208929165,2.4336883616036456e+16,8.837882458025392e+16,1.5609385831809352e+16,3.0068446295641764e+16,2617562020475.884,11725551641404.432,578704752041662.5,1.7771060971062868e+16
34.20918973107749,2.454195607353553e+16,8.95527999252514e+16,1.5740916855554832e+16,3.0321815277844636e+16,2700360381151.193,12096456014441.887,597020107689063.8,1.8336294794231856e+16
34.993373525699035,2.4746861121118416e+16,9.074207214564131e+16,1.5872340504714156e+16,3.057497742510674e+16,2785374098995.8237,12477284489192.332,615825985893426.9,1.8916804450220396e+16
35.793240996213015,2.4951576998473492e+16,9.194694743184714e+16,1.6003642822485492e+16,3.082790585237893e+16,2872654026486.198,12868264875906.135,635133666295737.9,1.9512947173311244e+16
36.60910581613728,2.5156081559671708e+16,9.316773804236326e+16,1.6134809604736514e+16,3.108057319817798e+16,2962251972128.7017,13269629267955.12,654954641294157.4,2.0125087157242864e+16
37.44128793246003,2.536035228954222e+16,9.44047624525907e+16,1.6265826410507556e+16,3.133295164481847e+16,3054220713119.6445,13681614098558.9,675300618878414.6,2.0753595654032468e+16
38.29011369110923,2.5564366320473964e+16,9.565834550594918e+16,1.6396678572788186e+16,3.1585012939171216e+16,3148614008141.233,14104460198120.883,696183525494375.2,2.1398851073815104e+16
39.15591596493141,2.576810044964769e+16,9.692881856731861e+16,1.6527351209569118e+16,3.183672841395369e+16,3245486610302.4336,14538412852213.928,717615508940690.6,2.206123908574489e+16
