t(s),Total solute volume 1,Total retention volume 1,Total 1 volume 1,Total 2 volume 1,Total 3 volume 1,Total 4 volume 1,Total 5 volume 1,Total 6 volume 1
0.1,839524706393360.9,941664656952722.2,50673114377222.37,51466836182138.266,0.0,0.0,0.0,0.0
0.202,1264436773203732.5,1419369925313330.8,76320504708768.45,77515956384255.27,2779199191.7710066,4653574078.885843,54914484466.56811,1034343758836.7207
0.30604000000000003,1587580234493254.2,1783513042478692.2,95825214312074.45,97326179425353.83,7048517415.634467,11802267160.505545,139272778650.59924,2623290684783.665
0.41216080000000005,1860528063794817.5,2091825744637394.8,112300151248031.34,114059172724626.48,12514487552.768753,20954699612.51994,247276291273.2327,4657611391481.848
0.5204040160000001,2102582400827465.0,2365906848952443.0,126910378951869.12,128898248781417.61,19046099412.972126,31891513422.05497,376336481833.6492,7088546297026.571
0.6308120963200001,2323359748819200.5,2616514844943221.0,140236342722835.06,142432944743785.03,26572405848.715603,44493921569.44341,525051605689.4314,9889690724298.58
0.7434283382464002,2528448947486552.0,2849902269303821.5,152615380953330.9,155005882928986.47,35052190693.069046,58692919470.37933,692607378602.3127,13045705446189.117
0.8582969050113283,2721429679400403.0,3070074871969622.5,164263560738605.56,166836514815024.25,44461501350.309105,74448409362.4671,878530632768.3964,16547676472108.875
0.9754628431115548,2904754204866070.5,3279778200828817.5,175328898767392.56,178075175560799.06,54787502135.9407,91738908274.58337,1082567865241.6091,20390827358903.098
1.094972099973786,3080187485418865.0,3480989927907767.0,185917926863252.12,188830065658805.7,66025067150.4419,110555843120.03598,1304617916978.9912,24573251139592.445
1.2168715419732616,3249048828080181.5,3675190084089605.0,196110277460094.84,199182064871336.03,78174730301.22577,130900118221.57811,1544691467827.361,29095147361630.566
1.3412089728127268,3412354420737140.5,3863520418862994.5,205967286936369.6,209193470323629.78,91241375007.0478,152779921372.92853,1802885146912.145,33958334422559.387
1.4680331522689813,3570906256472169.5,4046883797443793.5,215537363024387.12,218913447985998.6,105233357130.6587,176209255305.0193,2079364203192.5688,39165923145614.37
1.597393815314361,3725350171156139.5,4226009059290733.0,224859487918181.88,228381590652879.47,120161896362.99634,201206918652.4282,2374350480360.142,44722090268156.91
1.729341691620648,3876215154520861.5,4401494940452441.0,233965591061899.53,237630327897564.4,136040641690.18483,227795778407.78088,2688113831451.3706,50631916720564.1
1.863928525453061,4023940817720297.0,4573840757724657.0,242882207072268.22,246686609963658.88,152885354064.81827,256002238626.06064,3020965849314.851,56901269526430.11
2.001207095962122,4168897099506377.0,4743468419279063.0,251631665189359.84,255573115846891.8,170713670519.41577,285855845498.42413,3373255206311.8335,63536714014098.375
2.1412312378813647,4311398729438171.0,4910738577389075.0,260232962265613.62,264309139958266.0,189544926422.62735,317388989782.81866,3745364142880.1123,70545447667934.95
2.284055862638992,4451716055259462.0,5075962719743605.0,268702416298650.3,272911255893531.84,209400020230.41397,350636680390.69476,4137705795778.9976,77935249795551.3
2.4297369798917723,4590083290548796.0,5239412379685178.0,277054164253565.0,281393822053152.6,230301309943.93362,385636371065.97925,4550722152852.588,85714442995807.25
2.578331719489608,4726704884930802.0,5401326261669330.0,285300546565979.94,289769372171846.75,252272533193.89038,422427827073.44183,4984882572309.372,93891875068122.44
2.7298983538794,4861760566843694.0,5561915827377188.0,293452411513322.1,298048924442033.25,275338748284.8514,461053024755.2929,5440682228687.741,102476850576403.08
2.884496320956988,4995409256142347.0,5721369735256712.0,301519351386768.7,306242221408439.6,299526285180.9033,501556072189.345,5918641728819.969,111479182232966.25
3.0421862473761276,5127792293410095.0,5879857403051417.0,309509897403449.4,314357927917524.0,324862712759.5069,543983152642.59875,6419306077075.944,120909132377854.92
3.2030299723236504,5259036015675618.0,6037531898424472.0,317431675176596.06,322403789026859.5,351376813105.8685,588382482037.1642,6943244265244.905,130777414985025.02
3.3670905717701234,5389253872661195.0,6194532305736929.0,325291532450796.44,330386759741170.56,379098563905.21277,634804279534.8135,7491048925473.488,141095189114857.3
3.5344323832055258,5518548173190101.0,6350985680473503.0,333095644513887.8,338313112075360.2,408059127132.8302,683300748669.7915,8063336107680.919,151874054710672.88
3.7051210308696363,5647011537491689.0,6507008675857763.0,340849601857068.5,346188524087687.2,438290842996.21564,733926067279.1726,8660745160793.125,163126050350254.0
3.879223451487029,5774728113494488.0,6662708906487806.0,348558483589484.3,354018154444286.2,469827228303.2,786736384847.6978,9283938701474.037,174863652644929.06
4.0568079205167695,5901774602125344.0,6818186099228003.0,356226919324549.0,361806705274857.44,502702978597.5796,841789826164.6747,9933602657346.035,187099777041151.5
4.237944078927105,6028221126838582.0,6973533070657404.0,363859141664116.4,369558475478915.4,536953973533.0,899146500406.9496,10610446374243.908,199847779827616.5
4.422702960505647,6154131975181977.0,7128836562095581.0,371459030958867.6,377277406187295.2,572617285056.5374,958868514930.5511,11315202779037.14,213121461188429.44
4.61115701971576,6279566234533040.0,7284177956894345.0,379030153680901.9,384967119735790.6,609731188052.4786,1021019993186.0181,12048628591117.045,226935069172270.4
4.803380160110075,6404578339759331.0,7439633899795911.0,386575795480130.94,392630953239324.7,648335173159.4576,1085667096277.3054,12811504576884.246,241303304470807.25
4.9994477633122765,6529218547146789.0,7595276834353092.0,394098989790241.75,400271987645994.9,688469961524.0568,1152878047767.842,13604635842557.75,256241325918217.3
5.199436718578522,6653533346262705.0,7751175471420153.0,401602542688468.8,407893072986229.5,730177521294.1842,1222723161404.5889,14428852161422.244,271764756638624.16
5.403425452950093,6777565819303719.0,7907395199361590.0,409089054585573.7,415496850402513.6,773501085687.9811,1295274871485.359,15285008332271.297,287889690780342.94
5.611493962009095,6901355955792204.0,8063998444744821.0,416560939220700.7,423085771441766.6,818485172500.4686,1370607765638.895,16173984566327.197,304632700785679.6
5.823723841249277,7024940929133081.0,8221044990774969.0,424020440354141.5,430662115009585.44,865175604931.7888,1448798619823.4697,17096686900344.738,322010845153054.9
6.040198318074262,7148355340451344.0,8378592259513049.0,431469646485204.8,438228002318638.8,913619533638.6525,1529926435379.5405,18054047633959.062,340041676654885.5
6.261002284435747,7271631434245916.0,8536695562931746.0,438910503868923.5,445785410109266.6,963865459925.3131,1614072477996.6208,19047025789627.445,358743250980082.8
6.486222330124463,7394799289671838.0,8695408327056353.0,446344828061711.75,453336182375985.9,1015963260002.6173,1701320318474.9875,20076607593756.348,378134135774598.0
6.715946776726952,7517886990670085.0,8854782292778100.0,453774314190284.94,460882040797248.8,1069964210253.8021,1791755875179.8618,21143806977805.715,398233420057232.75
6.950265712261491,7640920777675213.0,9014867696380652.0,461200546108618.06,468424594035849.5,1125921013454.2566,1885467458099.952,22249666098332.19,419060723991067.1
7.18927102650672,7763925183225116.0,9175713432369738.0,468625004583256.0,475965346052425.94,1183887825899.5532,1982545814434.1726,23395255875071.13,440636208993546.56
7.433056447036854,7886923153460223.0,9337367200818918.0,476049074626928.1,483505703553953.5,1243920285402.0767,2083084175640.4922,24581676546278.87,462980588170487.6
7.681717575977592,8009936157217191.0,9499875641130048.0,483474052083350.44,491046982681696.5,1306075540121.6306,2187178305889.2188,25810058240655.12,486115137061136.94
7.935351927497144,8132984284185008.0,9663284453843864.0,490901149551871.75,498590415028641.1,1370412278199.6926,2294926551870.302,27081561565250.17,510061704683024.44
8.194058966047088,8256086333392106.0,9827638511912382.0,498331501728481.94,506137153064173.25,1436990758170.5278,2406429893910.2495,28397378208833.406,534842724866694.75
8.45794014536803,8379259893123925.0,9992981962657194.0,505766170229589.2,513688275033409.0,1505872840125.5732,2521791998359.483,29758731560261.195,560481227871531.5
8.72709894827539,8502521413227122.0,1.015935832147827e+16,513206147956245.94,521244789389776.8,1577122017609.903,2641119271215.018,31166877341430.684,587000852274863.0
9.0016409272409,8625886270634357.0,1.0326810558240524e+16,520652363049174.8,528807638812008.25,1650803450232.005,2764520912947.565,32623104254454.51,614425857127361.2
9.281673745785717,8749368828839318.0,1.0495381177150818e+16,528105682478646.75,536377703850222.2,1726983996969.7568,2892108974504.8276,34128734642722.305,642781134368425.8
9.567307220701432,8872982491961585.0,1.0665112290835788e+16,535566915307790.25,543955806240371.56,1805732250157.165,3023998414465.442,35685125165552.56,672092221495851.9
9.85865336511546,8996739753964742.0,1.0836045689247812e+16,543036815663367.94,551542711921540.56,1887118570137.8132,3160307157320.7603,37293667486159.9,702385314484542.0
10.155826432417769,9120652243524074.0,1.1008222903950184e+16,550516085443953.3,559139133786544.44,1971215120571.8694,3301156152862.7817,38955788972687.17,733687280949498.8
10.458942961066125,9244730764982788.0,1.1181685268269258e+16,558005376792021.75,566745734192744.1,2058095904384.7385,3446669436658.799,40672953412070.484,766025673548595.8
10.768121820287448,9368985335786294.0,1.1356473973746156e+16,565505294353460.6,574363127256942.8,2147836800345.9304,3596974191594.2383,42446661736521.43,799428743621012.9
11.083484256693197,9493425220740216.0,1.1532630123271702e+16,573016397345350.9,581991880955560.5,2240515600267.556,3752200810466.5215,44278452762421.35,833925455057391.1
11.405153941827061,9618058963400616.0,1.1710194781246158e+16,580539201450665.5,589632519049012.6,2336212046812.3545,3912482959613.445,46169903941436.8,869545498397996.0
11.733257020663602,9742894414871094.0,1.1889209021069114e+16,588074180556436.4,597285522847099.5,2435007871901.4126,4077957643560.6235,48122632123670.89,906319305155327.8
12.067922161076874,9867938760253806.0,1.2069713970231496e+16,595621768350320.0,604951332830576.1,2536986835712.496,4248765270672.735,50138294332674.7,944278062357744.2
12.409280604298411,9993198542974298.0,1.2251750853254548e+16,603182359788840.4,612630350142403.5,2642234766259.5527,4425049719794.293,52218588552146.19,983453727310789.5
12.75746621638438,1.0118679687180244e+16,1.2435361032694954e+16,610756312449333.5,620322937960856.6,2750839599544.8833,4606958407865.486,54365254524151.57,1023879042572954.0
13.112615540712067,1.0244387518391364e+16,1.2620586048413436e+16,618343947776387.6,628029422765498.4,2862891420274.931,4794642358499.348,56580074558703.9,1065587551142704.2
13.474867851526309,1.0370326782563532e+16,1.2807467655284714e+16,625945552232528.9,635750095505883.6,2978482503131.3086,4988256271506.657,58864874354539.64,1108613611853599.2
13.844365208556836,1.0496501663712648e+16,1.2996047859509918e+16,633561378361981.8,643485212681988.9,3097707354588.401,5187958593354.631,61221523830932.02,1152992414974414.8
14.221252512727972,1.0622915800231138e+16,1.3186368953676522e+16,641191645775529.9,651234997344488.4,3220662755269.08,5393911588546.439,63651937970384.695,1198759998011151.5
14.605677562982532,1.0749572300017568e+16,1.337847355069817e+16,648836542063719.4,658999640022271.9,3347447802829.9287,5606281411907.801,66158077672047.266,1245953261707825.0
14.997791114242183,1.087647375452907e+16,1.357240461675384e+16,656496223645067.2,666779299583928.0,3478163955367.7173,5825238181767.451,68741950615696.08,1294609986242947.2
15.397746936527026,1.1003622251857114e+16,1.376820550333584e+16,664170816555288.2,674574104039348.0,3612915075338.2964,6050956054017.953,71405612136121.73,1344768847618625.0
15.805701875257567,1.1131019388917762e+16,1.3965919978505804e+16,671860417183104.0,682384151287052.4,3751807473979.5645,6283613297043.538,74151166107767.58,1396469434239093.5
16.221815912762718,1.1258666282840832e+16,1.4165592257449746e+16,679565092957675.5,690209509812381.8,3894949956229.796,6523392367501.502,76980765839458.89,1449752263675636.8
16.64625223101797,1.1386563581634452e+16,1.436726703241485e+16,687284882992314.4,698050219341308.4,4042453866132.7046,6770479986943.586,79896614979066.67,1504658799614672.0
17.079177275638333,1.1514711474196382e+16,1.457098950210514e+16,695019798688758.1,705906291454165.6,4194433132720.563,7025067219263.901,82900968427944.34,1561231468985921.8
17.5207608211511,1.1643109699737116e+16,1.4776805400604124e+16,702769824305941.2,713777710163327.6,4351004316366.5723,7287349548959.678,85996133264981.05,1619513679267427.2
17.97117603757412,1.1771757556674984e+16,1.498476102589055e+16,710534917496889.8,721664432458523.6,4512286655597.634,7557526960191.43,89184469680107.33,1679549835964244.8
18.430599558325603,1.1900653911058822e+16,1.5194903268004844e+16,718315009817124.4,729566388823184.8,4678402114358.789,7835804016628.356,92468391917097.12,1741385360257609.8
18.899211549492115,1.2029797204569968e+16,1.5407279636921192e+16,726110007207630.8,737483483725011.1,4849475429720.3545,8122389942065.998,95850369225500.28,1805066706821339.0
19.37719578048196,1.2159185462150472e+16,1.5621938290175062e+16,733919790455330.5,745415596083616.0,5025634160018.63,8417498701801.679,99332926821550.06,1870641381802247.8
19.864739696091597,1.2288816299303124e+16,1.5838928060292166e+16,741744215633654.5,753362579718033.6,5207008733421.474,8721349084754.281,102918646857875.7,1938157960961301.2
20.36203449001343,1.2418686929102192e+16,1.6058298482061788e+16,749583114525754.9,761324263776538.0,5393732496909.367,9034164786314.5,106610169401866.5,2007666107972228.8
20.869275179813698,1.2548794168954528e+16,1.6280099819692646e+16,757436295032574.1,769300453151122.8,5585941765663.002,9356174491911.383,110410193422516.16,2079216592874316.8
21.38666068340997,1.2679134447145444e+16,1.650438309388791e+16,765303541567950.2,777290928878771.8,5783775872847.97,9687611961281.418,114321477785587.12,2152861310676038.2
21.91439389707817,1.2809703809201272e+16,1.6731200108871746e+16,773184615442663.5,785295448531549.4,5987377219787.453,10028716113425.807,118346842256927.22,2228653300106109.2
22.452681775019734,1.2940497924099564e+16,1.6960603479397296e+16,781079255239286.1,793313746597290.9,6196891326513.0205,10379731112241.344,122489168513770.83,2306646762508630.0
23.00173541052013,1.307151209035366e+16,1.7192646657763764e+16,788987177179419.6,801345534852621.1,6412466882684.093,10740906452810.754,126751401163849.81,2386897080878719.5
23.561770118730532,1.3202741241997012e+16,1.7427383960866254e+16,796908075484927.9,809390502729824.6,6634255798866.097,11112497048336.828,131136548772142.25,2469460839035142.5
24.133005521105144,1.3334179954490284e+16,1.7664870597300804e+16,804841622734471.4,817448317678973.1,6862413258156.619,11494763317705.285,135647684895072.75,2554395840926142.5
24.715665631527248,1.346582245057183e+16,1.7905162694543588e+16,812787470216643.0,825518625526597.0,7097097768149.531,11887971273659.883,140287949121981.02,2641761130064743.0
25.309978944157795,1.3597662635661936e+16,1.8148317325294564e+16,820745250066444.5,833601052644442.0,7338471229021.917,12292392636498.691,145060548100313.1,2731616974955878.5
25.91617852304095,1.3729693985105504e+16,1.8394392537700816e+16,828714568461336.8,841695199043654.9,7586698923230.105,12708304824157.904,149968756683526.12,2824025024659408.0
26.53450209350177,1.3861909728095412e+16,1.8643447379907656e+16,836695016719712.5,849800649640028.9,7841949662391.418,13135991190407.645,155015918856071.03,2919048125743634.0
27.165192135371807,1.3994302734448772e+16,1.8895541928697356e+16,844686164468798.1,857916967319614.5,8104395778065.668,13575741016805.17,160205448891637.3,3016750476773698.0
27.808495978079243,1.412686555023954e+16,1.9150737317227976e+16,852687561794914.5,866043695121473.9,8374213190775.694,14027849628198.303,165540832405751.38,3117197614847344.5
28.464665897640828,1.4259590403622292e+16,1.9409095762908028e+16,860698739594996.1,874180356594705.6,8651581463733.953,14492618484176.414,171025627436158.7,3220456435711965.0
29.133959215593645,1.4392469210685314e+16,1.967068059540536e+16,868719209929875.9,882326456157269.5,8936683856810.229,14970355270987.09,176663465528748.72,3326595213976364.5
29.816638399905518,1.4525493581336374e+16,1.9935556284786576e+16,876748466379546.8,890481479456802.8,9229707380721.656,15461373993888.787,182458052828681.88,3435683623410564.5
30.51297116790363,1.4658654825222494e+16,2.0203788469779948e+16,884785984400480.2,898644893733545.4,9530842851424.533,15965995069908.11,188413171176338.03,3547792757325753.0
31.223230591261704,1.4791943957684686e+16,2.0475443986155064e+16,892831221685044.6,906816148185382.1,9840284944685.105,16484545420965.572,194532679207674.25,3662995149026635.0
31.947695203086937,1.4925351705745046e+16,2.0750590895206316e+16,900883618522877.9,914994674334877.9,10158232250804.826,17017358567332.037,200820513458538.78,3781364792326869.5
32.686649107148675,1.5058868514123154e+16,2.102929851232648e+16,908942598164044.4,923179886398123.4,10484887329473.088,17564774721372.387,207280689472436.97,3902977162117861.0
33.44038208929165,1.5192484551277348e+16,2.1311637435653772e+16,917007567183674.5,931371181655076.4,10820456764717.414,18127140881530.28,213917302911203.7,4027909234980238.5
34.20918973107749,1.5326189715463814e+16,2.1597679574773092e+16,925077915847688.1,939567940821038.5,11165151219919.48,18704810926502.613,220734530667980.6,4156239509826096.0
34.993373525699035,1.5459973640807502e+16,2.188749817944902e+16,933153018479222.6,947769528418795.6,11519185492861.504,19298145709548.492,227736631981840.56,4288048028559290.5
35.793240996213015,1.5593825703375242e+16,2.2181167868368384e+16,941232233825228.0,955975293150964.6,11882778570765.217,19907513152871.305,234927949553360.16,4423416396739956.5
36.60910581613728,1.5727735027244246e+16,2.2478764657864936e+16,949314905422719.6,964184568271993.6,12256153685282.615,20533288342010.16,242312910660358.8,4562427804238359.0
37.44128793246003,1.586169049055487e+16,2.2780365990600816e+16,957400361964157.1,972396671959243.8,12639538367394.934,21175853620169.9,249896028272998.06,4705167045861991.0
38.29011369110923,1.5995680731540654e+16,2.30860507641756e+16,965487917661378.8,980610907682648.1,13033164502172.967,21835598682415.184,257681902167351.8,4851720541938987.0
39.15591596493141,1.6129694154525398e+16,2.339589935963462e+16,973576872607606.4,988826564572357.4,13437268383349.643,22512920669649.613,265675220036527.16,5002176358839739.0
40.03903428423004,1.6263718935880104e+16,2.3709993669847068e+16,981666513136987.5,997042917783946.5,13852090767653.03,23208224262297.387,273880758598349.28,5156624229417769.0
40.93981496991464,1.6397743029932324e+16,2.402841712772519e+16,989756112181288.1,1005259228860671.0,14277876928845.207,23921921773599.164,282303384698589.9,5315155573349879.0
41.85861126931294,1.6531754174822592e+16,2.435125473425619e+16,997844929623377.5,1013474746092494.2,14714876711411.195,24654433242432.8,290948056408677.75,5477863517355222.0
42.7957834946992,1.6665739898303422e+16,2.4678593086320316e+16,1005932212647249.9,1021688704871597.1,15163344583839.898,25406186525565.797,299819824116797.25,5644842915271843.0
43.751699164593184,1.6799687523479072e+16,2.5010520404268924e+16,1014017196084480.0,1029900328044256.0,15623539691437.955,26177617389244.7,308923831611260.06,5816190367969217.0
44.72673314788505,1.6933584174486514e+16,2.5347126559241264e+16,1022099102757117.4,1038108826259104.5,16095725908616.846,26969169600025.39,318265317155021.0,5992004243074876.0
