t(s),Total solute volume 1,Total retention volume 1,Total 1 volume 1,Total 2 volume 1,Total 3 volume 1,Total 4 volume 1,Total 5 volume 1,Total 6 volume 1
0.1,1144268928618327.0,1596229672649425.0,193012778181123.2,258947965849975.12,0.0,0.0,0.0,0.0
0.202,1412765051172710.2,2770856640295058.5,238302119549133.5,319708634934655.4,465691411925.91846,1196629851108.993,26827186228762.59,771591327146759.4
0.30604000000000003,1532666847975253.5,3892218954667571.5,258526892969892.0,346842406459106.9,1020451958847.7406,2622255376590.66,58791772538493.805,1691748327389390.2
0.41216080000000005,1599902621585960.8,5006547500715620.0,269868076504357.2,362057859006165.6,1613725152593.8887,4146987767298.508,92979253573729.1,2675978977125519.5
0.5204040160000001,1642598857870984.2,6128215708253057.0,277069984449792.44,371720015380357.3,2231103367410.1665,5733818059160.055,128559556399043.52,3700302372726307.0
0.6308120963200001,1671958332553326.5,7263475579446353.0,282022276563075.25,378364063228322.3,2867150649768.04,7368788851252.811,165219651117992.62,4755675316482616.0
0.7434283382464002,1693302250157841.2,8415670160166740.0,285622522006406.06,383194190881789.7,3519501135881.2036,9045831262109.258,202823433442341.62,5838162431280375.0
0.8582969050113283,1709471834296263.0,9586873941472364.0,288349972175506.3,386853367107926.56,4187059219127.1016,10762140599757.033,241308008814554.88,6945941559259212.0
0.9754628431115548,1722117384301698.8,1.0778532295088672e+16,290482995958952.4,389715054567222.94,4869327643350.0,12516450031065.652,280644974697846.94,8078186107888531.0
1.094972099973786,1732260598000075.2,1.199174931829466e+16,292193931115559.0,392010463429672.2,5566119559714.977,14308290777602.375,320823828450427.3,9234586086961608.0
1.2168715419732616,1740566527508082.5,1.3227431689573532e+16,293594957184586.1,393890094958522.1,6277421973466.289,16137641282892.395,361844098884964.1,1.0415120947781028e+16
1.3412089728127268,1747485970087276.8,1.448636654695006e+16,294762113664098.0,395455964553566.6,7003325738354.824,18004747364141.71,403711312609699.75,1.161994311293291e+16
1.4680331522689813,1753334885751717.5,1.5769266412274472e+16,295748695999619.9,396779573951863.0,7743987378587.074,19910024140968.324,446434794454584.6,1.2849314450597118e+16
1.597393815314361,1758341039825162.0,1.7076796488168568e+16,296593123148848.5,397912466436164.3,8499607197718.588,21853999812181.21,490026406472717.6,1.410356984527579e+16
1.729341691620648,1762672601876953.2,1.8409591983997964e+16,297323761587719.5,398892698772743.6,9270416198187.848,23837282071415.62,534499794697805.0,1.5383095428793124e+16
1.863928525453061,1766456332932993.5,1.9768269533260416e+16,297961993089447.0,399748956976363.5,10056667994227.145,25860537353744.62,579869923686390.0,1.6688315121227244e+16
2.001207095962122,1769789519719428.0,2.1153434969310684e+16,298524227766694.75,400503257029070.94,10858633669160.861,27924477648694.35,626152780769574.8,1.8019682072708056e+16
2.1412312378813647,1772748021936881.0,2.2565688779786856e+16,299023261468228.4,401172765977978.6,11676598429299.008,30029851930588.36,673365183870761.2,1.9377673096173132e+16
2.284055862638992,1775391829703592.5,2.400563003767997e+16,299469213196292.4,401771059584401.0,12510859387309.643,32177440492179.496,721524654445464.2,2.076278498087073e+16
2.4297369798917723,1777768983464113.0,2.5473859307006696e+16,299870186308253.25,402309009399004.0,13361724074644.938,34368051152758.723,770649332467900.1,2.2175532020139988e+16
2.578331719489608,1779918391412144.0,2.6970980842738796e+16,300232743753330.44,402795420344476.56,14229509435757.766,36602516705466.82,820757919215536.2,2.3616444341872092e+16
2.7298983538794,1781871888982334.2,2.8497604295383936e+16,300562255463185.2,403237496778429.9,15114541147533.113,38881693201545.336,871869638829020.6,2.5086066780981884e+16
2.884496320956988,1783655767408277.2,3.00543460618302e+16,300863156185739.25,403641188406005.7,16017153162528.752,41206458811023.62,924004212804416.2,2.658495812505221e+16
3.0421862473761276,1785291923995159.0,3.164183037970496e+16,301139139510660.5,404011450586525.1,16937687409011.133,43577713087704.21,977181843556740.2,2.811369062155917e+16
3.2030299723236504,1786798738682291.5,3.3260690233261204e+16,301393305726014.3,404352442699557.1,17876493602683.934,45996376522613.42,1031423204456653.1,2.96728496715714e+16
3.3670905717701234,1788191749757445.0,3.491156811914907e+16,301628275796285.4,404667681059039.1,18833929139248.914,48463390306678.914,1086749434562980.8,3.126303365852738e+16
3.5344323832055258,1789484180278367.0,3.659511670698075e+16,301846280158010.9,404960158042448.7,19810359046362.43,50979716247613.625,1143182136817013.2,3.2884853876390976e+16
3.7051210308696363,1790687352201130.5,3.8311999420241144e+16,302049228574042.2,405232435808023.8,20806155979892.72,53546336802282.445,1200743378829983.8,3.453893453204584e+16
3.879223451487029,1791811015116853.5,4.006289095649025e+16,302238765584141.5,405486720687879.6,21821700253713.438,56164255196956.52,1259455695644889.0,3.622591280400583e+16
4.0568079205167695,1792863609393548.2,4.184847776107376e+16,302416314891176.6,405724922736991.06,22857379895269.504,58834495615575.12,1319342094026727.0,3.7946438944514504e+16
4.237944078927105,1793852478454644.2,4.366945846513158e+16,302583115167793.25,405948703771814.4,23913590721256.984,61558103441543.74,1380426057956702.0,3.9701176415617864e+16
4.422702960505647,1794784041270918.5,4.552654429617466e+16,302740249151980.7,406159516405207.9,24990736429251.836,64336145542442.88,1442731555092094.0,4.149080205228268e+16
4.61115701971576,1795663933475355.0,4.742045946763866e+16,302888667450018.25,406358635980716.1,26089228702197.06,67169710589780.01,1506283044015456.8,4.331600624742508e+16
4.803380160110075,1796497123543382.0,4.935194155242295e+16,303029208133505.56,406547186864153.4,27209487323435.824,70059909407923.94,1571105482141788.8,4.517749315500878e+16
4.9994477633122765,1797288009015794.2,5.132174184436632e+16,303162612970032.6,406726164218846.3,28351940300548.406,73007875347826.8,1637224334185179.8,4.707598090832814e+16
5.199436718578522,1798040496640423.5,5.333062571080329e+16,303289540941302.3,406896452141694.4,29517023996671.574,76014764682225.44,1704665581110919.5,4.901220185129007e+16
5.403425452950093,1798758069473622.8,5.537937293872567e+16,303410579561663.3,407058838848227.75,30705183268295.203,79081757019826.27,1773455729517144.8,5.098690278103693e+16
5.611493962009095,1799443843344170.2,5.74687780765905e+16,303526254402320.44,407214029450393.8,31916871608763.24,82210055736584.62,1843621821403853.8,5.30008452006444e+16
5.823723841249277,1800100614590650.0,5.959965077343993e+16,303637037143565.3,407362656759516.75,33152551296889.55,85400888422655.77,1915191444297474.0,5.5054805580929144e+16
6.040198318074262,1800730900601654.5,6.177281611670299e+16,303743352413015.94,407505290460549.4,34412693550230.273,88655507343943.81,1988192741707099.2,5.714957563062646e+16
6.261002284435747,1801336974390179.0,6.3989114969814504e+16,303845583617549.25,407642444936254.44,35697778682662.42,91975189917450.72,2062654423894633.8,5.928596257437585e+16
6.486222330124463,1801920894199128.5,6.624940431060002e+16,303944077937086.44,407774585966931.75,37008296265997.266,95361239199838.12,2138605778945837.0,6.146478943808523e+16
6.715946776726952,1802484528949390.5,6.855455757122477e+16,304039150617129.9,407902136489314.75,38344745295419.484,98814984388775.53,2216076684132921.5,6.3686895341351864e+16
6.950265712261491,1803029580194348.0,7.090546498038802e+16,304131088671991.25,408025481564876.94,39707634358592.97,102337781336784.62,2295097617562332.0,6.5953135796699144e+16
7.18927102650672,1803557601126518.0,7.330303390834078e+16,304220154090798.7,408144972681031.8,41097481808310.46,105931013077385.02,2375699670103593.5,6.826438301545308e+16
7.433056447036854,1804070013087078.0,7.57481892152308e+16,304306586622280.56,408260931487239.5,42514815938596.31,109596090363436.88,2457914557597015.0,7.062152622013515e+16
7.681717575977592,1804568119952032.5,7.824187360321187e+16,304390606201399.5,408373653050595.75,43960175164195.14,113334452217632.44,2541774633339450.0,7.302547196328643e+16
7.935351927497144,1805053120706485.8,8.078504797270018e+16,304472415070347.2,408483408701389.94,45434108203394.195,117147566495151.08,2627312900848654.0,7.54771444526747e+16
8.194058966047088,1805526120467386.0,8.33786917831183e+16,304552199637840.9,408590448527549.75,46937174264150.375,121036930458529.95,2714563026907563.5,7.797748588285528e+16
8.45794014536803,1805988140173419.5,8.602380341843074e+16,304630132113590.9,408695003567464.75,48469943233494.52,125004071364840.02,2803559354890910.5,8.052745677308709e+16
8.72709894827539,1806440125126215.2,8.8721400557744e+16,304706371949014.25,408797287742860.4,50032995870204.37,129050547065290.31,2894336918376982.5,8.312803631161346e+16
9.0016409272409,1806882952538670.0,9.147252055121997e+16,304781067110470.4,408897499566987.3,51626924000738.87,133177946617403.97,2986931455048184.0,8.578022270633755e+16
9.281673745785717,1807317438222583.8,9.427822080152984e+16,304854355207314.06,408995823658027.0,53252330718434.91,137387890909933.02,3081379420884301.0,8.848503354192933e+16
9.567307220701432,1807744342528022.0,9.713957915105856e+16,304926364493735.25,409092432083172.75,54909830585972.875,141682033300700.47,3177718004653058.0,9.124350614341389e+16
9.85865336511546,1808164375630551.0,1.000576942750547e+17,304997214760600.8,409187485555130.2,56600049841120.266,146062060267569.38,3275985142702656.5,9.405669794629717e+16
10.155826432417769,1808578202248568.5,1.0303368608090824e+17,305067018131159.44,409281134499650.8,58323626605764.28,150529692072754.28,3376219534061554.0,9.692568687328888e+16
10.458942961066125,1808986445861408.2,1.0606869611372758e+17,305135879772545.2,409373520010084.2,60081211098249.85,155086683440707.12,3478460655850904.5,9.985157171769362e+16
10.768121820287448,1809389692489067.5,1.0916388796837941e+17,305203898533333.75,409464774702735.8,61873465849037.52,159734824249817.28,3582748779015366.5,1.0283547253353998e+17
11.083484256693197,1809788494086157.0,1.1232044770814662e+17,305271167516023.9,409555023484914.56,63701065919698.69,164475940238173.16,3689124984378295.5,1.058785310325234e+17
11.405153941827061,1810183371595536.0,1.155395842901517e+17,305337774592122.3,409644384245969.5,65564699125267.414,169311893723652.16,3797631179027564.0,1.089819109878415e+17
11.733257020663602,1810574817701184.0,1.1882252999768934e+17,305403802866486.4,409732968480267.94,67465066259964.88,174244584338605.25,3908310113038301.0,1.1214679864500462e+17
12.067922161076874,1810963299314666.5,1.2217054087960696e+17,305469331096741.5,409820881849879.56,69402881326316.95,179275949779417.06,4021205396539425.0,1.1537440313970062e+17
12.409280604298411,1811349259825174.5,1.2558489719686491e+17,305534434072809.75,409908224693762.7,71378871767682.0,184407966571226.66,4136361517130594.5,1.186659569228036e+17
12.75746621638438,1811733121139389.8,1.2906690387640773e+17,305599182960987.7,409995092489381.75,73393778704206.83,189642650848107.03,4253823857656808.5,1.2202271619260867e+17
13.112615540712067,1812115285534067.5,1.3261789097247389e+17,305663645616442.3,410081576271951.94,75448357172228.4,194982059149004.75,4373638714347748.0,1.2544596133438246e+17
13.474867851526309,1812496137341570.5,1.3623921413546685e+17,305727886867517.94,410167763015872.1,77543376367137.56,200428289229753.75,4495853315329447.0,1.2893699736731552e+17
13.844365208556836,1812876044486042.8,1.399322550885073e+17,305791968774855.56,410253735982360.44,79679619889718.62,205983480891475.47,4620515839515759.0,1.3249715439896682e+17
14.221252512727972,1813255359885884.5,1.4369842211178875e+17,305855950867962.8,410339575036838.5,81857885995984.2,211649816825701.47,4747675435887568.0,1.3612778808728877e+17
14.605677562982532,1813634422736339.8,1.4753915053485203e+17,305919890361550.9,410425356939173.9,84078987850508.11,217429523476541.2,4877382243167682.0,1.3983028011032037e+17
14.997791114242183,1814013559684372.8,1.514559032368909e+17,305983842353718.8,410511155609562.44,86343753783281.05,223324871920249.3,5009687409899583.0,1.4360603864363994e+17
15.397746936527026,1814393085906746.8,1.5545017115520406e+17,306047860007793.94,410597042372492.06,88653027550086.6,229338178762528.28,5144643114938488.0,1.474564988456655e+17
15.805701875257567,1814773306100842.0,1.5952347380190627e+17,306111994719466.3,410683086180967.75,91007668596413.7,235471807053930.8,5282302588363268.0,1.5138312335089142e+17
16.221815912762718,1815154515396846.0,1.6367735978900486e+17,306176296270651.1,410769353822937.44,93408552324907.1,241728167223728.16,5422720132817931.0,1.5538740277114806e+17
16.64625223101797,1815537000198886.5,1.679134073619481e+17,306240812971371.5,410855910111641.5,95856570366363.06,248109718032609.2,5565951145291814.0,1.5947085620497565e+17
17.079177275638333,1815921038961945.8,1.722332249417574e+17,306305591790808.1,410942818061432.6,98352630854269.6,254618967544596.16,5712052139347455.0,1.6363503175519677e+17
17.5207608211511,1816306902910658.5,1.7663845167584e+17,306370678478537.2,411030139050429.75,100897658702891.61,261258474118565.25,5861080767805657.0,1.6788150705477315e+17
17.97117603757412,1816694856705391.0,1.8113075799759114e+17,306436117676893.25,411117932971264.44,103492595888899.17,268030847419761.47,6013095845897351.0,1.7221188980103152e+17
18.430599558325603,1817085159060565.2,1.857118461948823e+17,306501953025260.0,411206258370995.5,106138401736530.72,274938749451722.44,6168157374891966.0,1.7662781829834525e+17
18.899211549492115,1817478063319539.2,1.9038345098753536e+17,306568227257042.25,411295172581215.5,108836053206284.83,281984895609014.06,6326326566212320.0,1.8113096200935014e+17
19.37719578048196,1817873817990079.8,1.9514734011388086e+17,306634982289986.44,411384731839218.9,111586545187128.2,289172055751207.3,6487665866046456.0,1.857230221147769e+17
19.864739696091597,1818272667243899.2,2.0000531492649296e+17,306702259310445.56,411474991401051.7,114390890792205.11,296503055298516.3,6652238980466587.0,1.904057320819799e+17
20.36203449001343,1818674851383533.5,2.0495921099719555e+17,306770098852124.94,411566005647164.44,117250121658030.22,303980776349550.25,6820110901066159.0,1.95180858242239e+17
20.869275179813698,1819080607279423.0,2.100108987314316e+17,306838540869814.0,411657828181328.1,120165288247144.53,311608158821612.2,6991347931125675.0,2.0005020037690637e+17
21.38666068340997,1819490168779854.0,2.1516228399207843e+17,306907624808530.0,411750511923396.56,123137460154208.44,319388201614007.44,7166017712318668.0,2.0501559231248e+17
21.91439389707817,1819903767096085.2,2.204153087328021e+17,306977389668485.5,411844109196466.8,126167726415501.28,327323963794831.2,7344189251969102.0,2.1007890252466205e+17
22.452681775019734,1820321631164877.0,2.2577195164102518e+17,307047874066231.25,411938671808913.8,129257195821798.45,335418565811705.3,7525932950871918.0,2.1524203475147984e+17
23.00173541052013,1820743987990333.5,2.3123422879059795e+17,307119116292323.75,412034251131753.8,132406997234585.55,343675190726948.5,7711320631688593.0,2.205069286155334e+17
23.561770118730532,1821171062966842.2,2.368041943042403e+17,307191154365796.06,412130898171726.44,135618279905568.53,352097085477678.44,7900425567929957.0,2.2587556025542256e+17
24.133005521105144,1821603080184772.8,2.4248394102583613e+17,307264026085722.9,412228663640468.1,138892213799434.48,360687562161347.5,8093322513538661.0,2.3134994296642602e+17
24.715665631527248,1822040262720374.0,2.4827560120264774e+17,307337769080117.75,412327598020122.4,142229989919811.06,369449999347229.6,8290087733083949.0,2.3693212785047594e+17
25.309978944157795,1822482832911212.5,2.5418134717751318e+17,307412420852396.0,412427751625667.6,145632820638368.84,378387843414376.94,8490799032581901.0,2.4262420447548918e+17
25.91617852304095,1822931012618425.2,2.6020339209109696e+17,307488018825609.44,412529174664265.5,149101940027003.7,387504609916586.56,8695535790954183.0,2.4842830154409098e+17
26.53450209350177,1823385023476881.5,2.6634399059425043e+17,307564600384643.8,412631917291875.0,152638604193034.0,396803884974927.1,8904378992139090.0,2.5434658757178973e+17
27.165192135371807,1823845087134297.8,2.7260543957053194e+17,307642202916550.8,412736029667362.0,156244091617338.1,406289326698370.2,9117411257868558.0,2.6038127157462934e+17
27.808495978079243,1824311425480278.5,2.789900788689438e+17,307720863849184.6,412841562004328.5,159919703495355.06,415964666633107.7,9334716881125418.0,2.6653460376635638e+17
28.464665897640828,1824784260866094.8,2.8550029204692714e+17,307800620688272.1,412948564620856.6,163666764080858.5,425833711241124.94,9556381860295384.0,2.728088762651348e+17
29.133959215593645,1825263816316088.8,2.9213850712365523e+17,307881511053070.44,413057087987339.44,167486621032419.2,435900343408620.3,9782493934028312.0,2.7920642380982938e+17
29.816638399905518,1825750315731354.0,2.98907197343662e+17,307963572710728.25,413167182772581.94,171380645762449.34,446168523984887.4,1.0013142616824258e+16,2.857296244858755e+17
30.51297116790363,1826243984086448.5,3.058088819508312e+17,308046843609462.6,413278899888312.25,175350233788729.9,456642293352254.06,1.0248419235359382e+16,2.923809004607468e+17
31.223230591261704,1826745047619722.8,3.1284612697277395e+17,308131361910662.6,413392290532254.5,179396805088300.56,467325773027711.06,1.0488416965567586e+16,2.9916271872902835e+17
31.947695203086937,1827253734017856.0,3.200215460156055e+17,308217166020020.1,413507406229890.4,183521804453598.1,478223167296884.06,1.0733230870494178e+16,3.060775918670935e+17
32.686649107148675,1827770272595157.8,3.273378010691353e+17,308304294617771.1,413624298875033.75,187726701850706.72,489338764880975.9,1.0982957938937802e+16,3.131280787973772e+17
33.44038208929165,1828294894468110.8,3.347976033224686e+17,308392786688140.0,413743020769330.94,192012992779590.62,500676940637356.8,1.1237697124897404e+16,3.2031678556222854e+17
34.20918973107749,1828827832725644.2,3.4240371399002336e+17,308482681548057.25,413863624660789.25,196382198636152.28,512242157294480.44,1.1497549387841792e+16,3.2764636610731674e+17
34.993373525699035,1829369322595525.2,3.5015894514793734e+17,308574018875227.8,413986163781438.9,200835867075972.03,524038967221806.5,1.176261773381898e+16,3.351195230745689e+17
35.793240996213015,1829919601607338.2,3.580661605808524e+17,308666838735623.25,414110691884209.6,205375572379553.97,536072014235439.7,1.2033007257423202e+16,3.427390086045872e+17
36.60910581613728,1830478909752376.2,3.66128276639046e+17,308761181610449.9,414237263279114.1,210002915818911.1,548346035440199.9,1.2308825184638508e+16,3.505076251485073e+17
37.44128793246003,1831047489640791.5,3.743482631058661e+17,308857088422657.8,414365932868816.0,214719526025298.9,560865863108849.56,1.2590180916576922e+16,3.584282262892224e+17
38.29011369110923,1831625586656390.5,3.827291440754224e+17,308954600563051.7,414496756183651.3,219527059357905.72,573636426599235.2,1.2877186074130698e+16,3.665037175719315e+17
39.15591596493141,1832213449109300.0,3.9127399884048294e+17,309053759916040.1,414629789416189.25,224427200273292.97,586662754310076.6,1.316995454355826e+16,3.747370573438998e+17
40.03903428423004,1832811328386872.2,3.999859627904883e+17,309154608885092.4,414765089455367.56,229421661695363.62,599949975676212.1,1.346860252302365e+16,3.831312576033659e+17
40.93981496991464,1833419479103046.0,4.088682283196239e+17,309257190417930.2,414902713920304.2,234512185385636.53,613503323204047.5,1.377324857010982e+16,3.9168938485748326e+17
41.85861126931294,1834038159246429.8,4.179240457448405e+17,309361548031509.0,415042721193804.4,239700542313576.56,627328134548041.9,1.4084013650326748e+16,4.00414560989181e+17
42.7957834946992,1834667630327383.8,4.271567242337305e+17,309467725836823.5,415185170455645.5,244988533026733.2,641429854629036.4,1.4401021186635614e+16,4.093099641328193e+17
