t(s),Total solute volume 1,Total retention volume 1,Total 1 volume 1,Total 2 volume 1,Total 3 volume 1,Total 4 volume 1,Total 5 volume 1,Total 6 volume 1
0.1,1383945849202658.0,3981468685541325.0,887646190648165.1,1709876645690502.0,0.0,0.0,0.0,-3.740371093031155e-123
0.202,2007002255029527.8,6064731046166389.0,1287267195436213.0,2479669652129845.0,45437863292.14776,203514312056.64365,9951806378083.225,280591185017370.66
0.30604000000000003,2436889021677309.0,7750377025191393.0,1562991437267312.0,3010798942565802.0,111443776163.5747,499182100402.62146,24508826922425.496,714578170881980.4
0.41216080000000005,2765835092885712.5,9251878978447288.0,1773973518654981.5,3417214983446952.5,191633234310.35117,858391183756.5145,42219116543570.12,1251586242497994.8
0.5204040160000001,3030834552264618.0,1.0650805246444636e+16,1943941007008662.2,3744624369948553.0,282808568153.8495,1266815881859.7942,62369825170642.18,1867485867602140.0
0.6308120963200001,3251002777193340.5,1.1987607679902836e+16,2085154277727092.0,4016644342836261.5,383017599323.3487,1715710844356.2417,84527586929336.61,2548179966773122.5
0.7434283382464002,3437772271857250.0,1.3285600183153622e+16,2204946002472431.5,4247399871429133.0,490947252768.36237,2199193890785.9043,108401316068954.0,3284390580182293.5
0.8582969050113283,3598637100118222.5,1.4559599147112724e+16,2308122784189373.0,4446149942484784.0,605663974168.6354,2713083015232.435,133784157115740.97,4069586416215200.0
0.9754628431115548,3738824634378200.5,1.5819697610398028e+16,2398037396975945.0,4619353023426751.0,726480540468.8406,3254299702224.529,160523841369474.22,4898977934004964.0
1.094972099973786,3862147847445861.5,1.7073141747491526e+16,2477135435936676.0,4771720077509212.0,852879449130.9932,3820525725310.714,188505679032621.16,5768959302392723.0
1.2168715419732616,3971483105723115.5,1.832535521351438e+16,2547261768031792.5,4906804881972622.0,984465256333.7058,4409989636007.605,217641994576019.28,6676769008318490.0
1.3412089728127268,4069057763153250.0,1.9580539314365976e+16,2609844991399886.0,5027359353127754.0,1120933185482.4634,5021326141080.042,247865175741122.62,7620269771617402.0
1.4680331522689813,4156633096158023.0,2.084204472248806e+16,2666014767639185.5,5135559564202720.0,1262047540366.4553,5653479402129.83,279122896949220.62,8597798870596413.0
1.597393815314361,4235625905484692.0,2.2112612237655332e+16,2716679815777240.0,5233155985564396.0,1407626352700.2935,6305634263208.82,311374723827212.06,9608062546385876.0
1.729341691620648,4307192302145017.0,2.3394534587294184e+16,2762581651569131.5,5321577003024596.0,1557530166102.4807,6977166008113.232,344589633327210.56,1.0650059301054006e+16
1.863928525453061,4372287181470264.5,2.4689768580125416e+16,2804332733444013.0,5402002398584005.0,1711653660628.893,7667602842183.148,378744162196610.0,1.172302284792772e+16
2.001207095962122,4431707510156769.0,2.600001492339692e+16,2842444226297545.5,5475416831974448.0,1869919284016.5022,8376597363268.795,413820999129418.94,1.2826378839191464e+16
2.1412312378813647,4486124510989918.0,2.732677633431706e+16,2877346644388131.5,5542649605179638.0,2032272334534.4968,9103904535218.592,449807897749729.1,1.3959711499139894e+16
2.284055862638992,4536108036154941.0,2.86714006973646e+16,2909405484086312.5,5604404775882737.0,2198677115155.0764,9849364460361.973,486696826316265.4,1.5122737533348838e+16
2.4297369798917723,4582145321847632.0,3.0035113682443864e+16,2938933252857221.0,5661284328958397.0,2369113892072.289,10612888755076.322,524483295128864.0,1.631528548100459e+16
2.578331719489608,4624655622648483.0,3.1419043785538124e+16,2966198855572733.0,5713806257374782.0,2543576466163.905,11394449671035.79,563165819340025.8,1.7537279204464894e+16
2.7298983538794,4664001772732850.0,3.2824241823920096e+16,2991435009732975.0,5762418846173441.0,2722070217639.7847,12194071336103.07,602745486297743.8,1.878872456742936e+16
2.884496320956988,4700499420129131.0,3.4251696308424628e+16,3014844168208834.0,5807512081478961.0,2904610520188.941,13011822650396.326,643225604519295.5,2.0069698600917816e+16
3.0421862473761276,4734424475235348.0,3.570234570664215e+16,3036603296631164.5,5849426853208643.0,3091221446607.1724,13847811488051.59,684611417067936.4,2.1380340631564404e+16
3.2030299723236504,4766019172335237.0,3.717708833143061e+16,3056867761174514.5,5888462444130468.0,3281934706464.924,14702179938419.408,726909866208237.9,2.2720844972937268e+16
3.3670905717701234,4795497042071230.0,3.8676790394570824e+16,3075774517841657.0,5924882673398565.0,3476788770022.042,15575100381566.625,770129399229424.9,2.4091454872878348e+16
3.5344323832055258,4823047020384498.0,4.020229262769427e+16,3093444747888507.5,5958920973185920.0,3675828142755.7954,16466772238463.6,814279807569204.5,2.5492457478284944e+16
3.7051210308696363,4848836866591251.0,4.175441577371383e+16,3109986050137258.0,5990784611748655.0,3879102762523.2827,17377419270526.643,859372093060279.0,2.6924179630143336e+16
3.879223451487029,4873016024209729.0,4.333396517998125e+16,3125494275876491.0,6020658228003774.0,4086667497209.6216,18307287329301.793,905418356408562.4,2.8386984340656156e+16
4.0568079205167695,4895718028935171.0,4.494173467131338e+16,3140055073307503.5,6048706806604268.0,4298581725197.763,19256642477163.625,952431704001823.1,2.9881267834262264e+16
4.237944078927105,4917062546059143.0,4.657850984144483e+16,3153745194320628.5,6075078195189215.0,4514908984476.091,20225769415492.68,1000426169915603.4,3.1407457057560256e+16
4.422702960505647,4937157102738839.0,4.8245070871628376e+16,3166633605551985.5,6099905244618380.0,4735716678923.215,21214970168994.297,1049416650584198.5,3.2966007581287056e+16
4.61115701971576,4956098567492019.0,4.9942194962400296e+16,3178782437313847.0,6123307636901818.0,4961075832456.124,22224562984437.35,1099418850078377.9,3.4557401831797336e+16
4.803380160110075,4973974419153272.0,5.1670658447080744e+16,3190247797487955.5,6145393453006946.0,5191060883432.516,23254881409726.63,1150449234307664.5,3.618214760083177e+16
4.9994477633122765,4990863839571786.0,5.343123864206986e+16,3201080472368773.5,6166260522896771.0,5425749513059.103,24306273525321.54,1202524992765615.0,3.784077679142855e+16
5.199436718578522,5006838658043059.0,5.522471547844474e+16,3211326532410716.5,6185997592383957.0,5665222502652.76,25379101304915.953,1255664006678129.5,3.953384436512126e+16
5.403425452950093,5021964170461682.0,5.705187295106272e+16,3221027857622897.5,6204685335201703.0,5909563615485.322,26473740086255.51,1309884822610144.0,4.126192746146454e+16
5.611493962009095,5036299852171993.0,5.891350041479659e+16,3230222594783035.5,6222397233737369.0,6158859499661.3,27590578136187.39,1365206630744745.5,4.302562466572358e+16
5.823723841249277,5049899980260900.0,6.08103937522832e+16,3238945556568583.0,6239200347881021.0,6413199609064.492,28730016296664.35,1421649247178303.2,4.482555540448862e+16
6.040198318074262,5062814178415853.0,6.274335643335656e+16,3247228571022158.5,6255155988202621.0,6672676139890.183,29892467700578.79,1479233099681516.5,4.666235945219395e+16
6.261002284435747,5075087895334783.0,6.471320048294079e+16,3255100788397929.5,6270320307031935.0,6937383980675.708,31078357548077.594,1537979216463774.0,4.853669653418361e+16
6.486222330124463,5086762825924168.0,6.672074737141802e+16,3262588951313010.0,6284744818852730.0,7207420674069.682,32288122935474.94,1597909217550714.5,5.044924601416782e+16
6.715946776726952,5097877283080396.0,6.876682883924057e+16,3269717633203577.0,6298476859642153.0,7482886388852.059,33522212730097.41,1659045308444914.2,5.24007066557506e+16
6.950265712261491,5108466526658008.0,7.085228766570977e+16,3276509449321218.5,6311559993314166.0,7763883900943.568,34781087485412.418,1721410275789822.2,5.4391796449240184e+16
7.18927102650672,5118563055238772.0,7.297797839032584e+16,3282985243870047.0,6324034372202880.0,8050518582332.539,36065219391635.97,1785027484798892.5,5.642325249624122e+16
7.433056447036854,5128196865489819.0,7.51447679938572e+16,3289164256355984.5,6335937057502195.0,8342898397005.795,37375092257730.81,1849920878247139.8,5.849583094560725e+16
7.681717575977592,5137395683208871.0,7.73535365452328e+16,3295064269776353.0,6347302304724179.0,8641133903104.204,38711201521301.2,1916114976851783.0,6.061030697524717e+16
7.935351927497144,5146185169573305.0,7.960517781949008e+16,3300701742905612.5,6358161818521943.0,8945338260635.795,40074054283398.62,1983634880893820.5,6.276747481505137e+16
8.194058966047088,5154589105621083.0,8.190059989128346e+16,3306091928619177.0,6368544980617496.0,9255627244175.434,41464169365679.5,2052506272953408.8,6.496814780686248e+16
8.45794014536803,5162629557576982.0,8.42407257078437e+16,3311248979931714.5,6378479054063968.0,9572119260060.633,42882077387718.18,2122755421649960.0,6.721315849797333e+16
8.72709894827539,5170327025286494.0,8.662649364476389e+16,3316186045200867.5,6387989366637054.0,9894935367662.412,44328320862589.36,2194409186293167.2,6.950335876511605e+16
9.0016409272409,5177700575720498.0,8.905885804754966e+16,3320915353755565.5,6397099475781423.0,10224199304368.604,45803454309097.24,2267495022364244.0,7.183961996631449e+16
9.281673745785717,5184767963258462.0,9.153878976150106e+16,3325448293044227.5,6405831317221719.0,10560037513967.977,47308044379253.75,2342040987757857.0,7.422283311832566e+16
9.567307220701432,5191545738239367.0,9.406727665217749e+16,3329795478258010.0,6414205339078305.0,10902579178166.352,48842669999802.8,2418075749724811.0,7.6653909097699e+16
9.85865336511546,5198049345081609.0,9.664532411842878e+16,3333966815263799.5,6422240623095402.0,11251956251003.186,50407922526754.93,2495628592463870.0,7.913377886374626e+16
10.155826432417769,5204293211112059.0,9.927395559974482e+16,3337971557578047.5,6429954994390219.0,11608303495969.143,52004405912037.73,2574729425318193.5,8.166339370193837e+16
10.458942961066125,5210290827104544.0,1.0195421307947882e+17,3341818358023226.0,6437365120959066.0,11971758525653.148,53632736881494.91,2655408791537958.0,8.424372548644691e+16
10.768121820287448,5216054820407875.0,1.0468715758532795e+17,3345515315631262.5,6444486604027724.0,12342461843770.824,55293545123571.39,2737697877576255.5,8.687576696071758e+16
11.083484256693197,5221597021438878.0,1.0747386968831202e+17,3349070018291393.0,6451334060204302.0,12720556889447.756,56987473488117.18,2821628522889784.5,8.956053203511002e+16
11.405153941827061,5226928524225183.0,1.1031545000136154e+17,3352489581581558.0,6457921196280419.0,13106190083648.572,58715178194823.56,2907233230220088.0,9.229905610077573e+16
11.733257020663602,5232059741603350.0,1.1321301967851942e+17,3355780684171850.5,6464260877429039.0,13499510877659.023,60477329050875.65,2994545176334467.0,9.509239635905206e+16
12.067922161076874,5237000455609146.0,1.161677209156642e+17,3358949600144221.5,6470365189462170.0,13900671803542.008,62274609677467.18,3083598223208846.0,9.794163216575882e+16
12.409280604298411,5241759863536325.0,1.1918071745358218e+17,3362002228534042.0,6476245495736937.0,14309828526500.271,64107717744879.07,3174426929637631.5,1.0084786538986574e+17
12.75746621638438,5246346620087566.0,1.2225319508414357e+17,3364944120365212.0,6481912489233543.0,14727139899089.771,65977365215869.18,3267066563257807.5,1.0381222078608445e+17
13.112615540712067,5250768875994876.0,1.2538636216027717e+17,3367780503420811.0,6487376240271075.0,15152768017236.617,67884278597164.24,3361553112976860.5,1.0683584638099912e+17
13.474867851526309,5255034313445859.0,1.2858145011038098e+17,3370516304965117.5,6492646240277092.0,15586878278018.646,69829199198881.32,3457923301795687.5,1.0991991387242027e+17
13.844365208556836,5259150178616713.0,1.3183971395776347e+17,3373156172609850.5,6497731441982463.0,16029639439180.912,71812883401739.53,3556214600019553.5,1.1306561904169387e+17
14.221252512727972,5263123311580772.0,1.351624328456648e+17,3375704493497187.0,6502640296373649.0,16481223680359.443,73836102931950.34,3656465238851431.0,1.1627418217874944e+17
14.605677562982532,5266960173833708.0,1.3855091056837688e+17,3378165411954069.0,6507380786700377.0,16941806665994.92,75899645143704.78,3758714224363385.0,1.1954684851971565e+17
14.997791114242183,5270666873651645.0,1.4200647610894173e+17,3380542845756616.0,6511960459805892.0,17411567609921.871,78004313309192.72,3863001351842964.0,1.2288488869696539e+17
15.397746936527026,5274249189476455.0,1.45530484183891e+17,3382840501129163.0,6516386455019646.0,17890689341624.44,80150926916116.47,3969367220512353.5,1.262895992014957e+17
15.805701875257567,5277712591503119.0,1.4912431579545738e+17,3385061886590142.0,6520665530828790.0,18379358374153.367,82340321972676.1,4077853248619193.5,1.2976230285756926e+17
16.221815912762718,5281062261626541.0,1.5278937879167014e+17,3387210325745757.0,6524804089522646.0,18877764973703.09,84573351320019.97,4188501688898694.0,1.3330434930958291e+17
16.64625223101797,5284303111890046.0,1.5652710843473408e+17,3389288969122564.0,6528808199985965.0,19386103230850.48,86850884952174.2,4301355644407434.0,1.3691711552114496e+17
17.079177275638333,5287439801563655.0,1.6033896797806576e+17,3391300805121337.5,6532683618799358.0,19904571133460.887,89173810343469.6,4416459084729982.0,1.4060200628637442e+17
17.5207608211511,5290476752968183.0,1.642264492523604e+17,3393248670166455.0,6536435809790156.0,20433370641268.777,91543032783507.7,4533856862560089.0,1.4436045475345075e+17
17.97117603757412,5293418166150374.0,1.6819107326103898e+17,3395135258118320.5,6540069962163652.0,20972707762143.746,93959475719710.58,4653594730658630.0,1.4819392296046605e+17
18.430599558325603,5296268032503984.0,1.7223439078542125e+17,3396963129009768.5,6543591007332092.0,21522792630054.223,96424081107513.64,4775719359191317.0,1.5210390238364656e+17
18.899211549492115,5299030147423249.0,1.7635798299996656e+17,3398734717161898.5,6547003634548208.0,22083839584744.19,98937809768269.39,4900278353449310.0,1.5609191449803085e+17
19.37719578048196,5301708122067313.0,1.8056346209790358e+17,3400452338729556.0,6550312305440199.0,22656067253139.273,101501641754939.52,5027320271956524.0,1.601595113507019e+17
19.864739696091597,5304305394306702.0,1.8485247192758182e+17,3402118198722356.5,6553521267536358.0,23239698632501.348,104116576725658.78,5156894644967987.0,1.6430827614669027e+17
20.36203449001343,5306825238916964.0,1.8922668863985706e+17,3403734397542712.5,6556634566859303.0,23834961175351.5,106783634325267.73,5289051993363430.0,1.685398238476743e+17
20.869275179813698,5309270777078541.0,1.9368782134683062e+17,3405302937078950.5,6559656059663197.0,24442086876183.97,109503854574907.47,5423843847941433.0,1.728558017836175e+17
21.38666068340997,5311644985236814.0,1.9823761279224867e+17,3406825726388037.5,6562589423380467.0,25061312359993.906,112278298269792.45,5561322769119109.0,1.772578902774943e+17
21.91439389707817,5313950703371578.0,2.0287784003388173e+17,3408304586999540.0,6565438166838796.0,25692878972644.457,115108047385266.12,5701542367043021.0,1.817478032832709e+17
22.452681775019734,5316190642721050.0,2.0761031513818038e+17,3409741257869687.5,6568205639804198.0,26337032873098.797,117994205491264.81,5844557322117186.0,1.8632728903730384e+17
23.00173541052013,5318367393001440.0,2.124368858875237e+17,3411137400011932.5,6570895041900920.0,26994025127545.42,120937898175312.5,5990423405954382.0,1.9099813072335222e+17
23.561770118730532,5320483429159881.0,2.1735943650036432e+17,3412494600828197.5,6573509430954708.0,27664111805444.555,123940273474177.78,6139197502757121.0,1.9576214715138483e+17
24.133005521105144,5322541117695212.0,2.2237988836457526e+17,3413814378162970.5,6576051730802314.0,28347554077526.414,127002502314330.31,6290937631135162.0,2.006211934503877e+17
24.715665631527248,5324542722578403.0,2.2750020078431136e+17,3415098184100539.5,6578524738606050.0,29044618315771.83,130125778961336.47,6445702966366311.0,2.055771617753832e+17
25.309978944157795,5326490410801481.0,2.327223717406885e+17,3416347408524062.5,6580931131709728.0,29755576195407.633,133311321478341.62,6603553863108007.0,2.1063198202887158e+17
25.91617852304095,5328386257581887.0,2.3804843866659536e+17,3417563382453576.0,6583273474068617.0,30480704798949.938,136560372193789.95,6764551878566914.0,2.1578762259693178e+17
26.53450209350177,5330232251246798.0,2.434804792359478e+17,3418747381178711.5,6585554222284078.0,31220286722329.504,139874198178537.77,6928759796134397.0,2.2104609110020285e+17
27.165192135371807,5332030297819898.0,2.4902061216769978e+17,3419900627200608.0,6587775731270597.0,31974610183134.656,143254091732520.16,7096241649495683.0,2.264094351599974e+17
27.808495978079243,5333782225331584.0,2.546709980449298e+17,3421024292996437.5,6589940259581034.0,32743969131007.324,146701370881138.06,7267062747220967.0,2.3187974317978774e+17
28.464665897640828,5335489787871616.0,2.604338401493185e+17,3422119503618731.5,6592049974413817.0,33528663360230.684,150217379881531.53,7441289697846816.0,2.3745914514232586e+17
29.133959215593645,5337154669402214.0,2.6631138531134566e+17,3423187339141017.0,6594106956323935.0,34328998624544.72,153803489738917.53,7618990435456339.0,2.4314981342265866e+17
29.816638399905518,5338778487347475.0,2.7230592477652554e+17,3424228836960089.0,6596113203657827.0,35145286754230.883,157461098733165.47,7800234245767195.0,2.489539636173058e+17
30.51297116790363,5340362795974754.0,2.7841979508801642e+17,3425244993964721.5,6598070636731018.0,35977845775503.76,161191632955799.7,7985091792736196.0,2.5487385538987843e+17
31.223230591261704,5341909089581517.0,2.8465537898593178e+17,3426236768579722.5,6599981101765554.0,36827000032252.51,164996546857607.12,8173635145689956.0,2.6091179333342518e+17
31.947695203086937,5343418805500817.0,2.91015106323696e+17,3427205082693607.5,6601846374603333.0,37693080310172.67,168877323807048.5,8365937806990860.0,2.6707012784978982e+17
32.686649107148675,5344893326937284.0,2.97501455001778e+17,3428150823477542.5,6603668164209945.0,38576423963332.164,172835476659664.53,8562074740248143.0,2.7335125604628256e+17
33.44038208929165,5346333985644714.0,3.041169519191587e+17,3429074845102739.5,6605448115982837.0,39477375043213.46,176872548338678.75,8762122399083934.0,2.797576226499624e+17
34.20918973107749,5347742064455447.0,3.108641739428689e+17,3429977970362773.5,6607187814876527.0,40396284430279.414,180990112426997.1,8966158756464258.0,2.8629172093985264e+17
34.993373525699035,5349118799671212.0,3.177457488959668e+17,3430860992207037.5,6608888788356373.0,41333509968104.67,185189773770816.6,9174263334605404.0,2.929560936973875e+17
35.793240996213015,5350465383324166.0,3.247643565643017e+17,3431724675190918.0,6610552509192127.0,42289416600122.34,189473169095052.72,9386517235466060.0,2.997533341754333e+17
36.60910581613728,5351782965316281.0,3.3192272972243814e+17,3432569756848017.0,6612180398101279.0,43264376509031.0,193841967630802.3,9603003171836054.0,3.066860870861969e+17
37.44128793246003,5353072655444912.0,3.392236551791024e+17,3433396948989308.5,6613773826251567.0,44258769258911.93,198297871755063.03,9823805499032474.0,3.1375704960837056e+17
38.29011369110923,5354335525321453.0,3.466699748425315e+17,3434206938933739.0,6615334117631542.0,45272981940103.81,202842617642934.06,1.0049010247214368e+16,3.209689724138472e+17
39.15591596493141,5355572610189817.0,3.542645868061012e+17,3435000390674565.5,6616862551297285.0,46307409316887.37,207477975932527.28,1.0278705154327616e+16,3.28324660714362e+17
40.03903428423004,5356784910650746.0,3.620104464546215e+17,3435777945985344.5,6618360363502847.0,47362453978028.836,212205752402825.72,1.0512979699690954e+16,3.358269753284105e+17
40.93981496991464,5357973394297904.0,3.699105675916898e+17,3436540225469265.0,6619828749721646.0,48438526490235.74,217027788664718.84,1.0751925138235706e+16,3.4347883376881024e+17
41.85861126931294,5359138997270806.0,3.7796802358849837e+17,3437287829555213.0,6621268866565156.0,49536045554576.71,221945962865469.47,1.0995634535410544e+16,3.51283211351276e+17
