t(s),Total solute volume 1,Total retention volume 1,Total 1 volume 1,Total 2 volume 1,Total 3 volume 1,Total 4 volume 1,Total 5 volume 1,Total 6 volume 1
0.1,1225891390677807.5,1918426285810987.5,281662698191601.44,410872196941578.9,0.0,0.0,0.0,0.0
0.202,1820055614659587.2,2914635422829278.0,418178793437867.75,610013501610261.5,25052207443.094154,73212173568.94908,1988852699603.6516,64300396040941.72
0.30604000000000003,2255150924208018.5,3695508083075501.0,518146965706526.4,755840927193854.1,62702192183.18936,183240666020.24478,4978430461932.481,161144892646967.3
0.41216080000000005,2608718744303329.0,4374175008407639.0,599383255550304.2,874343433071657.1,109889300097.84853,321140906213.18823,8725453275882.243,282573092000157.25
0.5204040160000001,2910378795969065.5,4992970218856512.0,668693136143972.2,975448426291962.6,165105001018.85025,482504429658.37683,13110105055262.59,424692145965573.6
0.6308120963200001,3175120898738628.5,5572894083917077.0,729520691669310.6,1064179925330962.1,227425350873.8268,664631178147.4564,18059011899719.547,585121499749432.0
0.7434283382464002,3411787907455134.5,6126108449706919.0,783897670151753.8,1143501719332149.8,296219619515.6128,865677982923.1393,23522088851358.465,762237166314084.1
0.8582969050113283,3626127228252014.5,6660387958939695.0,833144604521069.4,1215340120539903.2,371028796590.2195,1084303509016.6703,29462888784720.008,954857784536381.0
0.9754628431115548,3822133145965407.0,7181058801649695.0,878179227841703.6,1281033861508522.2,451504813297.0124,1319490637122.356,35853775015978.29,1162087795867665.0
1.094972099973786,4002721306126514.0,7691963183731036.0,919671443341222.4,1341560155861366.0,537376335791.4845,1570446498671.9548,42673204595416.336,1383229250972054.2
1.2168715419732616,4170101446188932.5,8195986976568972.0,958128963714662.2,1397659623645663.0,628427848126.0603,1836541348257.6768,49904067140172.72,1617727906683153.0
1.3412089728127268,4325998682180477.5,8695369831641291.0,993948154288351.8,1449910458214735.8,724486047025.483,2117268804119.7095,57532604386798.125,1865138177719778.8
1.4680331522689813,4471792464205629.0,9191897955469376.0,1027445959651302.4,1498774998835090.8,825410559344.7311,2412218721198.4204,65547673046066.555,2125099230450742.5
1.597393815314361,4608607863027759.0,9687029477573372.0,1058880877801615.2,1544630326481522.5,931087362878.8702,2721057964426.866,73940222348530.48,2397318042586638.5
1.729341691620648,4737377811642657.0,1.0181979069707602e+16,1088467260866749.9,1587789124848393.5,1041423976127.1425,3043516351587.629,82702912071029.9,2681557019951061.5
1.863928525453061,4858886886013244.0,1.0677776870037498e+16,1116385374232865.8,1628514353988892.0,1156345849557.9302,3379376107415.396,91829825978252.16,2977624707867275.0
2.001207095962122,4973802927386281.0,1.1175310618787386e+16,1142788662137227.0,1667029848914334.8,1275793598871.4783,3728463778338.6665,101316252128997.36,3285368670843330.0
2.1412312378813647,5082700410021371.0,1.167535648685944e+16,1167809116673765.2,1703528151569233.5,1399720844241.315,4090643918123.1074,111158511303768.62,3604669932528940.0
2.284055862638992,5186078055602782.0,1.2178602086963338e+16,1191561324907594.0,1738176414512987.5,1528092495796.8782,4465814077603.105,121353820868380.39,3935438564498191.5
2.4297369798917723,5284372344646911.0,1.268566395477163e+16,1214145573276867.2,1771120929430348.0,1660883374355.4875,4853900774141.511,131900185259448.6,4277610138009556.0
2.578331719489608,5377968042093875.0,1.3197101038629716e+16,1235650265968985.0,1802490654909849.0,1798077088489.565,5254856210201.47,142796306825093.28,4631142835533230.0
2.7298983538794,5467206510727280.0,1.3713425256325292e+16,1256153835024799.0,1832400002786276.2,1939665110674.5618,5668655573711.401,154041512474240.72,4996015074628311.0
2.884496320956988,5552392359094513.0,1.4235109862008102e+16,1275726267775014.5,1860951066270952.8,2085646010224.1978,6095294796626.361,165635692776020.62,5372223535284755.0
3.0421862473761276,5633798817270781.0,1.4762596154439832e+16,1294430341984081.8,1888235421703626.8,2236024811264.937,6534788678906.6045,177579250988189.38,5759781509002988.0
3.2030299723236504,5711672128141334.0,1.5296298912510388e+16,1312322634797977.5,1914335600343409.0,2390812451570.798,6987169307254.03,189873060094575.12,6158717507374274.0
3.3670905717701234,5786235167726645.0,1.5836610842598256e+16,1329454354555714.2,1939326301764237.5,2550025323601.786,7452484714085.023,202518426370078.72,6569074082143911.0
3.5344323832055258,5857690455185490.0,1.6383906250451816e+16,1345872032372292.8,1963275402693526.5,2713684883178.459,7930797734168.74,215517058316472.8,6990906819266680.0
3.7051210308696363,5926222674837934.0,1.6938544098499762e+16,1361618101602622.8,1986244802298457.8,2881817314294.0283,8422185025327.886,228871040055952.1,7424283477365180.0
3.879223451487029,5992000804444144.0,1.750087057171236e+16,1376731386838127.8,2008291135504155.2,3054453240897.5107,8926736226414.799,242582808454572.28,7869283247004045.0
4.0568079205167695,6055179923085044.0,1.807122124720591e+16,1391247519288221.2,2029466378926604.0,3231627478273.5176,9444553231012.512,256655133390027.62,8325996111806729.0
4.237944078927105,6115902756283712.0,1.8649922941901176e+16,1405199291789772.0,2049818368738636.0,3413378818036.1274,9975749559377.934,271091100688730.22,8794522296022922.0
4.422702960505647,6174301004068665.0,1.9237295296763364e+16,1418616963944978.8,2069391245786238.8,3599749841845.462,10520449814333.26,285894097343814.75,9274971785963504.0
4.61115701971576,6230496488516448.0,1.983365214410575e+16,1431528525782534.2,2088225840201283.2,3790786759819.0537,11078789209335.451,301067798694246.6,9767463914942082.0
4.803380160110075,6284602150211826.0,2.043930269515798e+16,1443959926705856.0,2106360005377070.8,3986539270298.9204,11650913158965.283,316616157299917.8,1.027212700313405e+16
4.9994477633122765,6336722917515528.0,2.1054552577889836e+16,1455935275217384.5,2123828909313870.0,4187060438188.913,12236976923697.762,332543393291573.75,1.0789098045189612e+16
5.199436718578522,6386956468158767.0,2.167970474943133e+16,1467477013903715.2,2140665289876456.2,4392406589525.6035,12837145302124.406,348853986010037.4,1.1318522439590738e+16
5.403425452950093,6435393899214178.0,2.2315060302973024e+16,1478606073369177.8,2156899679342913.8,4602637220311.498,13451592364868.258,365552666778246.8,1.1860553754683318e+16
5.611493962009095,6482120318718989.0,2.2960919185485228e+16,1489342008168038.2,2172560602694225.2,4817814917939.603,14080501225308.28,382644412673416.75,1.2415353527087302e+16
5.823723841249277,6527215369993535.0,2.361758083976104e+16,1499703117272800.8,2187674753345935.0,5038005293786.037,14724063842954.998,400134441186359.44,1.2983091088825674e+16
6.040198318074262,6570753697890377.0,2.428534478200215e+16,1509706551200270.2,2202267149417137.2,5263276925753.165,15382480855919.12,418028205671287.6,1.3563943420041424e+16
6.261002284435747,6612805364735796.0,2.4964511124319304e+16,1519368407578925.0,2216361273138215.8,5493701309717.297,16055961439418.072,436331391503084.44,1.4158095024614158e+16
6.486222330124463,6653436222517989.0,2.5655381050010664e+16,1528703816663482.8,2229979195594244.8,5729352818979.361,16744723187685.287,455049912870456.7,1.4765737826357812e+16
6.715946776726952,6692708246882480.0,2.6358257248249156e+16,1537727018074157.8,2243141688667509.0,5970308670937.981,17448992017002.654,474189910143031.8,1.538707108379407e+16
6.950265712261491,6730679837671144.0,2.707344431379318e+16,1546451429848996.8,2255868325766798.0,6216648900307.602,18169002087876.83,493757747758626.06,1.6022301321759454e+16
7.18927102650672,6767406090056765.0,2.780124911649566e+16,1554889710740175.0,2268177572701379.0,6468456338291.606,18904995744635.87,513760012583852.25,1.6671642278330542e+16
7.433056447036854,6802939039752127.0,2.8541981144689292e+16,1563053816553598.8,2280086869865786.0,6725816597195.19,19657223470941.375,534203512707197.8,1.7335314865742438e+16
7.681717575977592,6837327885292330.0,2.929595282594367e+16,1570955051220856.2,2291612706740394.0,6988818060026.542,20425943859897.625,555095276628731.44,1.8013547144141414e+16
7.935351927497144,6870619189983668.0,3.0063479828201216e+16,1578604113199279.0,2302770689577012.0,7257551874690.766,21211423597601.953,576442552815062.0,1.87065743071539e+16
8.194058966047088,6902857065769705.0,3.0844881343891016e+16,1586011137717322.2,2313575603023809.0,7532111952427.374,22013937459117.98,598252809591854.2,1.9414638678376772e+16
8.45794014536803,6934083340973774.0,3.1640480359270956e+16,1593185735315315.8,2324041466346199.0,7812594970184.985,22833768315975.527,620533735349603.0,2.0137989717999916e+16
8.72709894827539,6964337713628946.0,3.2450603910957544e+16,1600137027074813.5,2334181584817275.0,8099100376661.429,23671207154405.84,643293239041095.4,2.0876884038864316e+16
9.0016409272409,6993657891894051.0,3.327558333135204e+16,1606873676880777.0,2344008596779862.0,8391730401769.719,24526553103610.973,666539450951602.5,2.163158543134038e+16
9.281673745785717,7022079722871663.0,3.4115754484459372e+16,1613403921019020.5,2353534516821447.0,8690590069317.302,25400113473448.99,690280723724910.9,2.240236489647955e+16
9.567307220701432,7049637310987426.0,3.4971457993414292e+16,1619735595375196.5,2362770775450411.5,8995787212710.227,26292203800983.86,714525633630311.2,2.318950068695725e+16
9.85865336511546,7076363126953759.0,3.584303946087422e+16,1625876160470499.0,2371728255616546.5,9307432493515.348,27203147905414.387,739282982057259.9,2.3993278355377216e+16
10.155826432417769,7102288108224254.0,3.6730849683302056e+16,1631832724542181.2,2380417326379532.5,9625639422731.652,28133277950947.812,764561797226018.4,2.4813990809556404e+16
10.458942961066125,7127441751741946.0,3.763524486004812e+16,1637612064853583.8,2388847873994626.0,9950524384639.354,29082934517235.383,790371336103780.1,2.565193837445233e+16
10.768121820287448,7151852199696705.0,3.855658679803971e+16,1643220647397849.0,2397029330655316.0,10282206663109.412,30052466677027.816,816721086517045.5,2.6507428860432636e+16
11.083484256693197,7175546318928504.0,3.949524311279911e+16,1648664645141764.8,2404970701106233.5,10620808470269.271,31042232080748.09,843620769452029.8,2.7380777637619628e+16
11.405153941827061,7198549774545674.0,4.0451587426437496e+16,1653949954940393.8,2412680587317227.0,10966454977432.955,32052597047713.426,871080341535780.5,2.8272307716073332e+16
11.733257020663602,7220887098267359.0,4.142599956320303e+16,1659082213239549.8,2420167211389158.0,11319274348213.062,33083936663767.355,899109997691589.9,2.9182349831603444e+16
12.067922161076874,7242581751946939.0,4.241886574310843e+16,1664066810671024.0,2427438436844490.0,11679397773742.676,34136634885113.15,927720173962918.4,3.0111242537024108e+16
12.409280604298411,7263656186686587.0,4.343057877410893e+16,1668908905634864.8,2434501788440319.5,12046959509942.62,35211084648160.8,956921550500850.5,3.1059332298688252e+16
12.75746621638438,7284131897912595.0,4.446153824326179e+16,1673613436953534.0,2441364470627464.5,12422096916778.213,36307687985225.31,986725054710597.1,3.202697359815552e+16
13.112615540712067,7304029476744319.0,4.551215070725356e+16,1678185135674539.5,2448033384767425.5,12804950499454.943,37426856145932.234,1017141864553167.5,3.301452903886879e+16
13.474867851526309,7323368657957727.0,4.658282988265773e+16,1682628536090612.8,2454515145207924.0,13195663951510.805,38569009724205.01,1048183411998804.2,3.40223694577269e+16
13.844365208556836,7342168364815869.0,4.767399683624252e+16,1686947986040010.8,2460816094308362.0,13594384199766.559,39734578790726.46,1079861386629237.8,3.5050874041458584e+16
14.221252512727972,7360446751012767.0,4.878608017563522e+16,1691147656543615.2,2466942316497845.0,14001261451101.688,40924003030779.06,1112187739386214.1,3.6100430447712904e+16
14.605677562982532,7378221239954947.0,4.991951624061519e+16,1695231550830356.2,2472899651440858.5,14416449241028.125,42137731887384.98,1145174686464117.8,3.7171434930796584e+16
14.997791114242183,7395508561584109.0,5.1074749295296e+16,1699203512797570.8,2478693706378812.5,14840104484037.762,43376224709678.945,1178834713344877.8,3.826429247199687e+16
15.397746936527026,7412324786926111.0,5.2252231721431944e+16,1703067234949095.8,2484329867709540.5,15272387525704.148,44639950906456.445,1213180578973640.0,3.9379416914441304e+16
15.805701875257567,7428685360535579.0,5.34524242130735e+16,1706826265849762.8,2489813311861536.0,15713462196522.34,45929390104853.64,1248225320073942.0,4.0517231102451304e+16
16.221815912762718,7444605130990063.0,5.467579597277929e+16,1710484017131790.5,2495149015514393.5,16163495867473.203,47245032314121.76,1283982255601502.8,4.167816702535991e+16
16.64625223101797,7460098379575036.0,5.5922824909578456e+16,1714043770085478.2,2500341765212952.0,16622659507303.432,48587378094470.97,1320464991335800.0,4.2862665965767304e+16
17.079177275638333,7475178847288599.0,5.7193997838870264e+16,1717508681863880.8,2505396166418243.5,17091127741513.326,49956938730963.28,1357687424609068.2,4.4071178652217896e+16
17.5207608211511,7489859760284363.0,5.848981068443358e+16,1720881791328578.8,2510316652034988.5,17569078913048.244,51354236412445.88,1395663749172300.5,4.530416541628793e+16
17.97117603757412,7504153853860995.0,5.981076868271237e+16,1724166024561551.0,2515107490451958.0,18056695144691.715,52779804415520.53,1434408460198276.2,4.656209635407932e+16
18.430599558325603,7518073395098038.0,6.115738658953455e+16,1727364200066043.2,2519772793128671.0,18554162403160.234,54234187293551.49,1473936359421641.5,4.784545149212343e+16
18.899211549492115,7531630204230034.0,6.253018888941578e+16,1730479033677484.5,2524316521759144.0,19061670564902.44,55717941070722.83,1514262560416332.5,4.915472095769708e+16
19.37719578048196,7544835674842956.0,6.392971000759265e+16,1733513143203891.2,2528742495041037.5,19579413483606.6,57231633441159.67,1555402494010728.8,5.049040515356916e+16
19.864739696091597,7557700792971305.0,6.535649452492405e+16,1736469052813584.8,2533054395076186.0,20107589059422.53,58775843973133.555,1597371913841185.5,5.185301493718933e+16
20.36203449001343,7570236155167179.0,6.681109739579609e+16,1739349197186840.5,2537255773426746.5,20646399309906.23,60351164318379.99,1640186902044544.2,5.324307180434247e+16
20.869275179813698,7582451985608151.0,6.8294084169160184e+16,1742155925446575.0,2541350056849063.0,21196050442696.49,61958198426555.6,1683863875090551.5,5.466110807729665e+16
21.38666068340997,7594358152304948.0,6.980603121283232e+16,1744891504882253.5,2545340552725883.0,21756752929933.977,63597562764874.164,1728419589755155.5,5.610766709746928e+16
21.91439389707817,7605964182465863.0,7.134752594117399e+16,1747558124480053.5,2549230454215901.5,22328721584436.484,65269886542958.48,1773871149235692.8,5.7583303422649e+16
22.452681775019734,7617279277070553.0,7.291916704627914e+16,1750157898271348.0,2553022845138383.5,22912175637643.06,66975811942953.41,1820236009409268.0,5.908858302880895e+16
23.00173541052013,7628312324701804.0,7.452156473278298e+16,1752692868510727.8,2556720704609016.5,23507338819342.83,68715994354947.68,1867531985235552.2,6.06240835165515e+16
23.561770118730532,7639071914680756.0,7.615534095640832e+16,1755165008693959.8,2560326911442332.5,24114439439204.754,70491102617757.17,1915777257305473.2,6.219039432222884e+16
24.133005521105144,7649566349547470.0,7.782112966636494e+16,1757576226425546.8,2563844248334757.0,24733710470125.953,72301819265122.55,1964990378537282.2,6.378811693378474e+16
24.715665631527248,7659803656925999.0,7.951957705171451e+16,1759928366144862.0,2567275405841295.0,25365389633417.543,74148840777383.6,2015190281021610.0,6.541786511136995e+16
25.309978944157795,7669791600810339.0,8.125134179181048e+16,1762223211719234.2,2570622986158171.0,26009719485847.227,76032877838690.02,2066396283017232.2,6.708026511278099e+16
25.91617852304095,7679537692305126.0,8.301709531092672e+16,1764462488911730.8,2573889506722683.0,26666947508560.85,77954655599814.45,2118628096099276.5,6.877595592377967e+16
26.53450209350177,7689049199852628.0,8.481752203718117e+16,1766647867730949.0,2577077403640925.5,27337326197903.203,79914913946638.02,2171905832461831.5,7.050558949335036e+16
27.165192135371807,7698333158975499.0,8.665331966586374e+16,1768780964669506.5,2580189034953176.5,28021113158162.023,81914407774377.14,2226250012376825.2,7.226983097395624e+16
27.808495978079243,7707396381562816.0,8.852519942727925e+16,1770863344837620.5,2583226683746249.5,28718571196259.047,83953907267630.22,2281681571811265.0,7.406935896685749e+16
28.464665897640828,7716245464724972.0,9.043388635921022e+16,1772896523997632.8,2586192561121263.5,29429968418412.242,86034198186316.56,2338221870204959.0,7.59048657725566e+16
29.133959215593645,7724886799241544.0,9.238011958410723e+16,1774881970504989.0,2589088809025093.5,30155578328795.418,88156082157592.45,2395892698410827.0,7.777705764643869e+16
29.816638399905518,7733326577624494.0,9.436465259112024e+16,1776821107160870.8,2591917502952852.0,30895679930221.387,90320376973825.22,2454716286800220.0,7.968665505967768e+16
30.51297116790363,7741570801817814.0,9.638825352306704e+16,1778715312981258.8,2594680654528483.0,31650557826876.277,92527916896709.08,2514715313535356.5,8.163439296548035e+16
31.223230591261704,7749625290553197.0,9.845170546845982e+16,1780565924886992.0,2597380213970116.0,32420502329132.45,94779552967615.33,2575912913011588.0,8.362102107074098e+16
31.947695203086937,7757495686380257.0,1.0055580675868829e+17,1782374239319050.0,2600018072446364.5,33205809560470.113,97076153324264.06,2638332684471625.0,8.564730411318637e+16
32.686649107148675,7765187462388636.0,1.0270137127047256e+17,1784141513783015.5,2602596064329261.5,34006781566536.13,99418603523810.55,2701998700794565.5,8.771402214408699e+16
33.44038208929165,7772705928638169.0,1.0488922873369232e+17,1785868968326490.0,2605115969349439.5,34823726426371.203,101807806872444.38,2766935517462179.5,8.982197081661738e+16
34.20918973107749,7780056238312358.0,1.0712022504470315e+17,1787557786952927.2,2607579514658556.5,35656958365836.414,104244684761597.84,2833168181705129.0,9.197196167994667e+16
34.993373525699035,7787243393609646.0,1.0939522258524805e+17,1789209118975235.8,2609988376803812.5,36506797873270.57,106730177010864.53,2900722241831976.5,9.416482247914285e+16
35.793240996213015,7794272251385825.0,1.117151005470784e+17,1790824080312144.2,2612344183619024.0,37373571817412.26,109265242217728.58,2969623756743621.0,9.640139746098248e+16
36.60910581613728,7801147528560271.0,1.1408075526239098e+17,1792403754730390.8,2614648516036683.0,38257613567617.86,111850858114215.25,3039899305636209.5,9.868254768574538e+16
37.44128793246003,7807873807298046.0,1.1649310054019499e+17,1793949195035344.0,2616902909824712.0,39159263116411.57,114488021930562.81,3111575997895317.0,1.0100915134509445e+17
38.29011369110923,7814455539979034.0,1.1895306800872378e+17,1795461424212739.0,2619108857251997.5,40078867204400.62,117177750766032.72,3184681483184527.0,1.0338210408612515e+17
39.15591596493141,7820897053964785.0,1.2146160746400181e+17,1796941436523897.0,2621267808686013.0,41016779447591.9,119921081966963.2,3259243961731257.0,1.0580231934168094e+17
40.03903428423004,7827202556173007.0,1.2401968722468077e+17,1798390198556770.8,2623381174125995.5,41973360467144.836,122719073512186.66,3335292194813193.5,1.082707286670323e+17
40.93981496991464,7833376137469090.0,1.2662829449326682e+17,1799808650234961.5,2625450324674905.5,42948978021598.836,125572804405921.47,3412855515448396.5,1.1078828208301205e+17
41.85861126931294,7839421776883809.0,1.2928843572384595e+17,1801197705786774.2,2627476593952949.0,43944007141609.66,128483375078260.89,3491963839292203.0,1.133559484257106e+17
42.7957834946992,7845343345665313.0,1.3200113699643062e+17,1802558254676193.2,2629461279455671.0,44958830267235.99,131451907793376.75,3572647675744489.5,1.1597471570282846e+17
