t(s),Total solute volume 1,Total retention volume 1,Total 1 volume 1,Total 2 volume 1,Total 3 volume 1,Total 4 volume 1,Total 5 volume 1,Total 6 volume 1
0.1,1144268928618327.0,1596229672649425.0,193012778181123.2,258947965849975.12,0.0,0.0,0.0,0.0
0.202,1691417744405577.0,2435216195704780.5,285304645124051.6,382767712307533.3,44084928178.60548,113270204234.58748,2539344359438.8857,73029394375763.44
0.30604000000000003,2086080350105143.0,3098765733142226.0,351875470500322.2,472079833426336.8,109828097295.71368,282189692335.1605,6326522712244.691,182011538608548.94
0.41216080000000005,2402280064153801.5,3680453775408808.5,405211346824112.94,543635807135691.7,191612787863.8691,492327428193.9024,11037882659402.941,317604734419740.1
0.5204040160000001,2668411453301606.5,4215071113281912.0,450101807599019.56,603861322393861.4,286637865130.2162,736486669345.9393,16512058808744.543,475161346644202.6
0.6308120963200001,2898929842093401.0,4719807035268296.0,488985145369374.5,656027618216904.4,393172984015.40393,1010221890597.4536,22649378032324.418,651811656681681.9
0.7434283382464002,3102411475308405.0,5204582545947321.0,523307982349862.44,702075498208475.4,510030092798.7416,1310480895521.578,29381408313627.02,845585670778630.1
0.8582969050113283,3284458855996129.0,5675721209735220.0,554015336500998.56,743272808410289.2,636341450346.1471,1635034470483.1216,36658169926749.76,1055044662980215.9
0.9754628431115548,3448982380103806.5,6137544493933836.0,581766804857374.9,780504471141802.6,771447720777.4558,1982188864935.4841,44441688695060.01,1279095512550082.0
1.094972099973786,3598846384156317.0,6593163823226581.0,607045537437997.2,814418685548535.1,914834499355.908,2350622707450.0405,52702339426700.71,1516885419450230.2
1.2168715419732616,3736227396199871.0,7044913071282659.0,630218666232129.9,845507999766500.1,1066093198829.3639,2739286511561.124,61416592734632.27,1767737036639137.8
1.3412089728127268,3862827598986008.5,7494602266966054.0,651573311702344.8,874157617625953.2,1224895418761.1091,3147336823646.955,70565538582658.86,2031105967826685.8
1.4680331522689813,3980009377419727.0,7943675007197657.0,671339277953801.8,900675846729405.9,1390975334884.8884,3574090976726.6294,80133871840343.88,2306551566942765.5
1.597393815314361,4088884049213186.5,8393310634951086.0,689704019626829.0,925314178192194.9,1564117135395.267,4018994811366.9336,90109168572750.0,2593716107399361.5
1.729341691620648,4190372598605116.5,8844493076038553.0,706822886327863.5,948281030678779.5,1744145780367.472,4481598934706.17,100481353761225.53,2892309461950492.5
1.863928525453061,4285248562005918.0,9298058682887958.0,722826356486258.0,969751455421099.4,1930920032226.2822,4961540814479.231,111242299848454.19,3202097548279524.5
2.001207095962122,4374169122359681.5,9754730382384418.0,737825282283234.5,989874172870398.1,2124327087308.687,5458530986728.243,122385517514303.27,3522893429282765.0
2.1412312378813647,4457698172722157.0,1.021514261336026e+16,751914779965756.9,1008776791983215.2,2324278366381.0513,5972342241213.076,133905913212817.72,3854550334868717.5
2.284055862638992,4536323764382573.0,1.067985990584293e+16,765177172957558.4,1026569758730053.0,2530706163285.9404,6502801011616.042,145799596141322.34,4196956106456509.5
2.4297369798917723,4610471537176016.0,1.114939096946494e+16,777684257254834.6,1043349395374047.8,2743560941582.45,7049780430641.932,158063722536829.2,4550028715750989.0
2.578331719489608,4680515216348921.0,1.1624199545486754e+16,789499072014563.5,1059200275910866.0,2962809128985.604,7613194664122.542,170696368647915.12,4913712608771383.0
2.7298983538794,4746784928905551.0,1.2104712884439196e+16,800677302337622.1,1074197108057263.4,3188431300065.425,8192994242689.68,183696426072186.53,5287975693523825.0
2.884496320956988,4809573872928465.0,1.2591328453787874e+16,811268404235175.4,1088406242517811.5,3420420665876.4907,8789162182061.11,197063514774500.06,5672806836483988.0
3.0421862473761276,4869143724805970.0,1.3084419307125826e+16,821316516707977.2,1101886896640065.5,3658781809164.6606,9401710734307.14,210797910251798.53,6068213766176550.0
3.2030299723236504,4925729066686352.0,1.358433842802104e+16,830861208559644.0,1114692156347099.2,3903529618201.473,10030678649473.797,224900482140156.78,6474221306020131.0
3.3670905717701234,4979541044307111.0,1.4091422279117066e+16,839938095391314.9,1126869803904019.2,4154688382854.541,10676128854064.084,239372642167805.8,6890869876109889.0
3.5344323832055258,5030770413748276.0,1.460599372860533e+16,848579353521305.0,1138463007397962.5,4412291024355.523,11338146473055.854,254216299810262.94,7318214216630100.0
3.7051210308696363,5079590098208166.0,1.5128364484123986e+16,856814151256469.0,1149510899336293.5,4676378436148.188,12016837137348.246,269433824344800.12,7756322295404747.0
3.879223451487029,5126157348347081.0,1.5658837133469052e+16,864669013294233.0,1160049065532204.5,4946998917718.112,12712325530138.393,285028012261753.56,8205274369585920.0
4.0568079205167695,5170615579213099.0,1.619770686885954e+16,872168130571229.6,1170109960800861.8,5224207686793.656,13424754134692.033,301002059191132.94,8665162177261730.0
4.237944078927105,5213095941288364.0,1.6745262954584604e+16,879333625263938.4,1179723264487102.8,5508066458027.299,14154282152960.016,317359535659630.7,9136088239274558.0
4.422702960505647,5253718671403156.0,1.7301789985093266e+16,886185778657918.5,1188916186177147.8,5798643078408.621,14901084569994.273,334104366116522.4,9618165255090114.0
4.61115701971576,5292594260189779.0,1.7867568970851104e+16,892743228071388.9,1197713729893358.0,6096011211360.172,15665351343487.018,351240810764877.9,1.011151557937683e+16
4.803380160110075,5329824465700902.0,1.8442878281796916e+16,899023137830123.1,1206138923475947.0,6400250062829.802,16447286701255.191,368773449812981.8,1.0616270768212882e+16
4.9994477633122765,5365503197293882.0,1.9027994472418044e+16,905041348359155.4,1214213018605989.8,6711444143791.251,17247108532315.355,386707169824123.25,1.1132571185658812e+16
5.199436718578522,5399717289522446.0,1.96231930079127e+16,910812506721110.2,1221955665936997.5,7029683064458.018,18065047859487.902,405047151894350.5,1.1660565662913848e+16
5.403425452950093,5432547182304898.0,2.0228748907319924e+16,916350181345506.4,1229385069016977.2,7355061356244.779,18901348383344.14,423798861429828.44,1.220041120348314e+16
5.611493962009095,5464067520857854.0,2.0844937316652936e+16,921666963224252.2,1236518120053350.2,7687678318112.116,19756266088855.2,442968039330044.75,1.2752272728780464e+16
5.823723841249277,5494347686638866.0,2.1472034022790804e+16,926774555469896.8,1243370520065263.2,8027637884426.915,20630068907376.72,462560694411759.06,1.3316322859413218e+16
6.040198318074262,5523452268720303.0,2.2110315917057476e+16,931683852825935.9,1249956885555433.5,8375048511884.786,21523036427668.164,482583096932402.94,1.3892741728083832e+16
6.261002284435747,5551441483527950.0,2.2760061415931516e+16,936405012467408.6,1256290843496986.8,8730023083386.772,22435459650534.01,503041773091590.2,1.4481716820613676e+16
6.486222330124463,5578371549656238.0,2.342155084512904e+16,940947517223901.8,1262385116154082.5,9092678827053.248,23367640782420.508,523943500406118.75,1.5083442842079198e+16
6.715946776726952,5604295023462510.0,2.409506679231238e+16,945320232186864.1,1268251597026912.2,9463137248803.62,24319893063933.812,545295303868035.4,1.5698121605455322e+16
6.950265712261491,5629261100305989.0,2.478089443287092e+16,949531455521931.9,1273901419022018.2,9841524077138.238,25292540629777.87,567104452807252.9,1.632596194050683e+16
7.18927102650672,5653315885598606.0,2.5479321832547748e+16,953588964189193.1,1279345015791108.0,10227969218936.053,26285918397068.844,589378458390482.4,1.6967179620962322e+16
7.433056447036854,5676502639250800.0,2.6190640230132332e+16,957500055175763.9,1284592177049086.5,10622606725233.402,27300371979367.67,612125071696919.0,1.762199730825516e+16
7.681717575977592,5698861996603173.0,2.6915144302977216e+16,961271582762063.5,1289652098570904.2,11025574766078.262,28336257624110.3,635352282318627.6,1.829064451033231e+16
7.935351927497144,5720432168520370.0,2.7653132417707456e+16,964909992273207.4,1294533427472765.2,11437015613666.83,29393942171398.395,659068317439968.9,1.897335755421606e+16
8.194058966047088,5741249122970985.0,2.8404906868168156e+16,968421350707512.0,1299244303303658.5,11857075633065.275,30473803032364.574,683281641356050.1,1.9670379571164508e+16
8.45794014536803,5761346750118162.0,2.9170774102381388e+16,971811374583616.0,1303792395405347.8,12285905279903.111,31576228185537.914,708000955394889.9,2.038196049341389e+16
8.72709894827539,5780757012689628.0,2.9951044940050012e+16,975085455304562.8,1308184936941089.0,12723659104497.637,32701616189825.895,733235198212262.5,2.110835706160813e+16
9.0016409272409,5799510083176886.0,3.0746034781951184e+16,978248682300271.9,1312428755943815.0,13170495761931.328,33850376212886.805,758993546431793.6,2.1849832842123548e+16
9.281673745785717,5817634469224886.0,3.155606381239296e+16,981305864177978.1,1316530303691793.0,13626578027660.303,35022928073813.69,785285415606073.8,2.2606658253590748e+16
9.567307220701432,5835157128411013.0,3.2381457195765588e+16,984261548082912.4,1320495680683098.0,14092072818279.982,36219702299172.09,812120461477334.4,2.337911060199378e+16
9.85865336511546,5852103573471882.0,3.3222545268094452e+16,987120037447733.6,1324330660448462.5,14567151217115.846,37441140191545.195,839508581518744.4,2.416747412379895e+16
10.155826432417769,5868497968914894.0,3.407966372439878e+16,989885408288726.1,1328040711414411.5,15051988504346.742,38687693909834.266,867459916739435.9,2.4972040036627164e+16
10.458942961066125,5884363219844692.0,3.49531538025663e+16,992561524188887.4,1331631017004733.5,15546764191398.64,39959826560651.625,895984853738430.4,2.5793106597037504e+16
10.768121820287448,5899721053743624.0,3.584336246437849e+16,995152050092462.5,1335106494147362.8,16051662059378.035,41258012300213.19,925094026994153.9,2.6630979165041292e+16
11.083484256693197,5914592095863587.0,3.6750642574251064e+16,997660465021851.5,1338471810335545.5,16566870201339.209,42582736446208.89,954798321377895.8,2.7485970275004668e+16
11.405153941827061,5928995938816008.0,3.767535307619667e+16,1000090073815943.6,1341731399376073.5,17092581068203.072,43934495599187.016,985108874880766.1,2.8358399712640564e+16
11.733257020663602,5942951206885368.0,3.861785916946441e+16,1002444017978345.9,1344889475943425.2,17628991518165.164,45313797773041.57,1016037081544998.0,2.924859459782107e+16
12.067922161076874,5956475615536154.0,3.9578532483266744e+16,1004725285714888.8,1347950049046139.5,18176302869449.875,46721162534239.92,1047594594591392.5,3.0156889472974576e+16
12.409280604298411,5969586026535056.0,4.0557751250967e+16,1006936721231541.2,1350916934501038.0,18734720956283.152,48157121149467.875,1079793329735811.5,3.108362639685782e+16
12.75746621638438,5982298499068387.0,4.155590048406168e+16,1009081033356750.5,1353793766501024.2,19304456187971.63,49622216741411.88,1112645468688278.8,3.2029155043518016e+16
13.112615540712067,5994628337195613.0,4.257337214626931e+16,1011160803545834.2,1356584008353876.5,19885723610988.492,51117004452428.22,1146163462829221.0,3.299383280628136e+16
13.474867851526309,6006590133947742.0,4.361056532800266e+16,1013178493319378.2,1359290962461659.0,20478742973979.6,52642051615880.61,1180360037057893.2,3.3978024906626064e+16
13.844365208556836,6018197812348552.0,4.466788642148699e+16,1015136451182606.8,1361917779603846.5,21083738795611.87,54197937934957.42,1215248193808792.8,3.498210450781258e+16
14.221252512727972,6029464663610564.0,4.5745749296759384e+16,1017036919068206.6,1364467467581064.8,21700940435198.74,55785255668803.03,1250841217232337.8,3.6006452833163284e+16
14.605677562982532,6040403382734018.0,4.684457547877123e+16,1018882038341086.4,1366942899271146.0,22330582166042.734,57404609825820.95,1287152677536666.8,3.705145928889644e+16
14.997791114242183,6051026101715709.0,4.796479432579586e+16,1020673855399959.8,1369346820144276.2,22972903251446.39,59056618364027.74,1324196435487805.5,3.81175215914327e+16
15.397746936527026,6061344420555906.0,4.910684320933596e+16,1022414326907528.9,1371681855279855.8,23628148023347.945,60741912398354.74,1361986647065978.2,3.920504589910495e+16
15.805701875257567,6071369436234305.0,5.027116769570454e+16,1024105324678081.2,1373950515923773.0,24296565963545.45,62461136414813.25,1400537768276106.5,4.0314446948213976e+16
16.221815912762718,6081111769810903.0,5.145822172945071e+16,1025748640248821.6,1376155205621307.8,24978411787478.883,64214948491452.086,1439864560110959.2,4.14461481933798e+16
16.64625223101797,6090581591794118.0,5.2668467818784504e+16,1027345989158886.9,1378298225957948.5,25673945530545.566,66004020526053.68,1479982093665790.0,4.2600581952151304e+16
17.079177275638333,6099788645905554.0,5.390237722315453e+16,1028899014957952.5,1380381781937354.8,26383432636929.15,67829038470527.2,1520905755403433.5,4.377818955384284e+16
17.5207608211511,6108742271360479.0,5.5160430143114776e+16,1030409292964448.9,1382407987023429.5,27107144050926.3,69690702571967.66,1562651252569327.8,4.497942149257416e+16
17.97117603757412,6117451423772376.0,5.644311591262113e+16,1031878333791697.9,1384378867871019.5,27845356310761.027,71589727620363.2,1605234618755977.5,4.620473758449884e+16
18.430599558325603,6125924694781186.0,5.775093319388331e+16,1033307586658756.6,1386296368767761.0,28598351644878.45,73526843202943.47,1648672219616739.8,4.745460712921116e+16
18.899211549492115,6134170330496329.0,5.908439017489803e+16,1034698442501346.1,1388162355807786.8,29366418070715.855,75502793965170.45,1692980758728969.2,4.872950907532768e+16
19.37719578048196,6142196248838609.0,6.0444004769781944e+16,1036052236897057.0,1389978620816138.2,30149849495949.137,77518339878380.81,1738177283606820.0,5.002993219024903e+16
19.864739696091597,6150010055857719.0,6.18303048220208e+16,1037370252817734.0,1391746885041451.5,30948945822219.305,79574256514100.81,1784279191864063.2,5.13563752341035e+16
20.36203449001343,6157619061096491.0,6.324382831074604e+16,1038653723221101.8,1393468802632878.0,31764013051343.723,81671335325061.66,1831304237527655.0,5.270934713789135e+16
20.869275179813698,6165030292066864.0,6.468512356014805e+16,1039903833492522.8,1395145963916010.0,32595363394020.805,83810383932944.88,1879270537502743.5,5.408936718584301e+16
21.38666068340997,6172250507898094.0,6.615474945213284e+16,1041121723747156.0,1396779898481426.8,33443315381038.832,85992226422903.25,1928196578190098.8,5.5496965202012184e+16
21.91439389707817,6179286212212279.0,6.765327564232306e+16,1042308491001778.9,1398372078098486.5,34308193977002.844,88217703644904.27,1978101222257070.5,5.6932681741131416e+16
22.452681775019734,6186143665279005.0,6.9181282779509096e+16,1043465191224985.8,1399923919465842.8,35190330696594.14,90487673521944.6,2029003715563235.2,5.8397068283757496e+16
23.00173541052013,6192828895495833.0,7.0739362728647464e+16,1044592841273711.9,1401436786809570.2,36090063723380.02,92803011365204.08,2080923694242151.8,5.989068743573759e+16
23.561770118730532,6199347710239085.0,7.232811879750421e+16,1045692420723516.4,1402911994338620.8,37007738031193.33,95164610196194.78,2133881191940646.0,6.1414113132035e+16
24.133005521105144,6205705706125124.0,7.394816596704288e+16,1046764873599425.1,1404350808566995.0,37943705508102.72,97573381075979.56,2187896647217257.0,6.296793084495023e+16
24.715665631527248,6211908278719942.0,7.560013112565162e+16,1047811110013724.2,1405754450510997.8,38898325082995.92,100030253441536.19,2242990911101513.8,6.455273779678084e+16
25.309978944157795,6217960631731661.0,7.728465330730082e+16,1048832007716535.1,1407124097769510.0,39871962854801.71,102536175449340.95,2299185254815881.0,6.616914317696294e+16
25.91617852304095,6223867785718658.0,7.900238393373438e+16,1049828413564683.2,1408460886494639.2,40864992224373.77,105092114326263.94,2356501377662269.0,6.781776836374354e+16
26.53450209350177,6229634586343106.0,8.075398706077866e+16,1050801144913882.0,1409765913259486.8,41877794029067.27,107699056727855.56,2414961415075137.5,6.94992471504301e+16
27.165192135371807,6235265712197985.0,8.25401396288663e+16,1051750990938975.8,1411040236829412.2,42910756680033.07,110358009104123.64,2474587946843223.0,7.121422597627274e+16
27.808495978079243,6240765682233467.0,8.436153171787003e+16,1052678713886619.5,1412284879842618.0,43964276302262.18,113069998072893.28,2535404005502207.0,7.296336416202992e+16
28.464665897640828,6246138862807096.0,8.621886680633318e+16,1053585050264464.4,1413500830405586.0,45038756877409.12,115836070800852.22,2597433084900515.0,7.474733415027707e+16
29.133959215593645,6251389474379856.0,8.811286203519438e+16,1054470711970651.1,1414689043608434.2,46134610389429.62,118657295392384.61,2660699148940576.5,7.656682175051312e+16
29.816638399905518,6256521597879594.0,9.004424847609774e+16,1055336387367182.1,1415850442964927.2,47252256973060.91,121534761286299.8,2725226640498170.5,7.842252638912858e+16
30.51297116790363,6261539180751078.0,9.201377140437582e+16,1056182742300418.1,1416985921781626.5,48392125065184.08,124469579660570.1,2791040490522151.5,8.031516136429472e+16
31.223230591261704,6266446042711104.0,9.40221905768063e+16,1057010421071855.8,1418096344460263.8,49554651559099.96,127462883845189.31,2858166127317331.5,8.224545410584155e+16
31.947695203086937,6271245881225785.0,9.607028051422782e+16,1057820047361994.4,1419182547737220.0,50740281961757.17,130515829743270.47,2926629486013137.5,8.421414644018475e+16
32.686649107148675,6275942276725621.0,9.815883078910936e+16,1058612225110044.6,1420245341863758.2,51949470553966.85,133629596260504.34,2996457018220774.0,8.622199486037472e+16
33.44038208929165,6280538697573902.0,1.0028864631816958e+17,1059387539351946.6,1421285511730319.0,53182680553644.27,136805385743104.31,3067675701881797.5,8.826977080133517e+16
34.20918973107749,6285038504801774.0,1.0246054766013507e+17,1060146557019097.9,1422303817938077.0,54440384282114.875,140044424424360.75,3140313051310923.5,9.035826092035856e+16
34.993373525699035,6289444956623395.0,1.0467537131873093e+17,1060889827699946.8,1423300997820759.0,55723063333523.74,143347962879938.44,3214397127436017.5,9.248826738293731e+16
35.793240996213015,6293761212743383.0,1.0693397005100531e+17,1061617884366570.6,1424277766419349.2,57031208747389.95,146717276492051.16,3289956548238448.0,9.466060815399808e+16
36.60910581613728,6297990338467916.0,1.0923721318106854e+17,1062331244068125.2,1425234817412499.0,58365321184344.79,150153665922647.28,3367020499396731.5,9.687611729461634e+16
37.44128793246003,6302135308630384.0,1.1158598691935768e+17,1063030408593011.9,1426172824004861.2,59725911105096.875,153658457595743.7,3445618745136702.0,9.91356452642918e+16
38.29011369110923,6306199011341673.0,1.1398119468750686e+17,1063715865101467.5,1427092439775786.0,61113498952665.94,157233004189057.2,3525781639291540.5,1.0144005922885469e+17
39.15591596493141,6310184251574382.0,1.1642375744893011e+17,1064388086730147.4,1427994299490446.2,62528615337926.17,160878685135068.03,3607540136574737.0,1.0379024337408742e+17
40.03903428423004,6314093754590225.0,1.1891461404520741e+17,1065047533170248.5,1428879019875438.0,63971801228505.66,164596907131672.94,3690925804069634.0,1.0618709922514189e+17
40.93981496991464,6317930169218698.0,1.2145472153837229e+17,1065694651220545.0,1429747200360742.2,65443608141081.15,168389104662568.5,3775970832938678.0,1.0863154597182992e+17
41.85861126931294,6321696070994955.0,1.2404505555919482e+17,1066329875316687.6,1430599423789857.0,66944598337116.945,172256740527523.06,3862708050356102.0,1.1112452079987267e+17
42.7957834946992,6325393965164543.0,1.2668661066156581e+17,1066953628038020.1,1431436257099716.5,68475345022087.766,176201306382694.1,3951170931667442.5,1.136669792281911e+17
