t(s),Total solute volume 1,Total retention volume 1,Total 1 volume 1,Total 2 volume 1,Total 3 volume 1,Total 4 volume 1,Total 5 volume 1,Total 6 volume 1
0.1,858476762157242.6,970941579421749.6,55300119698977.766,57164697565528.79,0.0,0.0,0.0,0.0
0.202,1215677513619923.2,1529675647789071.5,78309763398922.06,80950167607144.52,357256814781.2805,614862024549.7882,7556934102314.223,146209150221437.84
0.30604000000000003,1442922296737106.8,2002874412907529.5,92948090613382.73,96082061704480.3,856302871150.2062,1474031068444.4585,18116780932473.35,350474848980493.5
0.41216080000000005,1605801317334108.0,2441432592106433.0,103440196822085.5,106927934848129.92,1443349367357.8157,2485045809998.5103,30543228829410.81,590791519095343.1
0.5204040160000001,1729857661989467.8,2863403446410030.0,111431479796933.05,115188663410962.36,2093361699434.7478,3604894477976.2515,44307703573385.8,856919681461871.0
0.6308120963200001,1828044576491325.0,3277349695859593.0,117756343072443.12,121726784875415.05,2792272040396.8623,4809423828307.281,59113399027800.46,1143106896523900.2
0.7434283382464002,1907899627843853.2,3688039161539748.0,122900330785570.94,127044214681332.67,3531394251629.608,6083735087591.248,74777244811079.27,1445802614078688.2
0.8582969050113283,1974199635253964.0,4098420673969544.5,127171149197193.3,131459034155368.31,4305052331501.2544,7418106259170.281,91179792584660.19,1762687904187685.2
0.9754628431115548,2030154854860449.2,4510462706712830.0,130775591964380.28,135185009506253.47,5109397875326.497,8805959001986.135,108240229728871.1,2092191663775561.0
1.094972099973786,2078018131655146.8,4925559906023875.0,133858779611658.89,138372154350384.22,5941757748305.919,10242737178223.135,125902597173763.22,2433223748306374.5
1.2168715419732616,2119424269747313.8,5344749803025478.0,136526020595991.27,141129327875823.5,6800248075710.962,11725243294037.44,144127634585106.03,2785017058851493.5
1.3412089728127268,2155591887402720.5,5768836928740214.0,138855814114002.25,143537676070821.53,7683533588378.824,13251224848400.906,162887696830740.03,3147029095885148.5
1.4680331522689813,2187449716774270.2,6198468012104780.0,140907985896143.6,145659041836080.56,8590671356161.6875,14819105766247.938,182163453477967.72,3518878036997917.0
1.597393815314361,2215718895485462.0,6634179660313387.0,142728989147418.0,147541444659598.25,9521005925536.111,16427806207638.498,201941674398234.25,3900299844489501.5
1.729341691620648,2240968396277484.2,7076429750257659.0,144355475134559.22,149222771594885.62,10474097005606.625,18076618335664.453,222213703083749.03,4291118688825711.0
1.863928525453061,2263653417348426.0,7525618761991579.0,145816766159620.7,150733333616879.56,11449668434422.969,19765118671259.953,242974379604290.78,4691226078156674.0
2.001207095962122,2284142609915840.0,7982104676489515.0,147136609465892.1,152097678665066.6,12447571440638.668,21493105026778.48,264221265629465.56,5100565836345826.0
2.1412312378813647,2302737789098696.5,8446213628018676.0,148334446945111.16,153335904161965.34,13467757734726.137,23260550341194.168,285954077167802.75,5519123102569184.0
2.284055862638992,2319688461697100.5,8918247681090733.0,149426350967049.8,154464624396486.72,14510259497879.871,25067568376850.406,308174263082558.94,5946916153072814.0
2.4297369798917723,2335202705038409.5,9398490614369048.0,150425725157366.75,155497694930216.06,15575174298861.84,26914387891711.54,330884687771378.9,6383990239281111.0
2.578331719489608,2349455429446709.5,9887212294677410.0,151343836637460.12,156446762783032.28,16662653588278.281,28801332965619.316,354089389479807.94,6830412889776500.0
2.7298983538794,2362594733832255.5,1.0384672035379066e+16,152190225429681.1,157321689642410.28,17772893827462.953,30728807859914.016,377793394331868.0,7286270290455467.0
2.884496320956988,2374746850989808.5,1.089112121116339e+16,152973023016440.25,158130881163529.3,18906129583006.53,32697285260587.426,402002571946933.44,7751664469203065.0
3.0421862473761276,2386020035975993.0,1.140680532039397e+16,153699202816098.94,158881545890563.94,20062628105287.74,34707297077150.426,426723522469572.06,8226711088059300.0
3.2030299723236504,2396507652807328.0,1.1931965631567712e+16,154374779017438.1,159579900795347.8,21242685039585.426,36759427193267.99,451963487590267.5,8711537699124494.0
3.3670905717701234,2406290646361683.0,1.2466840512896302e+16,155004965811049.28,160231335877632.47,22446621010222.5,38854305723155.59,477730280076008.7,9206282358036544.0
3.5344323832055258,2415439538021361.0,1.3011666517790306e+16,155594305941795.3,160840547052011.88,23674778883896.906,40992604440689.25,504032227717897.1,9711092515732678.0
3.7051210308696363,2424016048932038.5,1.3566679280416014e+16,156146775273567.9,161411644238333.38,24927521565923.062,43175033129956.39,530878128607958.0,1.0226124128668242e+16
3.879223451487029,2432074429581613.0,1.4132114262109388e+16,156665868436183.56,161948239896388.88,26205230217943.06,45402336665872.766,558277215393426.2,1.0751540941917956e+16
4.0568079205167695,2439662555912325.0,1.4708207379683046e+16,157154669433154.56,162453522014398.44,27508302811449.305,47675292677816.14,586239126701539.5,1.1287513910132356e+16
4.237944078927105,2446822838449166.5,1.5295195539474316e+16,157615910204613.97,162930314646528.1,28837152950729.523,49994709682360.26,614773884335099.0,1.1834220729205822e+16
4.422702960505647,2453592980629663.5,1.589331709562975e+16,158052019476314.53,163381128408947.5,30192208913377.574,52361425596185.336,643891875146150.6,1.2391845457459094e+16
4.61115701971576,2460006614724706.5,1.6502812247090902e+16,158465163723456.3,163808202824860.88,31573912867570.312,54776306559253.97,673603836728884.6,1.2960578209662168e+16
4.803380160110075,2466093837787420.5,1.7123923384685364e+16,158857281694672.1,164213542012545.72,32982720233786.5,57240246012922.2,703920846251996.9,1.3540614910692024e+16
4.9994477633122765,2471881665484807.0,1.775689539737993e+16,159230113646301.3,164598944905333.62,34419099165193.35,59754163988922.79,734854311889222.5,1.4132157098300172e+16
5.199436718578522,2477394418112377.0,1.840197594493936e+16,159585226208123.75,164966030955754.5,35883530126021.23,62319006573924.555,766415966414610.1,1.4735411766548592e+16
5.403425452950093,2482654050315065.0,1.905941570282242e+16,159924033622845.03,165316262091161.25,37376505551238.08,64935745521243.016,798617862613395.4,1.5350591243107496e+16
5.611493962009095,2487680433853327.0,1.9729468584037496e+16,160247815960919.06,165650961542709.88,38898529573976.65,67605377986688.234,831472370226006.0,1.5977913094893926e+16
5.823723841249277,2492491601024667.5,2.0412391941806784e+16,160557734800922.5,165971330054437.88,40450117809666.234,70328926369836.25,864992174195460.5,1.6617600057551772e+16
6.040198318074262,2497103954973622.5,2.110844675618907e+16,160854846777003.22,166278459887493.8,42031797187802.09,73107438245433.64,899190274030597.1,1.7269879985087102e+16
6.261002284435747,2501532452020756.5,2.1817897807257508e+16,161140115323884.56,166573346961157.22,43644105823880.414,75941986372394.0,934079984131313.2,1.793498581662417e+16
6.486222330124463,2505790760253090.0,2.254101383697861e+16,161414420892717.22,166856901413140.5,45287592925311.39,78833668770058.23,969674934949233.8,1.861315555777504e+16
6.715946776726952,2509891397899636.0,2.327806770157519e+16,161678569864754.72,167129956813811.12,46962818726156.98,81783608853190.62,1005989074879367.6,1.930463227453831e+16
6.950265712261491,2513845854431180.5,2.4029336515864344e+16,161933302352181.94,167393278230045.94,48670354446386.95,84792955618640.05,1043036672796169.2,2.0009664097989724e+16
7.18927102650672,2517664696845518.5,2.479510179081549e+16,162179299044649.97,167647569302610.44,50410782272030.87,87862883877787.75,1080832321162251.4,2.0728504238310636e+16
7.433056447036854,2521357663207412.5,2.557564956537979e+16,162417187234791.62,167893478474842.25,52184695353172.76,90994594529897.67,1119390939649970.1,2.1461411006929704e+16
7.681717575977592,2524933745189020.0,2.637127053347441e+16,162647546135201.5,168131604488904.06,53992697817196.73,94189314872274.34,1158727779226148.5,2.2208647845745628e+16
7.935351927497144,2528401261089293.5,2.718226016687167e+16,162870911582082.06,168362501248024.22,55835404795072.28,97448298943826.52,1198858426658385.5,2.297048336255498e+16
8.194058966047088,2531767920587977.0,2.8008918834629876e+16,163087780206483.78,168586682128384.4,57713442458789.3,100772827899175.3,1239798809408375.8,2.3747191371940644e+16
8.45794014536803,2535040882305062.0,2.885155191960534e+16,163298613142082.2,168804623811908.84,59627448068313.47,104164210410921.56,1281565200883307.0,2.4539050940983736e+16
8.72709894827539,2538226805080749.0,2.9710469932508984e+16,163503839328457.34,169016769700923.94,61578070026650.62,107623783098068.73,1324174226021235.2,2.53463464392529e+16
9.0016409272409,2541331893760893.5,3.05859886239006e+16,163703858460437.75,169223532966946.47,63565967941795.695,111152910978939.42,1367642867190480.0,2.6169367592601076e+16
9.281673745785717,2544361940163034.5,3.1478429094458404e+16,163899043626985.16,169425299278544.16,65591812694488.15,114752987947183.31,1411988470386374.8,2.700840954036183e+16
9.567307220701432,2547322359805005.0,3.2388117903813076e+16,164089743677130.7,169622429247046.5,67656286510831.37,118425437269725.28,1457228751711733.0,2.7863772895591596e+16
9.85865336511546,2550218224899682.5,3.331538717819196e+16,164276285345380.0,169815260623611.6,69760083038932.836,122171712105689.06,1503381804129757.0,2.873576380804893e+16
10.155826432417769,2553054294052148.5,3.426057471708686e+16,164458975164705.22,170004110276719.62,71903907428820.1,125993296045515.33,1550466104480413.8,2.962469402963853e+16
10.458942961066125,2555835039038601.0,3.522402409912474e+16,164638101191545.88,170189275975337.56,74088476414954.89,129891703669627.06,1598500520752800.5,3.0530880982081892e+16
10.768121820287448,2558564668997353.0,3.620608478729583e+16,164813934564114.34,170371037999765.28,76314518400739.17,133868481126128.05,1647504319608030.8,3.1454647826599764e+16
11.083484256693197,2561247152320460.0,3.720711223367082e+16,164986730912576.28,170549660599364.25,78582773544454.12,137925206727128.08,1697497174148105.0,3.2396323535418724e+16
11.405153941827061,2563886236498409.5,3.8227467983715864e+16,165156731637377.75,170725393313987.56,80893993846118.48,142063491563377.16,1748499171927701.8,3.335624296492886e+16
11.733257020663602,2566485466139326.0,3.926751978030055e+16,165324165069982.25,170898472173851.06,83248943234796.2,146284980136983.0,1800530823206695.8,3.4334746930338884e+16
12.067922161076874,2569048199357243.0,4.0327641667474536e+16,165489247528544.25,171069120790804.56,85648397655903.66,150591351012045.4,1853613069442242.0,3.5332182281687724e+16
12.409280604298411,2571577622700860.5,4.1408214094075336e+16,165652184279570.44,171237551352417.9,88093145158100.52,154984317483112.16,1907767292019896.8,3.634890198108136e+16
12.75746621638438,2574076764773968.0,4.2509624017219816e+16,165813170415298.1,171403965528939.56,90583985979367.47,159465628261415.0,1963015321224158.5,3.7385265181036696e+16
13.112615540712067,2576548508681212.5,4.363226500571615e+16,165972391655413.1,171568555302048.03,93121732631888.56,164037068178888.78,2019379445449253.5,3.84416373038175e+16
13.474867851526309,2578995603417667.0,4.4776537343427144e+16,166130025080720.38,171731503723261.0,95707209985372.94,168700458910025.3,2076882420651702.5,3.951839012165836e+16
13.844365208556836,2581420674307139.0,4.594284813260403e+16,166286239805550.1,171892985609011.34,98341255348456.52,173457659711648.1,2135547480046597.2,4.06159018377758e+16
14.221252512727972,2583826232582773.5,4.713161139720276e+16,166441197594903.03,172053168178602.28,101024718547840.7,178310568180734.28,2195398344050086.5,4.173455716806779e+16
14.605677562982532,2586214684192896.5,4.834324818618402e+16,166595053431694.34,172212211640576.97,103758462004821.58,183261121030432.6,2256459230470885.5,4.287474742341278e+16
14.997791114242183,2588588337906416.5,4.9578186676796536e+16,166747956038874.8,172370269732443.47,106543360808872.53,188311294884464.56,2318754864954129.5,4.403687059247139e+16
15.397746936527026,2590949412783876.0,5.083686227783019e+16,166900048360693.34,172527490218165.3,109380302787945.69,193463107090114.88,2382310491681104.0,4.522133142490827e+16
15.805701875257567,2593300045073575.0,5.211971773282255e+16,167051468006914.4,172684015347357.6,112270188575154.77,198718616550040.72,2447151884328860.0,4.6428541514940504e+16
16.221815912762718,2595642294585609.0,5.342720322319672e+16,167202347663421.44,172839982279731.5,115213931671504.73,204079924573158.66,2513305357293917.5,4.765891938512949e+16
16.64625223101797,2597978150591814.5,5.475977647130029e+16,167352815472262.47,172995523477956.94,118212458504330.22,209549175744878.84,2580797777184629.5,4.891289057032426e+16
17.079177275638333,2600309537294084.5,5.611790284330967e+16,167502995383904.53,173150767071793.97,121266708481103.3,215128558816977.6,2649656574587011.0,5.0190887701674744e+16
17.5207608211511,2602638318899854.5,5.75020554519631e+16,167653007484177.78,173305837196061.34,124377634038263.12,220820307617420.5,2719909756109177.5,5.1493350590618216e+16
17.97117603757412,2604966304339344.0,5.891271525907308e+16,167802968298145.6,173460854304747.47,127546200684724.45,226626701980463.7,2791585916709480.0,5.282072631275606e+16
18.430599558325603,2607295251655975.0,6.0350371177769256e+16,167952991072916.66,173615935463365.1,130773387039704.27,232550068697366.28,2864714252314307.5,5.417346929152561e+16
18.899211549492115,2609626872098187.0,6.1815520174417336e+16,168103186041228.9,173771194621418.72,134060184864512.86,238592782488078.34,2939324572730944.5,5.555204138157302e+16
19.37719578048196,2611962833938411.5,6.330866737015053e+16,168253660667455.25,173926742866704.16,137407599087938.22,244757266994271.1,3015447314861826.0,5.695691195173388e+16
19.864739696091597,2614304766042293.5,6.4830326141949384e+16,168404519877516.84,174082688662975.44,140816647824854.84,251045995794084.5,3093113556226159.0,5.83885579675214e+16
20.36203449001343,2616654261209279.0,6.638101822319994e+16,168555866274074.7,174239138072394.1,144288362387669.38,257461493438999.8,3172355028795620.0,5.984746407302205e+16
20.869275179813698,2619012879303727.0,6.796127380365255e+16,168707800338224.75,174396194964021.72,147823787290228.16,264006336513231.47,3253204133150623.5,6.133412267209249e+16
21.38666068340997,2621382150193803.0,6.957163162870177e+16,168860420618811.97,174553961209517.22,151423980243765.72,270683154716065.94,3335693952963996.0,6.2849034008755736e+16
21.91439389707817,2623763576514152.0,7.121263909790099e+16,169013823910392.3,174712536867101.66,155090012144520.8,277494631967568.25,3419858269819347.0,6.439270624667796e+16
22.452681775019734,2626158636266739.5,7.28848523626228e+16,169168105420766.88,174872020354739.88,158822967052577.47,284443507538101.25,3505731578371139.0,6.596565554761891e+16
23.00173541052013,2628568785272895.0,7.458883642276605e+16,169323358928937.97,175032508613421.56,162623942161526.12,291532577202107.2,3593349101854005.0,6.756840614873308e+16
23.561770118730532,2630995459488761.5,7.632516522240963e+16,169479676934262.72,175194097261346.03,166494047758502.2,298764694416608.44,3682746807949154.0,6.920149043860092e+16
24.133005521105144,2633440077195123.0,7.80944217443087e+16,169637150797507.72,175356880739730.5,170434407174171.3,306142771524895.44,3773961425015375.5,7.086544903186182e+16
24.715665631527248,2635904041071535.0,7.98971981031192e+16,169795870874466.78,175520952450934.6,174446156722202.3,313669780985887.7,3867030458692968.5,7.25608308423213e+16
25.309978944157795,2638388740164243.5,8.173409563723253e+16,169955926642719.75,175686404889493.97,178530445627771.22,321348756629641.2,3961992208888660.0,7.428819315438989e+16
25.91617852304095,2640895551756107.0,8.360572499910203e+16,170117406822092.25,175853329766638.62,182688435944626.84,329182794939506.44,4058885787150058.5,7.604810169272298e+16
26.53450209350177,2643425843146561.0,8.551270624392888e+16,170280399489308.28,176021818128814.72,186921302460243.12,337175056361447.1,4157751134438036.0,7.784113068990438e+16
27.165192135371807,2645980973348503.0,8.745566891657496e+16,170444992187305.3,176191960470683.72,191230232588567.38,345328766641008.0,4258629039306050.0,7.966786295203269e+16
27.808495978079243,2648562294709004.5,8.943525213656418e+16,170611272029629.3,176363846843036.34,195616426249865.8,353647218188468.6,4361561156495324.0,8.15288899220489e+16
28.464665897640828,2651171154459632.0,9.145210468102472e+16,170779325800303.16,176537566956030.9,200081095737169.88,362133771472700.56,4466590025954822.0,8.34248117406441e+16
29.133959215593645,2653808896202196.0,9.350688506542309e+16,170949240049533.56,176713210278125.66,204625465568796.78,370791856444257.94,4573759092295660.0,8.535623730458434e+16
29.816638399905518,2656476861334952.5,9.560026162192842e+16,171121101185582.7,176890866131047.16,209250772326436.88,379624973988244.94,4683112724689246.0,8.732378432227336e+16
30.51297116790363,2659176390424195.5,9.77329125752509e+16,171294995563119.3,177070623781122.84,213958264478268.4,388636697407483.06,4794696237218865.0,8.932807936637797e+16
31.223230591261704,2661908824525501.5,9.990552611577203e+16,171471009568330.0,177252572527260.66,218749202186557.72,397830673936554.75,4908555909694570.0,9.136975792333339e+16
31.947695203086937,2664675506458863.5,1.0211880046980459e+17,171649229701059.16,177436801785857.44,223624857099216.84,407210626287235.56,5024739008941483.0,9.344946443953082e+16
32.686649107148675,2667477782041452.5,1.0437344396678846e+17,171829742654219.8,177623401172889.28,228586512124750.12,416780354225913.1,5143293810571403.0,9.556785236399792e+16
33.44038208929165,2670317001281532.5,1.0667017510323758e+17,172012635390701.44,177812460583410.28,233635461190038.97,426543736183505.3,5264269621248433.0,9.772558418736013e+16
34.20918973107749,2673194519536934.5,1.0900972260324242e+17,172197995217992.03,178004070268694.28,238773008980410.84,436504730898469.56,5387716801458776.0,9.992333147688117e+16
34.993373525699035,2676111698640935.0,1.1139282547532062e+17,172385909860706.16,178198320911205.16,244000470661403.78,446667379093452.25,5513686788795485.0,1.0216177490735731e+17
35.793240996213015,2679069907998530.5,1.1382023306541338e+17,172576467531203.5,178395303697596.7,249319171581680.22,457035805186126.25,5642232121768944.0,1.0444160428764918e+17
36.60910581613728,2682070525655830.0,1.1629270510580261e+17,172769756998473.28,178595110389920.72,254730446956496.78,467614219034798.9,5773406464153987.0,1.067635185826132e+17
37.44128793246003,2685114939344764.0,1.1881101175973256e+17,172965867655433.3,178797833395196.5,260235641531166.03,478406917719335.3,5907264629884504.0,1.0912822593020242e+17
38.29011369110923,2688204547505792.0,1.2137593366149917e+17,173164889584808.12,179003565833504.28,265836109223922.88,489418287357944.94,6043862608506993.0,1.115364436534861e+17
39.15591596493141,2691340760290465.5,1.2398826195177314e+17,173366913623707.75,179212401604751.28,271533212747630.44,500652804960405.6,6183257591203975.0,1.1398889826734237e+17
40.03903428423004,2694525000546023.0,1.2664879830791134e+17,173572031427058.3,179424435454230.06,277328323209737.28,512115040318246.0,6325507997398829.0,1.1648632547955715e+17
40.93981496991464,2697758704783895.0,1.2935835496900035e+17,173780335529983.78,179639763037113.7,283222819689919.3,523809657932443.4,6470673501953404.0,1.1902947018607363e+17
41.85861126931294,2701043324133904.5,1.3211775475537926e+17,173991919409275.6,179858480981989.94,289218088794842.2,535741418979163.4,6618815062969875.0,1.2161908646011035e+17
42.7957834946992,2704380325285778.0,1.3492783108236797e+17,174206877544040.53,180080686953559.8,295315524189471.0,547915183314052.25,6769994950208247.0,1.2425593753487277e+17
