t(s),Total solute volume 1,Total retention volume 1,Total 1 volume 1,Total 2 volume 1,Total 3 volume 1,Total 4 volume 1,Total 5 volume 1,Total 6 volume 1
0.1,988500314890707.8,1201179625827040.0,98333854761724.14,114345456174609.27,0.0,0.0,0.0,0.0
0.202,1463097120239318.5,1832504963220472.0,145545710008414.47,169244771195976.25,67675495921.883934,139546074161.62964,2250089418768.335,52160050787910.4
0.30604000000000003,1806065411038354.2,2330838159376356.5,179663447519166.38,208917865735044.1,168742957400.52902,347951284497.9231,5610530312271.16,130064210529621.33
0.41216080000000005,2081448995090045.0,2767075373881310.0,207058005803034.7,240773052473072.3,294623197258.9402,607528138828.1726,9796107850617.162,227097061328454.4
0.5204040160000001,2313727941670681.0,3167516910352951.0,230164608771421.78,267642080437127.53,441045857723.76324,909473375128.6681,14664873925226.605,339966886315641.3
0.6308120963200001,2515345961635336.0,3545156549011195.0,250221129640398.16,290964384504242.8,605375126424.5626,1248353899593.3281,20129223937242.543,466642120267957.2
0.7434283382464002,2693677847387604.5,3907495658639407.5,267961196672517.22,311593048890951.5,785801651614.8312,1620440640226.6838,26129030069052.434,605728293327443.5
0.8582969050113283,2853537264672288.5,4259316970614529.0,283863662836161.25,330084897712663.5,981003629406.9512,2023009771739.4053,32620373695634.297,756206758296638.0
0.9754628431115548,2998281958521883.0,4603889854768348.0,298262549282829.2,346828340448311.94,1189976184663.2427,2453990936362.0312,39569873072507.625,917303166321797.1
1.094972099973786,3130370413767082.0,4943568734109738.0,311402420720644.44,362107764030671.56,1411934717334.1155,2911767968719.164,46951470112888.164,1088412962792395.6
1.2168715419732616,3251670304633134.0,5280119883554534.0,323469069307423.25,376139212967009.75,1646255413321.594,3395056246900.9883,54744452735891.7,1269055532250850.0
1.3412089728127268,3363642149783478.0,5614913169550470.0,334607784253833.9,389091633763389.7,1892436303351.1257,3902822409282.207,62932160345305.805,1458844182691825.8
1.4680331522689813,3467454989305416.5,5949041040821382.0,344934859117610.3,401100255940025.6,2150070531503.3613,4434229244953.213,71501095221599.31,1657465541460276.8
1.597393815314361,3564062618156421.5,6283395784312191.0,354545175340499.9,412275410387923.25,2418827299312.356,4988596409370.598,80440289087988.44,1864664867630673.2
1.729341691620648,3654255731148545.5,6618721585060286.0,363517389517574.0,422708561276014.75,2698437858827.9785,5565371549739.815,89740837528157.14,2080235256181419.0
1.863928525453061,3738698720428532.5,6955650718835584.0,371917593930273.8,432476562625117.94,2988684952970.5264,6164108537854.09,99395549007959.97,2304009499352874.5
2.001207095962122,3817956339540162.5,7294729390980195.0,379801969029171.06,441644742691785.9,3289394684145.5063,6784450709398.193,109398674623657.77,2535853819701866.0
2.1412312378813647,3892513469808163.0,7636436611045952.0,387218749750728.2,450269190458425.6,3600430139191.864,7426117724382.353,119745696238881.31,2775662956926179.5
2.284055862638992,3962790066320628.5,7981198258772445.0,394209712311014.1,458398484520156.5,3921686313885.7075,8088895106960.105,130433157825170.66,3023356256374624.0
2.4297369798917723,4029152656879352.5,8329397752948613.0,400811318096208.5,466075023233828.2,4253086018188.9565,8772625807338.932,141458529407648.72,3278874513506049.5
2.578331719489608,4091923325600648.0,8681384271529773.0,407055607331607.9,473336063902261.1,4594576534553.515,9477203316362.053,152820096046678.38,3542177398797658.5
2.7298983538794,4151386827762030.5,9037479174799608.0,412970906851061.25,480214545789050.3,4946126863346.53,10202565990662.51,164516866339368.97,3813241335204102.5
2.884496320956988,4207796293819741.5,9397981088663250.0,418582397520182.25,486739749934737.4,5307725432280.991,10948692334571.139,176548496348268.53,4092057733273495.0
3.0421862473761276,4261377852843180.5,9763169974460264.0,423912574165525.94,492937833975780.6,5679378177033.566,11715597047425.22,188915225871807.2,4378631512379513.5
3.2030299723236504,4312334417459861.0,1.01333104221879e+16,428981622092650.4,498832269970680.2,6061106922062.3545,12503327689933.62,201617824696779.88,4672979853355937.0
3.3670905717701234,4360848810430665.0,1.05086543416225e+16,433807728111010.6,504444206068731.6,6452948006627.315,13311961856220.86,214657547004749.56,4975131140144510.0
3.5344323832055258,4407086368685111.5,1.088944318160045e+16,438407339577699.06,509792767733599.56,6854951112902.121,14141604762678.273,228036092499370.47,5285124057229066.0
3.7051210308696363,4451197128515916.5,1.1275909775905334e+16,442795381775839.75,514895310517219.8,7267178262022.684,14992387183215.566,241755573119383.5,5603006816531742.0
3.879223451487029,4493317672002205.0,1.166827989100766e+16,446985441592735.06,519767633646064.56,7689702950748.173,15864463674589.059,255818484429112.3,5928836492712215.0
4.0568079205167695,4533572697131183.0,1.2066773533769006e+16,450989923712148.4,524424161646066.5,8122609406680.457,16758011046348.244,270227680953482.56,6262678449873088.0
4.237944078927105,4572076360827677.0,1.247160606442583e+16,454820184215955.7,528878099698480.5,8565991944095.253,17673227038409.98,284986354861129.94,6604605845840100.0
4.422702960505647,4608933434001465.0,1.2882989150503386e+16,458486645485726.56,533141567250781.6,9019954405670.396,18610329175934.668,300098017506613.44,6954699202677203.0
4.61115701971576,4644240299952956.0,1.3301131589939954e+16,461998895521949.8,537225713507938.0,9484609677962.842,19569553776467.89,315566483428073.1,7313046034074596.0
4.803380160110075,4678085821446419.0,1.3726240026031314e+16,465365774198580.5,541140817731692.3,9960079270539.787,20551155088546.918,331395856464925.3,7679740521830624.0
4.9994477633122765,4710552097035189.0,1.4158519572400616e+16,468595448500634.1,544896376729025.44,10446492950326.377,21555404544387.49,347590517715299.25,8054883234925767.0
5.199436718578522,4741715123494690.0,1.4598174362753118e+16,471695478421560.5,548501181479527.3,10943988424077.277,22582590112038.62,364155115097631.94,8438580885723596.0
5.403425452950093,4771645378251157.0,1.5045408037458876e+16,474672874901996.3,551963384508260.94,11452711062980.73,23633015734665.477,381094554317426.44,8830946118682406.0
5.611493962009095,4800408333317538.0,1.5500424176847456e+16,477534150954986.9,555290559335648.94,11972813664308.15,24707000846483.523,398413991070291.6,9232097327658178.0
5.823723841249277,4828064910331035.0,1.5963426689374748e+16,480285366932115.1,558489753114246.5,12504456245771.99,25804879956414.465,416118824337277.25,9642158498457888.0
6.040198318074262,4854671884729772.0,1.6434620161433822e+16,482932170730133.0,561567533382169.44,13047805868877.648,26927002291819.535,434214690649248.25,1.0061259073781774e+16
6.261002284435747,4880282245836927.0,1.6914210174458732e+16,485479833611331.6,564530029716068.6,13603036488077.045,28073731495739.92,452707459214394.3,1.0489533838096216e+16
6.486222330124463,4904945518576469.0,1.7402403594056948e+16,487933282207129.4,567382970945820.1,14170328822968.637,29245445371979.223,471603227817534.9,1.092712282031504e+16
6.715946776726952,4928708051684342.0,1.7899408835157438e+16,490297127188682.56,570131718493547.6,14749870251160.291,30442535673125.08,490908319412171.0,1.1374171212454376e+16
6.950265712261491,4951613276564333.0,1.840543610654786e+16,492575689017311.7,572781296316967.6,15341854719722.912,31665407927254.81,510629279336698.8,1.1830829302665574e+16
7.18927102650672,4973701940342737.0,1.8920697637665636e+16,494773021128272.2,575336417868141.8,15946482673431.244,32914481299620.242,530772873095061.56,1.2297252421258402e+16
7.433056447036854,4995012316177471.0,1.9445407890086652e+16,496892930851832.3,577801510421123.2,16563960998216.475,34190188486077.844,551346084649717.7,1.277360089850224e+16
7.681717575977592,5015580393457764.0,1.997978375580352e+16,498938998333939.9,580180737073441.9,17194502978449.662,35492975635436.05,572356115181326.4,1.3260040033143162e+16
7.935351927497144,5035440050177175.0,2.0524044744092308e+16,500914593683505.2,582478016685479.9,17838328266845.42,36823302298236.805,593810382275155.2,1.37567400707059e+16
8.194058966047088,5054623209462154.0,2.1078413158518496e+16,502822892543519.94,584697041987006.9,18495662865919.098,38181641399791.96,615716519499068.6,1.4263876190761036e+16
8.45794014536803,5073159981983332.0,2.1643114265425276e+16,504666890257829.9,586841296050715.1,19166739120057.78,39568479235553.24,638082376342153.1,1.4781628502435584e+16
8.72709894827539,5091078795758952.0,2.2218376455070556e+16,506449414783684.94,588914067307316.5,19851795717375.06,40984315487123.125,660916018486692.2,1.5310182047529394e+16
9.0016409272409,5108406514672497.0,2.2804431396430284e+16,508173138481625.44,590918463255150.1,20551077700613.87,42429663257410.336,684225728389406.1,1.5849726810673564e+16
9.281673745785717,5125168546866883.0,2.3401514186555964e+16,509840588898295.0,592857422998763.0,21264836486446.984,43905049123605.45,708020006150599.8,1.640045773603139e+16
9.567307220701432,5141388944038504.0,2.400986349526835e+16,511454158643993.5,594733728734807.9,21993329892596.04,45411013206807.48,732307570652407.4,1.6962574750099226e+16
9.85865336511546,5157090492535116.0,2.462972170587236e+16,513016114454901.75,596550016289857.6,22736822172255.14,46948109257260.336,757097360949364.9,1.7536282790213608e+16
10.155826432417769,5172294797057510.0,2.5261335052500776e+16,514528605519535.5,598308784802658.0,23495584055362.54,48516904754278.805,782398537896505.5,1.812179183841496e+16
10.458942961066125,5187022357674987.0,2.5904953754623684e+16,515993671140079.5,600012405632938.5,24269892796310.715,50117981020048.28,808220486001815.9,1.8719316960357464e+16
10.768121820287448,5201292640785475.0,2.656083214920025e+16,517413247791345.0,601663130569781.9,25060032227733.88,51751933346570.71,834572815491397.4,1.9329078348987916e+16
11.083484256693197,5215124144582748.0,2.722922882089909e+16,518789175633307.0,603263099404575.9,25866292820046.312,53419371135113.36,861465364576973.8,1.9951301372746264e+16
11.405153941827061,5228534459532686.0,2.791040673076697e+16,520123204527146.6,604814346926666.5,26688971746444.508,55120918047591.016,888908201916556.0,2.058621662806988e+16
11.733257020663602,5241540324307599.0,2.860463334368741e+16,521416999599482.5,606318809393582.5,27528372953111.73,56857212169373.695,916911629260146.2,2.1234059996004076e+16
12.067922161076874,5254157677581142.0,2.9312180754935624e+16,522672146394808.3,607778330522454.4,28384807234396.727,58628906183071.4,945486184273287.4,2.1895072702746428e+16
12.409280604298411,5266401706044911.0,3.0033325816107336e+16,523890155652085.6,609194667044371.0,29258592312758.1,60436667552901.414,974642643532081.2,2.2569501383968212e+16
12.75746621638438,5278286888971928.0,3.0768350260672116e+16,525072467737816.25,610569493859279.0,30150052923292.23,62281178719285.37,1004392025684077.2,2.325759815277648e+16
13.112615540712067,5289827039619420.0,3.1517540829378744e+16,526220456764708.25,611904408825302.0,31059520902678.2,64163137303371.74,1034745594770125.5,2.395962067119309e+16
13.474867851526309,5301035343735421.0,3.2281189395720416e+16,527335434422217.3,613200937212985.4,31987335282394.766,66083256321210.234,1065714863702834.4,2.467583222504331e+16
13.844365208556836,5311924395407514.0,3.3059593091650084e+16,528418653542712.7,614460535852156.4,32933842386077.51,68042264407345.625,1097311597897921.6,2.540650180215635e+16
14.221252512727972,5322506230470051.0,3.3853054433719132e+16,529471311424746.7,615684596996301.8,33899395930900.63,70040906047623.37,1129547819055137.5,2.6151904173794376e+16
14.605677562982532,5332792357665512.0,3.466188144979987e+16,530494552932924.6,616874451927196.8,34884357132879.61,72079941821031.08,1162435809086019.0,2.691231997923427e+16
14.997791114242183,5342793787737997.0,3.5486387806540304e+16,531489473392057.8,618031374320310.9,35889094816003.195,74160148650426.44,1195988114186004.5,2.7688035813437464e+16
15.397746936527026,5352521060620229.0,3.632689293768752e+16,532457121291669.06,619156583389677.2,36913985525113.516,76282320062020.92,1230217549048961.5,2.847934431774987e+16
15.805701875257567,5361984270861273.0,3.718372217340703e+16,533398500815481.7,620251246829266.5,37959413642463.66,78447266453513.67,1265137201222415.8,2.92865442735826e+16
16.221815912762718,5371193091428872.0,3.8057206870716824e+16,534314574209239.06,621316483566337.8,39025771507887.945,80655815370789.39,1300760435602131.2,3.0109940699031576e+16
16.64625223101797,5380156796009049.0,3.894768454514847e+16,535206263999000.94,622353366340960.5,40113459542532.86,82908811793109.31,1337100899064959.8,3.094984494839883e+16
17.079177275638333,5388884279914269.0,3.985549900373635e+16,536074455071052.56,623362924124582.8,41222886376097.92,85207118426742.52,1374172525239198.8,3.1806574814584452e+16
17.5207608211511,5397384079702710.0,4.078100047943736e+16,536919996623586.6,624346144389497.1,42354468977547.18,87551616007001.4,1411989539411877.5,3.268045463432518e+16
17.97117603757412,5405664391602102.0,4.172454576707007e+16,537743703999464.2,625303975240042.6,43508632789254.64,89943203608654.95,1450566463572608.0,3.3571815396257908e+16
18.430599558325603,5413733088823986.0,4.268649836086322e+16,538546360408601.44,626237327415428.8,44685811864554.98,92382798964710.19,1489918121593970.5,3.4480994851791876e+16
18.899211549492115,5421597737847158.0,4.3667228593696824e+16,539328718547808.75,627147076173347.9,45886449008672.32,94871338793563.02,1530059644548410.8,3.540833762877776e+16
19.37719578048196,5429265613742595.0,4.4667113778114936e+16,540091502125280.6,628034063062687.8,47110995923007.67,97409779134530.08,1571006476161986.5,3.635419534796484e+16
19.864739696091597,5436743714606367.0,4.568653834918657e+16,540835407296358.2,628899097593073.5,48359913352768.16,99999095691784.12,1612774378405379.0,3.731892674224089e+16
20.36203449001343,5444038775162082.0,4.672589400928692e+16,541561104016652.5,629742958808330.6,49633671237923.805,102640284186725.33,1655379437222677.5,3.830289777865249e+16
20.869275179813698,5451157279588665.0,4.778557987487018e+16,542269237318153.0,630566396770373.4,50932748867483.24,105334360718828.27,1698838068398821.0,3.930648178320796e+16
21.38666068340997,5458105473626489.0,4.8866002625300856e+16,542960428513486.0,631370133959548.8,52257635037080.38,108082362135018.84,1743167023566444.5,4.033005956846276e+16
21.91439389707817,5464889376008838.0,4.996757665380781e+16,543635276333115.44,632154866597017.2,53608828209868.516,110885346407632.81,1788383396353187.0,4.137401956389831e+16
22.452681775019734,5471514789264023.0,5.109072422062685e+16,544294357999906.4,632921265894269.6,54986836680719.164,113744393021024.3,1834504628670638.0,4.243875794909619e+16
23.00173541052013,5477987309928706.0,5.223587560838887e+16,544938230245120.0,633669979234574.0,56392178743727.86,116660603366899.16,1881548517146062.8,4.352467878972369e+16
23.561770118730532,5484312338210570.0,5.340346927981728e+16,545567430269643.3,634401631290708.0,57825382863025.87,119635101148448.28,1929533219698422.8,4.463219417633643e+16
24.133005521105144,5490495087135674.0,5.4593952037790904e+16,546182476653942.1,635116825083086.8,59286987846906.14,122669032793366.17,1978477262260021.2,4.5761724366017784e+16
24.715665631527248,5496540591213052.0,5.580777918782632e+16,546783870219992.4,635816142982036.6,60777543025266.14,125763567875851.69,2028399545645419.2,4.6913697926864744e+16
25.309978944157795,5502453714646768.0,5.704541470304032e+16,547372094848212.0,636500147657746.4,62297608430373.58,128919899547683.6,2079319352569319.8,4.808855188534031e+16
25.91617852304095,5508239159123797.0,5.8307331391641096e+16,547947618252168.1,637169382981124.2,63847754980967.45,132139244978474.33,2131256354815076.5,4.928673187650942e+16
26.53450209350177,5513901471203713.0,5.959401106700358e+16,548510892713694.75,637824374878614.5,65428564669698.914,135422845805214.77,2184230620555816.5,5.050869229717688e+16
27.165192135371807,5519445049334598.0,6.090594472038099e+16,549062355780813.25,638465632143747.5,67040630753924.99,138771968591215.94,2238262621830007.2,5.1754896461946664e+16
27.808495978079243,5524874150517675.0,6.224363269630174e+16,549602430930721.8,639093647208102.9,68684557949862.74,142187905294575.34,2293373242173566.0,5.302581676222721e+16
28.464665897640828,5530192896641934.0,6.360758487070308e+16,550131528199954.9,639708896874059.4,70360962630118.67,145671973746282.94,2349583784410575.0,5.432193482820017e+16
29.133959215593645,5535405280508392.0,6.499832083185025e+16,550650044783647.0,640311843011646.5,72070473024602.05,149225518138098.2,2406915978604746.0,5.56437416937792e+16
29.816638399905518,5540515171562110.0,6.641637006408829e+16,551158365605755.9,640902933221611.9,73813729424834.42,152849909520332.22,2465391990174068.5,5.699173796457957e+16
30.51297116790363,5545526321349340.0,6.7862272134474984e+16,551656863861924.1,641482601466678.4,75591384391668.5,156546546309664.66,2525034428170720.0,5.836643398892493e+16
31.223230591261704,5550442368715624.0,6.933657688234179e+16,552145901536571.7,642051268672835.4,77404102966426.45,160316854807147.03,2585866353728888.0,5.9768350031914264e+16
31.947695203086937,5555266844759908.0,7.083984461182777e+16,552625829895720.3,642609343302404.5,79252562885471.12,164162289726524.5,2647911288682728.5,6.119801645257492e+16
32.686649107148675,5560003177558414.0,7.23726462874318e+16,553096989956919.25,643157221900488.2,81137454798218.3,168084334733035.1,2711193224357323.0,6.26559738841275e+16
33.44038208929165,5564654696671683.0,7.393556373262947e+16,553559712937592.44,643695289616325.1,83059482488607.48,172084502992829.72,2775736630534933.0,6.4142773417387416e+16
34.20918973107749,5569224637446812.0,7.552918983159376e+16,554014320683010.1,644223920700928.4,85019363100032.72,176164337733181.62,2841566464599387.5,6.5658976787330424e+16
34.993373525699035,5573716145126206.0,7.715412873406888e+16,554461126075033.56,644743478982406.4,87017827363751.81,180325412813626.94,2908708180861393.5,6.720515656284642e+16
35.793240996213015,5578132278774069.0,7.881099606343398e+16,554900433422694.8,645254318320137.9,89055619830777.02,184569333308219.03,2977187740067433.5,6.878189633971065e+16
36.60910581613728,5582476015030215.0,8.050041912800139e+16,555332538835637.5,645756783039004.2,91133499107257.1,188897736099048.47,3047031619095256.0,7.038979093679505e+16
37.44128793246003,5586750251701045.0,8.222303713558862e+16,555757730581322.25,646251208344777.0,93252238093361.05,193312290481209.9,3118266820838761.5,7.202944659554803e+16
38.29011369110923,5590957811196438.0,8.39795014114051e+16,556176289426925.44,646737920721678.2,95412624225664.36,197814698779377.56,3190920884285449.0,7.37014811827696e+16
39.15591596493141,5595101443820684.0,8.577047561929253e+16,556588488966725.6,647217238313073.6,97615459723043.08,202406696976179.66,3265021894789245.0,7.540652439670371e+16
40.03903428423004,5599183830925872.0,8.759663598635634e+16,556994595935781.8,647689471286229.8,99861561836084.28,207090055352538.56,3340598494542089.0,7.714521797647758e+16
40.93981496991464,5603207587934672.0,8.945867153102618e+16,557394870510636.4,648154922181980.6,102151763100007.1,211866579140171.44,3417679893247230.0,7.891821591491146e+16
41.85861126931294,5607175267239502.0,9.1357284294583e+16,557789566597722.3,648613886250096.5,104486911591099.31,216738109186430.5,3496295878997546.0,8.072618467472083e+16
42.7957834946992,5611089360984874.0,9.329318957618589e+16,558178932110144.3,649066651771129.8,106867871186667.36,221706522631670.6,3576476829362247.0,8.25698034081392e+16
43.751699164593184,5614952303739009.0,9.52671161714345e+16,558563209233435.2,649513500365445.1,109295521828490.62,226773733599344.28,3658253722685139.0,8.444976417998355e+16
