t(s),Total solute volume 1,Total retention volume 1,Total 1 volume 1,Total 2 volume 1,Total 3 volume 1,Total 4 volume 1,Total 5 volume 1,Total 6 volume 1
0.1,1252217186918146.0,2056959543180943.2,321479351742078.75,483263004520719.3,0.0,0.0,0.0,0.0
0.202,1809132159136431.2,3184937768544118.5,464455088900497.2,698190963781405.1,69165129058.33876,211690174808.56274,6159005302346.884,206719696119568.88
0.30604000000000003,2185853907407874.5,4111930969347051.5,561170154867809.1,843577657301773.1,168804175150.46783,516654086343.0315,15034594814956.625,505609196693143.25
0.41216080000000005,2470180462816720.5,4951059607059581.0,634164776663256.9,953306648988149.1,289008828682.5048,884565294783.9857,25742953825673.31,866491190642321.5
0.5204040160000001,2696589684176697.0,5743771418826984.0,692290390322600.0,1040683840129322.8,424892606997.6054,1300468190313.8362,37848634100515.11,1274633509300532.0
0.6308120963200001,2882859302954378.0,6510184779943724.0,740111039401747.9,1112570118313857.0,573528424797.0914,1755404240102.66,51090830030316.58,1721224556578526.2
0.7434283382464002,3039580108860106.0,7261716885159131.0,780345677397675.8,1173052743772249.8,732989175515.0211,2243475498714.2886,65297839883926.266,2200464050570942.8
0.8582969050113283,3173649048358546.0,8005536474654141.0,814764944381729.8,1224793426851463.2,901934327514.2665,2760579320511.3286,80350224658363.83,2708316316756017.0
0.9754628431115548,3289836949188316.0,8746481633232385.0,844593645969196.8,1269633353582561.2,1079398055544.0388,3303759906415.436,96161930258283.48,3241872596272071.0
1.094972099973786,3391591078811529.0,9488002717751466.0,870716792639663.6,1308902913793924.0,1264668161210.9795,3870837724482.0396,112669499938419.08,3798986926682231.0
1.2168715419732616,3481486073455925.0,1.0232672007304034e+16,893795365900681.6,1343595726314645.8,1457211517725.5461,4460181324608.582,129825432042214.7,4378052016748226.5
1.3412089728127268,3561495472467666.0,1.0982479541830796e+16,914336028790492.6,1374473431116410.2,1656625602972.6458,5070559000038.222,147593862044821.84,4977853562808389.0
1.4680331522689813,3633164212594366.0,1.1739014713488408e+16,932735410010156.0,1402132259325717.2,1862605665405.5527,5701038295120.436,165947637330978.4,5597471550266677.0
1.597393815314361,3697722965165630.0,1.2503582862286628e+16,949309457492362.2,1427047158903437.2,2074921746364.095,6350915679888.327,184866270070705.47,6236211173228245.0
1.729341691620648,3756166590064787.0,1.32772829700363e+16,964313579741669.8,1449602072064540.0,2293402171838.1016,7019666025170.98,204334466447951.4,6893553193520331.0
1.863928525453061,3809309533147159.5,1.4061061072063936e+16,977956867909241.1,1470111314576621.5,2517921431365.4795,7706905505072.078,224341046733968.75,7569117482760513.0
2.001207095962122,3857825899259418.0,1.4855747966781682e+16,990412383663552.0,1488835040976008.2,2748391113494.687,8412363854445.683,244878137669360.75,8262635750245390.0
2.1412312378813647,3902279044375008.0,1.5662086460321974e+16,1001824756323514.9,1505990664939266.8,2984753019917.7676,9135863294471.861,265940558946434.16,8973930819423351.0
2.284055862638992,3943143821586864.0,1.648075145234831e+16,1012315894030266.1,1521761444588042.0,3226973863181.1455,9877302304982.027,287525350777057.9,9702900665197916.0
2.4297369798917723,3980823567585529.0,1.7312365011870026e+16,1021989344653652.2,1536303038010956.2,3475041135141.399,10636642980013.006,309631405767890.75,1.0449505971736858e+16
2.578331719489608,4015663252917943.0,1.815750787584252e+16,1030933671833400.1,1549748578289133.5,3728959853973.757,11413901072302.174,332259179072090.1,1.1213760332803658e+16
2.7298983538794,4047959787881885.0,1.90167283476975e+16,1039225100791958.1,1562212650807860.0,3988749979263.145,12209138082557.355,355410458066845.56,1.1995722462087136e+16
2.884496320956988,4077970188467491.0,1.989054927573231e+16,1046929614761282.0,1573794444704976.0,4254444341200.619,13022454922237.209,379088177838779.25,1.2795489950696356e+16
3.0421862473761276,4105918111125679.0,2.0779473593070944e+16,1054104632641616.5,1584580274807328.2,4526086969665.514,13853986800260.816,403296272301134.3,1.3613194228425276e+16
3.2030299723236504,4131999129441491.5,2.168398876606644e+16,1060800363671906.9,1594645618035743.8,4803731737404.439,14703899071081.604,428039553299479.06,1.4448996470809348e+16
3.3670905717701234,4156385030038141.5,2.260457040462085e+16,1067060910309144.1,1604056771305710.0,5087441252142.008,15572383844680.354,453323611900014.44,1.5303084255971018e+16
3.5344323832055258,4179227336424656.5,2.3541685222153904e+16,1072925172899141.9,1612872211471536.0,5377285947614.08,16459657205420.559,479154737404808.7,1.6175668820800714e+16
3.7051210308696363,4200660219641743.5,2.449579348597639e+16,1078427596921159.5,1621143718619984.2,5673343334783.51,17365956921198.488,505539850642264.56,1.7066982799895242e+16
3.879223451487029,4220802917865151.5,2.5467351064801784e+16,1083598794168119.9,1628917309857954.2,5975697382968.615,18291540550245.254,532486448835769.7,1.7977278356141608e+16
4.0568079205167695,4239761759801631.5,2.645681115517834e+16,1088466062209255.1,1636234020193432.2,6284438007043.379,19236683872614.41,560002559926272.75,1.8906825631168092e+16
4.237944078927105,4257631866146482.0,2.746462575011206e+16,1093053821202082.2,1643130559172038.0,6599660641793.882,20201679588462.996,588096704663317.8,1.985591145869786e+16
4.422702960505647,4274498587738159.5,2.8491246899271636e+16,1097383983107142.1,1649639865898211.8,6921465888319.228,21186836236876.816,616777865118045.6,2.082483829528487e+16
4.61115701971576,4290438727052411.5,2.9537127799653636e+16,1101476265279886.1,1655791580441442.2,7249959220327.426,22192477298055.957,646055458535559.2,2.1813923331825924e+16
4.803380160110075,4305521580398982.5,3.0602723747551856e+16,1105348458031873.2,1661612446047003.8,7585250740499.881,23218940448787.914,675939315651061.8,2.2823497756233652e+16
4.9994477633122765,4319809830947306.0,3.1688492976481708e+16,1109016653895574.8,1667126653777737.2,7927454978932.116,24266576946748.45,706439662757584.5,2.3853906143177844e+16
5.199436718578522,4333360317022079.0,3.279489740089563e+16,1112495444867461.0,1672356139019227.2,8276690727116.555,25335751123633.395,737567106943098.1,2.4905505951192996e+16
5.403425452950093,4346224695611512.5,3.3922403281756548e+16,1115798092749216.2,1677320837544846.0,8633080902098.72,26426839970691.336,769332624018582.5,2.5978667110959576e+16
5.611493962009095,4358450017449289.5,3.5071481827064284e+16,1118936676787448.2,1682038907454800.8,8996752436375.361,27540232803097.652,801747548742230.1,2.7073771691391056e+16
5.823723841249277,4370079227161504.5,3.624260973806881e+16,1121922222075484.1,1686526922195805.2,9367836189861.117,28676330991926.863,834823567012422.0,2.81912136324418e+16
6.040198318074262,4381151599657550.5,3.743626971001961e+16,1124764811587166.9,1690800038975641.8,9746466880865.492,29835547754368.12,868572709757038.1,2.9331398535407004e+16
6.261002284435747,4391703122070054.0,3.8652950894784936e+16,1127473684231583.2,1694872146163696.8,10132783033525.398,31018307994364.8,903007348291447.1,3.0494743503000304e+16
6.486222330124463,4401766829023254.0,3.9893149331449944e+16,1130057320925889.5,1698755992679722.5,10526926939550.365,32225048187122.42,938140190954255.6,3.168167702274014e+16
6.715946776726952,4411373097760218.0,4.115736835000789e+16,1132523520362761.2,1702463301891083.8,10929044632477.354,33456216301970.7,973984280860219.8,3.2892638888199184e+16
6.950265712261491,4420549908632637.5,4.244611895244651e+16,1134879465885441.5,1706004872142536.0,11339285872913.559,34712271758922.49,1010552994634750.8,3.4128080153519356e+16
7.18927102650672,4429323075608686.0,4.375992017486336e+16,1137131784665613.0,1709390665715183.0,11757804143478.768,35993685414990.73,1047860042015249.6,3.538846311730014e+16
7.433056447036854,4437716450751482.0,4.5099299433696664e+16,1139286600198740.0,1712629887740021.2,12184756652353.316,37300939576917.76,1085919466221890.8,3.667426133255533e+16
7.681717575977592,4445752106034723.0,4.646479285870275e+16,1141349578981277.8,1715731056365318.0,12620304344501.465,38634528037472.76,1124745645014987.8,3.798595963992442e+16
7.935351927497144,4453450495372890.5,4.7856945614930056e+16,1143325972108385.0,1718702065288267.8,13064611919775.842,39994956132888.89,1164353292368242.0,3.932405422173957e+16
8.194058966047088,4460830599332622.5,4.9276312215630504e+16,1145220652425366.2,1721550239602864.0,13517847857224.574,41382740819367.734,1204757460697533.8,4.068905267489551e+16
8.45794014536803,4467910054646059.5,5.072345682777764e+16,1147038147777439.8,1724282385782471.0,13980184445020.24,42798410766876.125,1245973543593514.2,4.208147410076625e+16
8.72709894827539,4474705270355277.0,5.21989535716446e+16,1148782670827240.2,1726904836502959.8,14451797815512.104,44242506468713.02,1288017279013736.0,4.350184921066121e+16
9.0016409272409,4481231532169017.5,5.37033868157052e+16,1150458145846160.8,1729423490916698.8,14932867984973.738,45715580365540.46,1330904752896219.2,4.495072044552654e+16
9.281673745785717,4487503096403015.0,5.523735146796203e+16,1152068232831436.8,1731843850906548.0,15423578897678.195,47218196982756.586,1374652403161867.5,4.642864210877877e+16
9.567307220701432,4493533274695464.0,5.680145326467442e+16,1153616349255023.2,1734171053779768.5,15924118473984.465,48750933080246.086,1419277024077516.5,4.793618051131244e+16
9.85865336511546,4499334510536177.5,5.839630905734134e+16,1155105689710765.5,1736409901802595.0,16434678662162.29,50314377813677.93,1464795770955599.8,4.947391412786034e+16
10.155826432417769,4504918448516297.0,6.002254709869886e+16,1156539243692749.2,1738564888925527.5,16955455493721.5,51909132906637.74,1511226165169516.8,5.10424337639944e+16
10.458942961066125,4510295997092513.0,6.168080732840797e+16,1157919811708642.8,1740640225005631.8,17486649142044.1,53535812832982.51,1558586099467003.8,5.2642342733159176e+16
10.768121820287448,4515477385562266.0,6.337174165903684e+16,1159250019906830.5,1742639857794795.5,18028463984145.598,55195045008890.57,1606893843566099.8,5.427425704321386e+16
11.083484256693197,4520472215862329.0,6.509601426287945e+16,1160532333374581.5,1744567492930111.2,18581108665417.457,56887469994158.27,1656168050020663.5,5.5938805592032104e+16
11.405153941827061,4525289509730328.0,6.685430186010224e+16,1161769068245704.2,1746426612134736.0,19144796167222.7,58613741702357.93,1706427760344193.8,5.763663037177761e+16
11.733257020663602,4529937751705220.0,6.8647294008661496e+16,1162962402740014.0,1748220489812909.2,19719743877237.07,60374527619529.54,1757692411382503.5,5.936838668152404e+16
12.067922161076874,4534424928388164.0,7.0475693396397656e+16,1164114387242686.8,1749952208201744.8,20306173662442.492,62170509031131.06,1809981841927121.0,6.11347433479443e+16
12.409280604298411,4538758564336954.0,7.234021613567587e+16,1165226953519364.2,1751624671223787.8,20904311944695.652,64002381257011.89,1863316299562684.8,6.2936382953831304e+16
12.75746621638438,4542945754925155.0,7.42415920609168e+16,1166301923152030.0,1753240617168246.8,21514389778806.133,65870853894217.86,1917716447742660.0,6.4774002074255704e+16
13.112615540712067,4546993196460729.0,7.618056502933142e+16,1167341015271305.0,1754802630314554.8,22136642933070.03,67776651067466.04,1973203373088770.2,6.664831152019555e+16
13.474867851526309,4550907213826596.0,7.815789322515381e+16,1168345853652550.0,1756313151599545.2,22771311972214.094,69720511687160.13,2029798592910301.2,6.856003658950549e+16
13.844365208556836,4554693785877083.0,8.017434946764806e+16,1169317973235850.2,1757774488418631.8,23418642342715.46,71703189714844.23,2087524062940367.2,7.0509917325118504e+16
14.221252512727972,4558358568799670.0,8.223072152314514e+16,1170258826123643.0,1759188823641707.0,24078884460468.402,73725454436014.97,2146402185286813.2,7.24987087803968e+16
14.605677562982532,4561906917629315.0,8.432781242135467e+16,1171169787104043.5,1760558223916067.8,24752293800777.098,75788090740234.95,2206455816596067.8,7.452718129156824e+16
14.997791114242183,4565343906083093.0,8.646644077618146e+16,1172052158742949.2,1761884647321137.2,25439130990659.293,77891899408509.14,2267708276428895.5,7.65961207572062e+16
15.397746936527026,4568674344866029.0,8.864744111126634e+16,1172907176083664.5,1763169950433142.8,26139661903452.137,80037697407901.23,2330183355847341.5,7.870632892472475e+16
15.805701875257567,4571902798583493.0,9.087166419046315e+16,1173736010988789.0,1764415894852055.2,26854157755714.1,82226318193387.08,2393905326212823.0,8.085862368387685e+16
16.221815912762718,4575033601382098.0,9.313997735345314e+16,1174539776155684.2,1765624153237822.8,27582895206424.805,84458612016949.66,2458898948195511.5,8.305383936725858e+16
16.64625223101797,4578070871429214.0,9.54532648566915e+16,1175319528833759.8,1766796314898387.0,28326156458484.863,86735446243938.52,2525189480995679.5,8.52928270578321e+16
17.079177275638333,4581018524330107.0,9.781242821987762e+16,1176076274269039.5,1767933890967706.5,29084229362525.082,89057705676724.78,2592802691777941.5,8.757645490349358e+16
17.5207608211511,4583880285572645.0,1.0021838657812995e+17,1176810968899055.5,1769038319208489.5,29857407523034.38,91426292885695.81,2661764865319693.5,8.990560843872139e+16
17.97117603757412,4586659702080510.0,1.0267207704004794e+17,1177524523318898.8,1770110968470887.2,30645990406821.73,93842128547639.27,2732102813875187.5,9.228119091334794e+16
18.430599558325603,4589360152948636.0,1.0517445505183586e+17,1178217805037299.8,1771153142835565.0,31450283453827.855,96306151791581.48,2803843887257177.0,9.470412362851182e+16
18.899211549492115,4591984859427476.0,1.0772649476766189e+17,1178891641039863.0,1772166085466907.2,32270598190306.88,98819320552146.62,2877015983138101.0,9.717534627984725e+16
19.37719578048196,4594536894216774.0,1.103291894264221e+17,1179546820175050.2,1773150982199700.8,33107252344398.76,101382611930514.25,2951647557573043.5,9.969581730798264e+16
19.864739696091597,4597019190123796.0,1.1298355173507982e+17,1180184095376994.5,1774108964880600.0,33960569964117.375,103997022563062.7,3027767635747058.5,1.0226651425642411e+17
20.36203449001343,4599434548136324.0,1.1569061425874354e+17,1180804185738055.5,1775041114483689.5,34830881537778.77,106663568997783.56,3105405822949392.0,1.0488843413690056e+17
20.869275179813698,4601785644955951.0,1.1845142981765398e+17,1181407778442832.2,1775948464017780.2,35718524116899.06,109383288078569.48,3184592315777559.0,1.0756259380226426e+17
21.38666068340997,4604075040033461.0,1.212670718912401e+17,1181995530574339.5,1776832001241540.0,36623841441589.8,112157237337476.48,3265357913574237.5,1.1029003032703738e+17
21.91439389707817,4606305182144268.0,1.2413863502941022e+17,1182568070802116.5,1777692671201144.0,37547184068484.234,114986495395068.94,3347734030100207.0,1.1307180139569896e+17
22.452681775019734,4608478415538710.0,1.2706723527124426e+17,1183126000961174.8,1778531378603806.2,38488909501223.695,117872162368960.78,3431752705446629.5,1.159089856988238e+17
23.00173541052013,4610596985699074.0,1.3005401057124574e+17,1183669897529984.2,1779348990039595.5,39449382323542.766,120815360290674.72,3517446618190238.0,1.1880268333717264e+17
23.561770118730532,4612663044732405.0,1.3310012123332202e+17,1184200313014968.2,1780146336062629.8,40428974334985.266,123817233530939.16,3604849097794986.0,1.2175401623385123e+17
24.133005521105144,4614678656425868.0,1.3620675035265651e+17,1184717777248353.0,1780924213142105.0,41428064689290.32,126878949233554.8,3693994137263985.0,1.247641285546533e+17
24.715665631527248,4616645800989191.0,1.3937510426563334e+17,1185222798605677.8,1781683385492498.0,42447040035484.52,130001697757963.19,3784916406045585.5,1.2783418713670694e+17
25.309978944157795,4618566379506638.0,1.4260641300798749e+17,1185715865148759.2,1782424586791709.5,43486294661723.26,133186693130651.1,3877651263197692.0,1.3096538192555032e+17
25.91617852304095,4620442218119191.0,1.4590193078133997e+17,1186197445699358.2,1783148521795086.0,44546230641916.66,136435173505538.73,3972234770814432.0,1.3415892642076456e+17
26.53450209350177,4622275071956094.0,1.4926293642829e+17,1186667990848532.2,1783855867852689.2,45627257985187.49,139748401633490.23,4068703707719405.5,1.3741605813029456e+17
27.165192135371807,4624066628833141.0,1.5269073391623053e+17,1187127933906069.5,1784547276336570.2,46729794788199.24,143127665341103.03,4167095583430046.0,1.4073803903359534e+17
27.808495978079243,4625818512733934.0,1.56186652830059e+17,1187577691794254.2,1785223373984276.5,47854267390401.43,146574278018922.5,4267448652397418.0,1.4412615605374013e+17
28.464665897640828,4627532287088955.0,1.597520488739533e+17,1188017665889673.0,1785884764164335.8,49001110532234.84,150089579119246.4,4369801928526248.0,1.475817215386326e+17
29.133959215593645,4629209457866323.0,1.6338830438238496e+17,1188448242816708.0,1786532028069045.5,50170767516343.695,153674934663674.12,4474195199979805.5,1.5110607375147312e+17
29.816638399905518,4630851476486704.0,1.6709682884054576e+17,1188869795195877.5,1787165725839425.5,51363690371841.6,157331737760570.03,4580669044274506.0,1.5470057737061718e+17
30.51297116790363,4632459742574364.0,1.7087905941436573e+17,1189282682350096.8,1787786397626921.2,52580340021678.445,161061409132607.2,4689264843669263.0,1.5836662399899104e+17
31.223230591261704,4634035606555065.0,1.7473646149029123e+17,1189687250971667.2,1788394564595981.5,53821186453156.83,164865397654564.72,4800024800854486.0,1.621056326832064e+17
31.947695203086937,4635580372110927.0,1.7867052922501626e+17,1190083835752447.5,1788990729871477.8,55086708891648.27,168745180901553.8,4912991954946146.0,1.65919050442542e+17
32.686649107148675,4637095298501456.0,1.8268278610533642e+17,1190472759979792.8,1789575379434451.8,56377395977558.77,172702265707851.72,5028210197789850.0,1.698083528079454e+17
33.44038208929165,4638581602759679.0,1.8677478551831347e+17,1190854336100310.0,1790148982969612.5,57693745946595.51,176738188736528.9,5145724290580637.0,1.7377504437122016e+17
34.20918973107749,4640040461770981.0,1.9094811133193766e+17,1191228866253593.0,1790711994667675.0,59036266813386.38,180854517060054.56,5265579880803755.0,1.778206593445683e+17
34.993373525699035,4641473014242380.0,1.9520437848646957e+17,1191596642777761.2,1791264853985328.8,60405476558504.64,185052848752064.4,5387823519502105.0,1.8194676213065162e+17
35.793240996213015,4642880362569141.0,1.995452335966571e+17,1191957948688694.8,1791807986365594.5,61801903318954.35,189334813490499.72,5512502678876057.0,1.8615494790334803e+17
36.60910581613728,4644263574604957.0,2.0397235556501075e+17,1192313058134481.8,1792341803921018.0,63226085582167.445,193702073172297.0,5639665770221294.0,1.9044684319937446e+17
37.44128793246003,4645623685341927.0,2.0848745620633904e+17,1192662236826708.0,1792866706081995.5,64678572383571.82,198156322539841.25,5769362162210911.0,1.9482410652095434e+17
38.29011369110923,4646961698505716.0,2.1309228088373357e+17,1193005742449989.8,1793383080212386.8,66159923507782.31,202699289819378.97,5901642199527311.0,1.9928842894971085e+17
39.15591596493141,4648278588071189.0,2.177886091561996e+17,1193343825051076.0,1793891302194452.8,67670709693474.17,207332737371606.66,6036557221850442.0,2.0384153477196736e+17
40.03903428423004,4649575299703306.0,2.225782554381387e+17,1193676727408761.5,1794391736984912.2,69211512841994.445,212058462354637.6,6174159583208414.0,2.0848518211563674e+17
40.93981496991464,4650852752127786.0,2.2746306967087978e+17,1194004685385790.5,1794884739143945.8,70782926229770.05,216878297399565.6,6314502671696659.0,2.1322116359889648e+17
41.85861126931294,4652111838435831.0,2.324449380064623e+17,1194327928263791.2,1795370653338681.0,72385554724570.97,221794111298843.9,6457640929572391.0,2.180513069908281e+17
42.7957834946992,4653353427326647.0,2.3752578350387744e+17,1194646679062292.0,1795849814822768.0,74020015005688.56,226807809707699.94,6603629873730649.0,2.2297747588422176e+17
