t(s),Total solute volume 1,Total retention volume 1,Total 1 volume 1,Total 2 volume 1,Total 3 volume 1,Total 4 volume 1,Total 5 volume 1,Total 6 volume 1
0.1,821307387244814.4,914309965951331.9,46537842289353.97,46464736417161.86,0.0,0.0,0.0,0.0
0.202,1237585971703862.2,1377727808895951.2,70125487394871.03,70015328072159.83,2833812.9723270712,4621703.226971124,52426562.097950354,961842979.088562
0.30604000000000003,1554587108672632.2,1730626849406015.8,88087762141132.77,87949386107617.19,7190365.71611493,11726863.605059672,133024482.27485809,2440542922.6090035
0.41216080000000005,1822717137297090.0,2029121194124020.5,103280847209573.84,103118604542490.69,12772341.835631723,20830583.580714963,236293238.03923213,4335178701.68906
0.5204040160000001,2060834891454348.0,2294205151614618.0,116773343046403.2,116589905178526.0,19447833.621233087,31717733.069399387,359792477.30934626,6600977299.7723
0.6308120963200001,2278334575316943.5,2536336674270308.0,129097554608528.03,128894756782789.25,27146105.79953401,44272948.95929497,502213567.05434567,9213929420.357845
0.7434283382464002,2480675722554517.0,2761593503692456.0,140562836129640.67,140342027628635.92,35826733.78688082,58430302.2570389,662808635.3424627,12160313988.700628
0.8582969050113283,2671355612198655.0,2973868932908641.5,151367354365359.2,151129573174102.8,45466925.86016595,74152621.64178449,841156025.6918746,15432394946.65548
0.9754628431115548,2852770712461778.5,3175830795457494.5,161646900691272.12,161392971481818.2,56055277.41625438,91421307.20163712,1037044748.1271464,19026301289.36596
1.094972099973786,3026646602941448.0,3369400069548552.5,171499251838153.53,171229845686299.8,67588312.44577044,110230689.87622727,1250410494.9593484,22940853157.25428
1.2168715419732616,3194273980161695.0,3556013607469770.0,180997542703235.2,180713215798062.5,80068405.57108188,130584642.48028836,1481297197.6088026,27176856526.474705
1.3412089728127268,3356647845760130.5,3736779084582317.5,190198153187720.47,189899373151804.34,93502456.48028775,152494417.82011703,1729832503.0777175,31736653280.963825
1.4680331522689813,3514554330116513.5,3912571654297977.5,199145627894821.56,198832792376156.7,107901005.05982783,175977205.5514089,1996211403.5347552,36623820868.119446
1.597393815314361,3668627351283507.0,4084097022690034.5,207875886601779.25,207549336822412.3,123277619.66852021,201055134.50715014,2280684919.1311207,41842964665.08476
1.729341691620648,3819386987487552.5,4251934166033488.0,216418398565641.7,216078429454715.53,139648462.61614296,227754564.03081605,2583552059.175039,47399570492.358574
1.863928525453061,3967266285898185.0,4416565175211660.5,224797701591887.16,224444569532396.03,157031975.03951052,256105570.03655165,2905153992.20965,53299897653.64852
2.001207095962122,4112630494295601.5,4578396665040998.0,233034491760783.84,232668420624495.6,175448644.84256542,286141566.53958577,3245869752.8096356,59550900169.54128
2.1412312378813647,4255791174871771.0,4737775486233689.0,241146423161125.56,240767609090951.66,194920834.08342847,317899024.51698565,3606113124.7589035,66160176860.61348
2.284055862638992,4397016769463617.5,4895000486898207.0,249148706542576.2,248757321779340.1,215472649.6584239,351417259.49723536,3986329942.8370337,73135892828.14131
2.4297369798917723,4536540647091396.0,5050331471420238.0,257054565324653.16,256650761340650.6,237129847.0082783,386738276.77100486,4386996769.378351,80486798631.34618
2.578331719489608,4674567329189811.0,5203996130531166.0,264875588330772.97,264459498393550.56,259919758.2450137,423906652.6692104,4808619259.612362,88222171360.70593
2.7298983538794,4811277371669443.0,5356195476198270.0,272622006422890.75,272193747728450.62,283871239.82188535,462969449.59273255,5251731269.7111635,96351805500.6466
2.884496320956988,4946831241196312.0,5507108156829792.0,280302912143600.7,279862587604574.1,309014635.423835,503976155.4900245,5716894170.248429,104886000333.79807
3.0421862473761276,5081372427348081.0,5656893921834436.0,287926436060638.4,287474135817441.5,335381751.10915715,546978643.3154019,6204696386.310422,113835551503.48274
3.2030299723236504,5215029966647330.0,5805696431463695.0,295499889786486.0,295035692493806.75,363005840.4323284,592031146.7657406,6715753122.26298,123211745964.03993
3.3670905717701234,5347920508548736.0,5953645556743258.0,303029883043659.6,302553856973047.75,391921597.81722355,639190249.472855,7250706239.153897,133026359731.51488
3.5344323832055258,5480150020816325.0,6100859277962711.0,310522420296714.56,310034624287377.8,422165158.84688234,688514885.4761716,7810224260.074637,143291657981.98145
3.7051210308696363,5611815208178761.0,6247445263977532.0,317982981137683.75,317483465421001.3,453774106.4322208,740066349.2834514,8395002484.284722,154020397145.3073
3.879223451487029,5743004700926544.0,6393502195403915.0,325416587635709.8,324905394553950.1,486787482.04585207,793908314.1922874,9005763195.042948,165225828718.13004
4.0568079205167695,5873800057361016.0,6539120880587875.0,332827861138935.75,332305025774746.0,521245801.37830055,850106857.8241464,9643255949.254818,176921704577.89438
4.237944078927105,6004276614448159.0,6684385202591895.0,340221070475209.0,339686621205385.4,557191073.9061007,908730494.0383375,10308257939.491203,189122283624.6638
4.422702960505647,6134504213794085.0,6829372927386013.0,347600173088117.4,347054132072749.8,594666825.9643878,969850210.5615456,11001574420.841934,201842339612.43716
4.61115701971576,6264547824523899.0,6974156397269475.0,354968850331256.94,354411233947441.4,633718126.997979,1033539511.8011965,11724039196.572777,215097170059.31613
4.803380160110075,6394468080374214.0,7118803128792453.0,362330537901561.75,361761357129300.9,674391618.7295256,1099874466.4162936,12476515157.749048,228902606147.78214
4.9994477633122765,6524321744982355.0,7263376330744858.0,369688452204055.06,369107712970734.9,716735547.0351233,1168933759.3039658,13259894872.949251,243275023543.956
5.199436718578522,6654162116745049.0,7407935354872539.0,377045613292401.0,376453316781241.2,760799796.359786,1240798747.728209,14075101224.966278,258231354078.92975
5.403425452950093,6784039382554609.0,7552536089682825.0,384404864912701.1,383801007839715.1,806635926.5391561,1315553521.3731303,14923088092.026043,273789098246.83704
5.611493962009095,6914000928075850.0,7697231305870450.0,391768892084759.25,391153466948092.8,854297211.9220787,1393284966.1485748,15804841071.572165,289966338483.8804
5.823723841249277,7044091610908844.0,7842070960427441.0,399140236580330.1,398513231885288.3,903838682.7116857,1474082831.6140766,16721378245.094952,306781753200.37335
6.040198318074262,7174354001918339.0,7987102465315656.0,406521310597603.9,405882711060200.7,955317168.4621263,1558039801.918395,17673750982.84022,324254631544.44946
6.261002284435747,7304828599147736.0,8132370925620254.0,413914408882235.75,413264195613693.2,1008791343.6842526,1645251570.178678,18663044787.534878,342404888881.6031
6.486222330124463,7435554018029981.0,8277919351316740.0,421321719505291.94,420659870179619.2,1064321775.527377,1735816916.245435,19690380176.521187,361253082978.8919
6.715946776726952,7566567161030113.0,8423788846141270.0,428745333475725.6,428071822482188.7,1121970973.5159538,1829837787.8189702,20756913601.907352,380820430886.62067
6.950265712261491,7697903369376779.0,8570018776522536.0,436187253337959.0,435502051920050.44,1181803441.3300653,1927419384.8991446,21863838408.53006,401128826513.7403
7.18927102650672,7829596559144988.0,8716646923093487.0,443649400882756.3,442952477265050.4,1243885730.6274748,2028670247.5646317,23012385829.68655,422200858896.19653
7.433056447036854,7961679343622985.0,8863709616934962.0,451133624080915.06,450424943585028.9,1308286496.912442,2133702347.090438,24203826020.733437,444059831160.00543
7.681717575977592,8094183143621701.0,9011241862396970.0,458641703333738.56,457921228484481.06,1375076557.463479,2242631180.4232616,25439469130.775627,466729780183.1504
7.935351927497144,8227138287153332.0,9159277448086450.0,466175357121146.8,465443047743784.56,1444328951.3379164,2355575868.0440383,26720666412.778645,490235496962.42303
8.194058966047088,8360574099711853.0,9307849047393126.0,473736247117240.56,472992060426735.6,1516119001.4767313,2472659255.2558103,28048811372.53598,514602547693.1237
8.45794014536803,8494518986222663.0,9456988309742212.0,481325982833832.1,480569873516782.94,1590524378.9378116,2594008016.942939,29425340957.0135,539857295571.2025
8.72709894827539,8629000505589587.0,9606725943606610.0,488946125844503.8,488178046134453.06,1667625169.2902372,2719752765.8546987,30851736782.67441,566026923328.8885
9.0016409272409,8764045438647352.0,9757091792179114.0,496598193635017.06,495818093381704.9,1747503941.2062144,2850028164.473161,32329526404.461002,593139456516.2626
9.281673745785717,8899679850226545.0,9908114902490864.0,504283663120099.9,503491489853199.06,1830245817.2910964,2984973040.531137,33860284626.182777,621223787542.4783
9.567307220701432,9035929145950350.0,1.0059823588665998e+16,512003973861728.75,511199672849520.44,1915938547.1953418,3124730506.25182,35445634853.12092,650309700491.518
9.85865336511546,9172818124306940.0,1.021224548991766e+16,519760531019716.6,518944045323134.56,2004672583.055616,3269448081.3871064,37087250487.72402,680427896728.5167
10.155826432417769,9310371024477336.0,1.0365407623819954e+16,527554708061779.75,526725978584193.06,2096541157.3154027,3419277820.136617,38786856369.32451,711610021313.7327
10.458942961066125,9448611570341182.0,1.0519336435325654e+16,535387849257057.2,534546814790136.5,2191640362.9783516,3574376442.0344443,40546230258.86365,743888690242.2657
10.768121820287448,9587563011035754.0,1.0674057841947942e+16,543261271974296.9,542407869240275.8,2290069236.3507185,3734905466.895295,42367204369.664085,777297518528.5802
11.083484256693197,9727248158399812.0,1.0829597275474784e+16,551176268803545.7,550310432494140.94,2391929842.331696,3901031353.916153,44251666945.3417,811871149155.8857
11.405153941827061,9867689421597494.0,1.0985979720545692e+16,559134109518052.4,558255772330312.44,2497327362.313507,4072925645.0341988,46201563885.9977,847645282911.294
11.733257020663602,1.000890883918592e+16,1.1143229750382696e+16,567136042891310.5,566245135560597.2,2606370184.755585,4250765112.6459317,48218900423.88282,884656709128.6134
12.067922161076874,1.0150928108860084e+16,1.1301371559937536e+16,575183298382502.4,574279749712835.4,2719169998.499778,4434731911.796761,50305742849.77306,922943337361.5188
12.409280604298411,1.0293768615085906e+16,1.1460428996688304e+16,583277087702275.5,582360824594211.0,2835841888.8961816,4625013736.954557,52464220291.34295,962544230010.7048
12.75746621638438,1.0437451454808918e+16,1.1620425589294996e+16,591418606269466.6,590489553745694.5,2956504436.8118987,4821803983.484819,54696526544.8728,1003499635929.5238
13.112615540712067,1.0581997461407214e+16,1.1781384574301466e+16,599609034568366.2,598667115797163.1,3081279820.597109,5025301913.94924,57004921961.6703,1045851025033.4343
13.474867851526309,1.0727427227040576e+16,1.194332892105352e+16,607849539415078.1,606894675731788.0,3210293921.086108,5235712829.35395,59391735390.63809,1089641123939.5289
13.844365208556836,1.0873761123532312e+16,1.2106281354983946e+16,616141275140747.1,615173386067384.5,3343676429.712735,5453248245.477097,61859366178.46101,1134913952663.1648
14.221252512727972,1.1021019321906376e+16,1.227026437940239e+16,624485384698614.9,623504387961741.6,3481560959.822876,5678126074.410637,64410286228.93906,1181714862399.7075
14.605677562982532,1.1169221810691924e+16,1.2435300295913752e+16,632883000701180.5,631888812248155.6,3624085161.2687364,5910570811.454461,67047042123.036064,1230090574420.1592
14.997791114242183,1.1318388413094862e+16,1.260141122357697e+16,641335246393217.9,640327780406903.5,3771390838.372576,6150813727.505779,69772257301.26347,1280089220110.4067
15.397746936527026,1.146853880312784e+16,1.276861911690502e+16,649843236565749.8,648822405477797.2,3923624071.34982,6399093067.090581,72588634310.06508,1331760382184.6536
15.805701875257567,1.161969252078103e+16,1.2936945782798958e+16,658408078415661.1,657373792918437.2,4080935341.284377,6655654252.188433,75498957113.91902,1385155137104.4182
16.221815912762718,1.1771868986308154e+16,1.3106412896497776e+16,667030872355196.9,665983041412443.1,4243479658.7512927,6920750092.005875,78506093474.91684,1440326098735.548
16.64625223101797,1.1925087513695472e+16,1.3277042016620502e+16,675712712775155.5,674651243631448.4,4411416696.184715,7194640998.8579445,81612997401.63112,1497327463276.3232
17.079177275638333,1.2079367323375044e+16,1.344885459936793e+16,684454688765256.8,683379486954334.8,4584910924.091488,7477595210.321893,84822711669.13019,1556215055490.782
17.5207608211511,1.2234727554237066e+16,1.362187201194619e+16,693257884794817.9,692168854146831.6,4764131751.213356,7769889017.8306,88138370412.04291,1617046376282.2258
17.97117603757412,1.2391187274991976e+16,1.3796115545266918e+16,702123381356537.5,701020424004310.1,4949253668.743162,8071807001.877901,91563201792.623,1679880651642.5627
18.430599558325603,1.2548765494925944e+16,1.3971606425974574e+16,711052255575954.1,709935271960258.0,5140456398.702962,8383642274.01146,95100530745.81084,1744778883014.1597
18.899211549492115,1.270748117409023e+16,1.4148365827844472e+16,720045581788806.4,718914470662749.8,5337925046.593902,8705696725.792915,98753781803.32231,1811803899101.5364
19.37719578048196,1.2867353232959106e+16,1.43264148825909e+16,729104432088269.6,727959090520819.2,5541850258.430324,9038281284.908052,102526481998.84999,1881020409170.8635
19.864739696091597,1.3028400561586686e+16,1.4505774690119264e+16,738229876843816.4,737070200222510.0,5752428382.272075,9381716178.613346,106422263856.47641,1952495057876.1384
20.36203449001343,1.319064202828811e+16,1.4686466328250216e+16,747422985193139.9,746248867226007.8,5969861634.370639,9736331204.707424,110444868464.45071,2026296481651.1035
20.869275179813698,1.3354096487866734e+16,1.4868510861939682e+16,756684825508284.5,755496158225059.0,6194358270.046449,10102466010.218468,114598148636.48534,2102495366706.8079
21.38666068340997,1.351878278940179e+16,1.5051929352012324e+16,766016465836967.4,764813139589595.1,6426132759.414942,10480470377.99989,118886072162.7613,2181164508674.5989
21.91439389707817,1.3684719783609128e+16,1.5236742863420446e+16,775418974319637.5,774200877782121.6,6665405968.079901,10870704521.426937,123312725152.82378,2262378873934.8506
22.452681775019734,1.385192632977896e+16,1.5422972473034646e+16,784893419582587.4,783660439750238.5,6912405342.911877,11273539387.387077,127882315472.55287,2346215662671.2827
23.00173541052013,1.402042130229108e+16,1.5610639276965452e+16,794440871107135.6,793192893295211.5,7167365103.0287895,11689356967.754282,132599176277.375,2432754373690.61
23.561770118730532,1.4190223596700182e+16,1.579976439740862e+16,804062399574437.8,802799307416269.5,7430526436.09355,12118550619.535538,137467769643.83923,2522076871046.5747
24.133005521105144,1.43613521353785e+16,1.5990368988999424e+16,813759077185213.5,812480752629806.9,7702137700.041128,12561525393.87199,142492690301.63504,2614267452506.216
24.715665631527248,1.4533825872694594e+16,1.6182474244652548e+16,823531977953192.1,822238301262381.8,7982454630.342513,13018698374.070402,147678669468.0451,2709412919895.1997
25.309978944157795,1.470766379970009e+16,1.6376101400856376e+16,833382177970676.4,832073027715861.8,8271740552.908449,13490499022.833008,153030578786.7287,2807602651356.646
25.91617852304095,1.4882884948287342e+16,1.6571271742380184e+16,843310755644133.1,841986008702639.2,8570266602.727949,13977369538.839863,158553434372.60135,2908928675556.094
26.53450209350177,1.5059508394772554e+16,1.6768006606344128e+16,853318791897231.0,851978323448345.6,8878311948.328236,14479765222.825956,164252400964.40588,3013485747861.6
27.165192135371807,1.5237553262849108e+16,1.69663273855898e+16,863407370338165.0,862051053858924.2,9196164022.131847,14998154853.276133,170132796186.38116,3121371428524.977
27.808495978079243,1.5417038725845804e+16,1.7166255531279502e+16,873577577387631.0,872205284648400.4,9524118756.773869,15533021071.840204,176200094920.1888,3232686162885.1694
28.464665897640828,1.559798400821483e+16,1.7367812554640028e+16,883830502363127.1,882442103423043.8,9862480827.426945,16084860778.546932,182459933787.98447,3347533363610.228
29.133959215593645,1.5780408386163004e+16,1.7571020027755038e+16,894167237514744.0,892762600717105.1,10211563900.164448,16654185536.865145,188918115747.19012,3466019494987.896
29.816638399905518,1.596433118732977e+16,1.7775899583298156e+16,904588878006888.5,903167869974576.1,10571690886.37094,17241521988.628296,195580614797.1383,3588254159268.0586
30.51297116790363,1.614977178940317e+16,1.7982472913086286e+16,915096521839890.5,913659007470904.6,10943194203.187477,17847412278.800842,202453580797.35925,3714350185052.676
31.223230591261704,1.6336749617555698e+16,1.819076176532097e+16,925691269704682.1,924237112167914.6,11326416039.951464,18472414490.021782,209543344396.765,3844423717719.5986
31.947695203086937,1.652528414056957e+16,1.84007879403731e+16,936374224763258.4,934903285494608.0,11721708630.563175,19117103086.813824,216856422072.4698,3978594311857.067
32.686649107148675,1.6715394865511928e+16,1.861257328495569e+16,947146492346967.2,945658631045922.2,12129434531.677835,19782069369.294064,224399521276.38303,4116985025674.6826
33.44038208929165,1.69071013308108e+16,1.8826139684517796e+16,958009179564147.5,956504254190990.4,12549966906.587173,20467921936.16355,232179545687.0531,4259722517344.597
34.20918973107749,1.710042309757294e+16,1.904150905368382e+16,968963394808188.2,967441261581979.6,12983689814.615713,21175287156.69133,240203600563.52838,4406937143213.571
34.993373525699035,1.729537973897837e+16,1.9258703324553224e+16,980010247156586.6,978470760554072.2,13430998505.815552,21904809651.339832,248478998197.24066,4558763057812.456
35.793240996213015,1.7491990827579108e+16,1.947774443266883e+16,991150845651246.5,989593858406918.5,13892299720.698183,22657152780.605186,257013263457.06317,4715338315574.453
36.60910581613728,1.7690275920325272e+16,1.9698654300457496e+16,1002386298450023.5,1000811661557496.5,14368011994.694864,23432999141.57025,265814139421.84824,4876804974157.344
37.44128793246003,1.7890254541138862e+16,1.9921454817941748e+16,1013717711839292.2,1012125274554240.6,14858565966.986141,24233051071.583237,274889593093.7914,5043309199247.843
38.29011369110923,1.80919461608538e+16,2.0146167820520996e+16,1025146189097286.6,1023535798942162.8,15364404693.288883,25058031158.390217,284247821184.99805,5215001370708.029
39.15591596493141,1.8295370174342988e+16,2.0372815063622456e+16,1036672829198050.6,1035044331968839.9,15885983962.133339,25908682755.960857,293897255968.618,5392036189905.691
40.03903428423004,1.8500545874655228e+16,2.06014181940248e+16,1048298725345954.9,1046651965121231.9,16423772614.106226,26785770505.15126,303846571184.84515,5574572788050.25
40.93981496991464,1.870749242399185e+16,2.0831998717663764e+16,1060024963331136.2,1058359782483709.8,16978252863.47718,27690080858.253662,314104687991.00964,5762774835336.849
41.85861126931294,1.891622882136044e+16,2.1064577963740092e+16,1071852619696660.4,1070168858908086.5,17549920621.565952,28622422606.386272,324680780943.85956,5956810650680.42
42.7957834946992,1.9126773866754104e+16,2.129917704495906e+16,1083782759708817.4,1082080257987106.0,18139285821.147552,29583627408.57529,335584284001.0536,6156853311801.024
43.751699164593184,1.9339146121718896e+16,2.1535816813750184e+16,1095816435122731.1,1094095029823572.2,18746872741.131256,30574550321.28478,346824896527.7074,6363080765401.58
44.72673314788505,1.9553363866187148e+16,2.1774517814328884e+16,1107954681736411.1,1106214208588228.8,19373220330.689705,31596070327.04883,358412589292.76965,6575675937157.921
45.721267810842754,1.976944505147345e+16,2.2015300230486424e+16,1120198516727354.4,1118438809860551.6,20018882531.953354,32649090860.765255,370357610438.8441,6794826841221.245
