t(s),Total solute volume 1,Total retention volume 1,Total 1 volume 1,Total 2 volume 1,Total 3 volume 1,Total 4 volume 1,Total 5 volume 1,Total 6 volume 1
0.1,1117071271046687.6,1512117690109863.2,171218609237430.47,223827809825744.56,0.0,0.0,0.0,0.0
0.202,1486485620747799.8,2488253963400412.0,227840433822005.16,297847453974890.06,317618557794.38544,784208154816.8065,16562256431946.977,458416371711158.75
0.30604000000000003,1685675753983994.8,3372679439758791.0,258371214875092.1,337759227662289.44,727515855892.3904,1796319591705.0393,37939289079491.086,1050410118710325.4
0.41216080000000005,1811487183278702.2,4228371848542798.5,277654906986288.53,362968093216795.7,1184409302816.7905,2924547064171.1333,61769279298951.88,1710383429395074.5
0.5204040160000001,1898203330872958.0,5076289526333480.0,290946286811727.9,380343428102483.0,1671354126258.8145,4127063516080.0605,87168667453161.75,2413829395450813.5
0.6308120963200001,1961500286384367.5,5925879731753026.0,300648100164120.9,393026254033835.56,2180510580015.0479,5384520205644.931,113728737079289.34,3149411323305755.5
0.7434283382464002,2009645230951446.0,6782222953084111.0,308027495632188.7,402673068004192.5,2707809532678.5063,6686877359229.356,141237413331247.5,3911245058273135.5
0.8582969050113283,2047428050452731.5,7648405005764068.0,313818640888081.1,410243620553244.7,3250988051990.5186,8028554538329.087,169576820019944.47,4696058331259744.0
0.9754628431115548,2077818884953484.0,8526482832548059.0,318476782857155.56,416333039333382.1,3808738319887.3203,9406329539327.133,198678896712561.03,5501960160832263.0
1.094972099973786,2102757471107376.0,9417935036837536.0,322299233830723.5,421329989828254.75,4380296090542.072,10818322412463.078,228503937466073.12,6327845786102108.0
1.2168715419732616,2123563807439740.8,1.0323893764067574e+16,325488316008392.75,425498960449832.56,4965224918958.773,12263462788444.078,259029338731114.03,7173084653731074.0
1.3412089728127268,2141166822199840.0,1.1245273331403256e+16,328186410463497.7,429026080768476.0,5563295699033.404,13741192500334.395,290243317543306.9,8037346212228772.0
1.4680331522689813,2156238786279772.8,1.2182845940707776e+16,330496559224682.75,432046053860406.6,6174415929244.385,15251290970997.45,322141222983987.5,8920497611458682.0
1.597393815314361,2169277909200708.8,1.3137288450652374e+16,332495125139717.1,434658706084497.8,6798586414338.658,16793768333806.066,354723278433320.6,9822541077045990.0
1.729341691620648,2180661016498467.5,1.4109212459302488e+16,334239865978829.1,436939542062190.06,7435873820782.446,18368797693063.46,387993150615048.75,1.0743574212634128e+16
1.863928525453061,2190678226624448.2,1.5099184328072894e+16,335775249521598.1,438946692896161.56,8086392758217.611,19976670902509.934,421957015444598.9,1.1683764079925366e+16
2.001207095962122,2199556410879849.8,1.6107738912699126e+16,337136049368165.1,440725616842787.44,8750293779887.329,21617768957055.105,456622932574644.1,1.2643329840296748e+16
2.1412312378813647,2207475448043494.2,1.7135389228882606e+16,338349836360231.94,442312356255698.75,9427755169513.684,23292541733092.69,492000417427132.25,1.3622530873893458e+16
2.284055862638992,2214579726082221.8,1.8182633417624776e+16,339438741500721.56,443735842186175.94,10118977213218.943,25001493864554.12,528100142842780.25,1.4621658493935112e+16
2.4297369798917723,2220986434286228.8,1.924995987270965e+16,340420726927215.44,445019555880246.56,10824178139822.193,26745174738563.633,564933727758268.0,1.5641030074979342e+16
2.578331719489608,2226791642337710.2,2.0337851090157616e+16,341310517678554.6,446182746843088.7,11543591204201.508,28524171313851.742,602513585515849.5,1.6680984835264344e+16
2.7298983538794,2232074824625510.8,2.1446786611826268e+16,342120295157201.6,447241339377023.7,12277462568276.803,30339102909128.66,640852813790270.2,1.774188077339886e+16
2.884496320956988,2236902273718432.5,2.257724531593291e+16,342860220327875.44,448208616539960.1,13026049747891.197,32190617389377.477,679965114048684.6,1.8824092424160684e+16
3.0421862473761276,2241329707934778.8,2.372970722950851e+16,343538833391645.06,449095742624721.9,13789620467336.486,34079388359400.22,719864732290777.5,1.9928009204439864e+16
3.2030299723236504,2245404286033410.8,2.4904654986080764e+16,344163362586817.75,449912166843169.06,14568451811664.074,36006113093432.49,760566415340292.6,2.1054034190371984e+16
3.3670905717701234,2249166180144293.8,2.6102575016836324e+16,344739965279195.3,450665938494662.6,15362829599374.049,37971511009758.68,802085378651620.4,2.2202583213657412e+16
3.5344323832055258,2252649815658189.0,2.7323958539347864e+16,345273918005617.6,451363955403057.1,16173047920191.594,39976322553860.1,844437282748566.9,2.337408419705837e+16
3.7051210308696363,2255884857310257.0,2.8569302391026316e+16,345769767615505.7,452012161498503.5,16999408797937.217,42021308391398.11,887638216210271.6,2.4568976671202452e+16
3.879223451487029,2258896999897406.5,2.9839109742430812e+16,346231452467716.7,452615705253678.94,17842221949227.23,44107248838826.01,931704683678939.4,2.578771143034504e+16
4.0568079205167695,2261708607211034.0,3.113389071690924e+16,346662400362684.56,453179067706878.75,18701804616360.812,46234943478234.31,976653597761393.4,2.7030750295772616e+16
4.237944078927105,2264339232021542.5,3.2454162936725364e+16,347065608242818.06,453706166651454.9,19578481458226.555,48405210916560.586,1022502273982262.1,2.829856596345251e+16
4.422702960505647,2266806042093125.0,3.3800452011176164e+16,347443707489735.1,454200441996485.2,20472584487041.71,50618888659118.52,1069268428154107.2,2.9591641918296504e+16
4.61115701971576,2269124171400088.5,3.5173291978728388e+16,347799017756790.56,454664926140082.2,21384453041657.02,52876833074617.21,1116970175682260.6,3.091047240163289e+16
4.803380160110075,2271307011382463.0,3.657322571259729e+16,348133591611151.75,455102302328341.06,22314433790327.22,55179919434185.39,1165626032435066.8,3.225556242161577e+16
4.9994477633122765,2273366453815131.5,3.800080529720177e+16,348449251759462.4,455514953319094.1,23262880757463.67,57529042010917.56,1215254916894707.5,3.3627427798644892e+16
5.199436718578522,2275313094385816.0,3.945659238141341e+16,348747622251169.56,455905002172870.9,24230155370108.914,59925114229473.02,1265876153367570.8,3.5026595239636344e+16
5.403425452950093,2277156404178955.0,4.0941158513342824e+16,349030154762638.44,456274346613173.1,25216626520799.473,62369068857552.43,1317509476081456.2,3.64536024363282e+16
5.611493962009095,2278904874797961.0,4.245508546049035e+16,349298150840704.0,456624688104651.25,26222670644193.777,64861858232833.74,1370175034034178.8,3.790899818383591e+16
5.823723841249277,2280566141720111.0,4.399896551837591e+16,349552780809838.94,456957556569753.4,27248671805391.79,67404454520304.13,1423893396486607.8,3.9393342516464e+16
6.040198318074262,2282147089587753.5,4.557340181019393e+16,349795099910618.25,457274331485948.25,28295021798296.074,69997849995977.49,1478685559015572.0,4.090720685839979e+16
6.261002284435747,2283653942438177.5,4.717900857959299e+16,350026062129663.3,457576259965114.56,29362120252698.426,72643057353810.81,1534572950059356.5,4.245117418739417e+16
6.486222330124463,2285092341318930.5,4.881641147832002e+16,350246532096094.0,457864472305330.5,30450374749036.715,75341110033279.4,1591577437902242.0,4.4025839209915096e+16
6.715946776726952,2286467411292487.0,5.04862478501802e+16,350457295351642.5,458139995416620.2,31560200939972.395,78093062565583.61,1649721338055343.8,4.563180854655856e+16
6.950265712261491,2287783819479425.5,5.2189167012531976e+16,350659067247196.25,458403764451080.4,32692022678104.95,80899990936868.23,1709027420999681.5,4.726970092673966e+16
7.18927102650672,2289045825503500.0,5.39258305363473e+16,350852500674740.6,458656632910565.3,33846272149269.098,83762992967160.58,1769518920264268.2,4.8940147391877784e+16
7.433056447036854,2290257325470503.5,5.569691252571169e+16,351038192808204.7,458899381458751.56,35023390010966.42,86683188704001.19,1831219540817519.0,5.064379150644169e+16
7.681717575977592,2291421890424833.0,5.750309989751443e+16,351216690997874.0,459132725626681.56,36223825535567.84,89661720829942.28,1894153467754933.8,5.238128957634467e+16
7.935351927497144,2292542800073656.5,5.934509266197447e+16,351388497939443.56,459357322570086.8,37448036757992.55,92699755083277.58,1958345375269446.0,5.4153310874280664e+16
8.194058966047088,2293623072442492.5,6.122360420455808e+16,351554076219471.25,459573777011484.5,38696490627624.27,95798480691492.78,2023820435894005.2,5.596053787167146e+16
8.45794014536803,2294665490022075.5,6.313936156978052e+16,351713852323018.3,459782646479227.9,39969663164270.66,98959110817054.92,2090604330008322.8,5.7803666476966584e+16
8.72709894827539,2295672622880055.5,6.5093105747316584e+16,351868220176090.6,459984445938400.2,41268039618012.43,102182883015244.14,2158723255603748.0,5.9683406280085016e+16
9.0016409272409,2296646849139830.0,6.708559196080026e+16,352017544284526.6,460179651894177.7,42592114632814.12,105471059703821.08,2228203938301957.0,6.160048080284311e+16
9.281673745785717,2297590373169188.5,6.911758995964989e+16,352162162521841.56,460368706036272.56,43942392413798.66,108824928644378.5,2299073641624551.5,6.355562775523988e+16
9.567307220701432,2298505241771357.5,7.118988431422158e+16,352302388610916.25,460552018483156.1,45319386898106.68,112245803435292.17,2371360177511793.5,6.554959929751095e+16
9.85865336511546,2299393358629457.5,7.330327471456213e+16,352438514337956.25,460729970676279.7,46723621929278.92,115735024016225.72,2445091917089728.5,6.758316230788328e+16
10.155826432417769,2300256497219914.0,7.545857627301083e+16,352570811531793.94,460902917967555.7,48155631435115.17,119293957184186.4,2520297801685890.0,6.965709865598644e+16
10.458942961066125,2301096312380689.5,7.765661983087397e+16,352699533837003.3,461071191937272.3,49615959608974.06,122923997121165.19,2597007354094328.5,7.177220548189454e+16
10.768121820287448,2301914350694908.5,7.98982522693828e+16,352824918305439.75,461235102474670.56,51105161094490.59,126626565933418.73,2675250690091496.0,7.392929548078837e+16
11.083484256693197,2302712059828909.5,8.218433682512637e+16,352947186827539.6,461394939649014.1,52623801173693.66,130403114202482.56,2755058530204984.0,7.612919719323968e+16
11.405153941827061,2303490796945697.5,8.451575341013907e+16,353066547421872.4,461550975395386.9,54172455958514.28,134255121548020.27,2836462211737561.5,7.837275530113195e+16
11.733257020663602,2304251836298790.0,8.689339893681272e+16,353183195399096.1,461703465036282.25,55751712585681.88,138184097202639.22,2919493701049537.5,8.066083092924062e+16
12.067922161076874,2304996376098416.0,8.931818764779088e+16,353297314414362.5,461852648657375.9,57362169415008.93,142191580598816.9,3004185606102597.5,8.299430195250429e+16
12.409280604298411,2305725544730140.0,9.179105145099622e+16,353409077420483.25,461998752353563.6,59004436231069.664,146279141968097.47,3090571189268791.0,8.537406330902411e+16
12.75746621638438,2306440406396446.0,9.431294025993531e+16,353518647532634.0,462141989359360.3,60679134448281.89,150448382952732.25,3178684380408618.5,8.780102731883723e+16
13.112615540712067,2307141966242940.5,9.688482233941725e+16,353626178814070.56,462282561076035.7,62386897319402.555,154700937229954.38,3268559790222360.5,9.027612400851242e+16
13.474867851526309,2307831175023569.0,9.950768465681936e+16,353731816991193.0,462420658006391.6,64128370147450.91,159038471149081.16,3360232723879109.0,9.280030144162266e+16
13.844365208556836,2308508933352809.5,1.0218253323902546e+17,353835700105297.2,462556460606776.3,65904210501074.766,163462684381656.3,3453739194928216.5,9.537452605514962e+16
14.221252512727972,2309176095587239.5,1.0491039353516251e+17,353937959107516.5,462690140064824.75,67715088433376.31,167975310584850.0,3549115939498002.0,9.799978300188656e+16
14.605677562982532,2309833473373876.0,1.0769231078525258e+17,354038718402696.06,462821859010448.4,69561686704214.84,172578118078344.66,3646400430786909.0,1.0067707649889629e+17
14.997791114242183,2310481838898599.5,1.1052935039490114e+17,354138096347293.06,462951772166724.8,71444701006005.52,177272910534943.25,3745630893852341.5,1.0340743018209528e+17
15.397746936527026,2311121927864231.0,1.1342259831612949e+17,354236205705839.06,463080026946607.4,73364840193031.98,182061527685146.4,3846846320702691.0,1.0619188746703182e+17
15.805701875257567,2311754442224441.0,1.1637316143446918e+17,354333154069978.44,463206764000722.4,75322826514292.62,186945846035950.9,3950086485698330.5,1.090315119159253e+17
16.221815912762718,2312380052696961.5,1.1938216796242515e+17,354429044243681.5,463332117720950.25,77319395849898.8,191927779604129.06,4055391961267262.0,1.1192738761104197e+17
16.64625223101797,2312999401077059.0,1.2245076783941232e+17,354523974597839.8,463456216703963.2,79355297951044.11,197009280664261.4,4162804133941579.0,1.148806195344765e+17
17.079177275638333,2313613102369867.0,1.2558013313827842e+17,354618039397098.56,463579184178490.44,81431296683561.98,202192340511796.72,4272365220720903.0,1.1789233395441674e+17
17.5207608211511,2314221746758398.0,1.2877145847850866e+17,354711329101502.8,463701138399646.25,83548170275092.25,207478990241418.88,4384118285769134.5,1.2096367881796344e+17
17.97117603757412,2314825901422170.0,1.3202596144622194e+17,354803930645248.94,463822193013330.56,85706711565867.69,212871301541019.34,4498107257451104.5,1.240958241505831e+17
18.430599558325603,2315426112220036.5,1.3534488302105568e+17,354895927694616.8,463942457393414.4,87907728263143.27,218371387501564.1,4614376945715766.0,1.2728996246226725e+17
18.899211549492115,2316022905249241.5,1.3872948801004146e+17,354987400886931.25,464062036954130.94,90152043199276.95,223981403443165.72,4732973059832794.0,1.3054730916047576e+17
19.37719578048196,2316616788291681.0,1.4218106548856736e+17,355078428052243.44,464181033439858.44,92440494593480.95,229703547757666.88,4853942226489711.0,1.3386910296994256e+17
19.864739696091597,2317208252157170.0,1.45700929248528e+17,355169084419215.75,464299545194284.06,94773936317248.62,235540062768059.4,4977332008256591.0,1.3725660635941547e+17
20.36203449001343,2317797771932710.5,1.4929041825375613e+17,355259442806602.94,464417667410703.2,97153238163476.12,241493235605057.78,5103190922425729.0,1.407111059754117e+17
20.869275179813698,2318385808145695.0,1.5295089710282835e+17,355349573801538.94,464535492365099.7,99579286119278.78,247565399101166.12,5231568460233972.0,1.4423391308306176e+17
21.38666068340997,2318972807848345.0,1.566837564993471e+17,355439545925761.4,464653109633437.06,102052982642517.36,253758932702572.06,5362515106475163.0,1.4782636401411885e+17
21.91439389707817,2319559205630067.0,1.6049041372977795e+17,355529425790772.1,464770606294498.2,104575246942031.6,260076263399218.56,5496082359510652.0,1.5148982062221056e+17
22.452681775019734,2320145424563621.5,1.64372313148947e+17,355619278242865.06,464888067119475.1,107147015261590.1,266519866673405.22,5632322751686052.0,1.552256707454002e+17
23.00173541052013,2320731877090582.5,1.6833092667327843e+17,355709166498845.7,465005574749386.4,109769241167552.5,273092267467281.06,5771289870162184.0,1.5903532867614282e+17
23.561770118730532,2321318965851092.0,1.723677542818651e+17,355799152273204.56,465123209861330.44,112442895840245.02,279796041169593.9,5913038378168854.0,1.6292023563870064e+17
24.133005521105144,2321907084462293.5,1.7648432452545424e+17,355889295897438.3,465241051324470.75,115168968369042.8,286633814622078.44,6057624036689874.0,1.6688186027408915e+17
24.715665631527248,2322496618249710.5,1.8068219504344394e+17,355979656432149.56,465359176346573.6,117948466051153.11,293608267145858.6,6205103726588128.0,1.7092169913263046e+17
25.309978944157795,2323087944935187.0,1.8496295308895706e+17,356070291772492.94,465477660611856.8,120782414694086.88,300722131588259.7,6355535471179663.0,1.7504127717417533e+17
25.91617852304095,2323681435284965.0,1.8932821606209018e+17,356161258747500.0,465596578410841.1,123671858921808.31,307978195390427.8,6508978459265820.0,1.792421482760688e+17
26.53450209350177,2324277453720874.0,1.9377963205140902e+17,356252613213767.7,465716002762811.5,126617862484543.6,315379301676162.3,6665493068632917.0,1.8352589574891805e+17
27.165192135371807,2324876358897608.5,1.9831888038376765e+17,356344410143942.2,465836005531497.06,129621508572227.56,322928350362370.25,6825140890028701.0,1.8789413286023142e+17
27.808495978079243,2325478504248762.0,2.0294767218253168e+17,356436703710403.2,465956657534472.06,132683900131567.78,330628299291578.8,6987984751625657.0,1.9234850336598925e+17
28.464665897640828,2326084238503944.0,2.07667750934273e+17,356529547364527.75,466078028646766.6,135806160186696.12,338482165386913.25,7154088743980744.0,1.9689068205020387e+17
29.133959215593645,2326693906179231.5,2.1248089306401302e+17,356622993911867.8,466200187899150.94,138989432163374.2,346493025830004.5,7323518245501841.0,2.015223752725274e+17
29.816638399905518,2327307848043020.0,2.1738890851907293e+17,356717095583554.1,466323203571468.94,142234880216721.75,354664019262251.0,7496339948431374.0,2.0624532152396432e+17
30.51297116790363,2327926401559198.5,2.2239364136161066e+17,356811904104214.1,466447143281437.56,145543689562423.12,362998347009900.7,7672621885357204.0,2.1106129199073613e+17
31.223230591261704,2328549901309220.5,2.274969703698909e+17,356907470756677.5,466572074069223.9,148917066811367.9,371499274333413.75,7852433456262242.0,2.1597209112634883e+17
31.947695203086937,2329178679394906.5,2.3270080964835933e+17,357003846443705.7,466698062478146.0,152356240307675.53,380170131701580.25,8035845456123023.0,2.209795572319104e+17
32.686649107148675,2329813065823237.0,2.3800710924656982e+17,357101081746973.06,466825174631779.0,155862460470050.75,389014316090872.2,8222930103068965.0,2.260855630447382e+17
33.44038208929165,2330453388874617.5,2.434178557870207e+17,357199226983518.5,466953476307744.5,159437000136406.94,398035292310514.56,8413761067113642.0,2.312920163352941e+17
34.20918973107749,2331099975455870.0,2.489350731019462e+17,357298332259841.2,467083033008438.7,163081154911690.78,407236594353784.0,8608413499469525.0,2.366008605124871e+17
34.993373525699035,2331753151439099.5,2.5456082287910963e+17,357398447523847.5,467213910028932.6,166796243518837.38,416621826776036.44,8806964062458400.0,2.4201407523736432e+17
35.793240996213015,2332413241987544.5,2.6029720531663472e+17,357499622614788.94,467346172522256.8,170583608152782.03,426194666099984.7,9009490960029400.0,2.4753367704522762e+17
36.60910581613728,2333080571869330.0,2.661463597869135e+17,357601907311360.8,467479885562277.4,174444614837433.97,435958862248743.94,9216073968897212.0,2.5316171997618717e+17
37.44128793246003,2333755465760251.5,2.7211046550962493e+17,357705351378104.2,467615114204358.2,178380653785530.28,445918240007197.44,9426794470312878.0,2.589002962141765e+17
38.29011369110923,2334438248536231.0,2.781917422338783e+17,357810004610234.3,467751923543964.56,182393139761267.44,456076700512208.06,9641735482480320.0,2.647515367344343e+17
39.15591596493141,2335129245556452.0,2.8439245092951658e+17,357915916877035.75,467890378773387.2,186483512445606.94,466438222772254.56,9860981693631816.0,2.7071761195946e+17
40.03903428423004,2335828782937759.5,2.90714894487583e+17,358023138163930.8,468030545236736.9,190653236804140.56,477006865217034.9,1.0084619495775348e+16,2.7680073242344845e+17
40.93981496991464,2336537187821215.5,2.971614184299666e+17,358131718613318.0,468172488483339.7,194903803457394.47,487786767277625.8,1.0312737019128376e+16,2.8300314944518496e+17
41.85861126931294,2337254788631265.0,3.037344116282237e+17,358241708564313.2,468316274319678.4,199236729053445.34,498782150997786.4,1.0545424167251086e+16,2.89327155809406e+17
42.7957834946992,2337981915328313.0,3.104363070315759e+17,358353158591456.25,468461968859997.8,203653556642709.88,509997322676991.9,1.0782772652894066e+16,2.957750864565826e+17
