t(s),Total solute volume 1,Total retention volume 1,Total 1 volume 1,Total 2 volume 1,Total 3 volume 1,Total 4 volume 1,Total 5 volume 1,Total 6 volume 1
0.1,1225891390677807.5,1918426285810987.5,281662698191601.44,410872196941578.9,0.0,0.0,0.0,0.0
0.202,1844536202465452.0,2886875363011075.5,423803490897968.3,618218462854817.1,119706943.18846536,349828840.2157601,9503274867.146074,307233982188.4981
0.30604000000000003,2316199808302920.5,3625481214073290.5,532173651226322.3,776302190379212.8,303636993.6015769,887344396.1757346,24107855142.0953,780265328302.9741
0.41216080000000005,2715182029505394.0,4250483716406347.0,623844423823201.0,910025876254616.9,539261475.0716811,1575931853.686947,42817714238.32319,1386453915569.2292
0.5204040160000001,3069476572261939.0,4805676023581875.0,705247686184453.0,1028771949158549.1,821009330.683043,2399310235.8432055,65190307845.28486,2111405349528.33
0.6308120963200001,3393048609071726.0,5312904595761213.0,779592098009914.2,1137221004844708.5,1145888936.4507868,3348736785.39039,90988022933.59998,2947401186213.1436
0.7434283382464002,3694019116181560.0,5784873579550427.0,848743547386727.6,1238094886206156.0,1512187226.87341,4419205225.38503,120074802688.83754,3890023580834.1504
0.8582969050113283,3977591896002820.0,6229723947579383.0,913897668016362.4,1333137710196192.5,1918934916.6627977,5607882909.615915,152373663712.09973,4936772882467.4375
0.9754628431115548,4247333394382731.5,6653035612460409.0,975873892018441.8,1423544814014144.0,2365642943.8009143,6913340599.582236,187845761720.97894,6086387299826.253
1.094972099973786,4505811827877748.0,7058827223405496.0,1035262296804416.6,1510176966306862.8,2852156486.327709,8335125841.528669,226478796877.64664,7338466337267.626
1.2168715419732616,4754948176565383.0,7450105209629850.0,1092504249730060.2,1593678006633257.2,3378567228.527623,9873506572.426786,268280045828.55865,8693244581522.541
1.3412089728127268,4996223247842757.0,7829187670396746.0,1147939983394617.5,1674544245387044.8,3945157376.79976,11529307511.601963,313271915467.88116,10151447391957.953
1.4680331522689813,5230806867831192.0,8197906450225223.0,1201838278858013.2,1753167763849530.0,4552362273.624976,13303800903.608076,361488973806.54095,11714194549501.133
1.597393815314361,5459642202619883.0,8557739026403243.0,1254415839420366.8,1829864675468188.8,5200744538.84712,15198630948.609434,412975896346.00256,13382933622977.51
1.729341691620648,5683502872842365.0,8909897840044578.0,1305850413355513.5,1904894268493552.0,5890975689.357613,17215760087.694164,467786006379.6686,15159392610976.422
1.863928525453061,5903032860851975.0,9255392712282716.0,1356289963045389.2,1978472381348713.5,6623822797.262313,19357430012.67317,525980215440.1443,17045545568402.055
2.001207095962122,6118775141270388.0,9595075622729168.0,1405859243179213.8,2050780998501805.2,7400138652.8237295,21626132918.249557,587626242085.496,19043587264106.18
2.1412312378813647,6331192694012304.0,9929673573753744.0,1454664628738528.0,2121975293233690.2,8220854433.276976,24024590077.363556,652798029692.862,21155914295008.69
2.284055862638992,6540684234913794.0,1.025981319310021e+16,1502797729290739.2,2192188899947141.2,9086974206.948109,26555735780.030052,721575310004.0283,23385110928566.605
2.4297369798917723,6747596198472779.0,1.0586039474995934e+16,1550338142162104.5,2261537930326306.5,9999570810.614727,29222705285.3442,794043275727.3818,25733938482927.656
2.578331719489608,6952232007292174.0,1.0908830277943904e+16,1597355582199319.0,2330124080101910.0,10959782774.412348,32028825834.83738,870292336330.5663,28205327405563.57
2.7298983538794,7154859341748322.0,1.122860769518374e+16,1643911552059816.0,2398037065568051.5,11968812060.09445,34977610042.77995,950417938425.1835,30802371446995.805
2.884496320956988,7355715912001196.0,1.154574708313847e+16,1690060668397735.8,2465356558140700.0,13027922441.267923,38072751162.59508,1034520437133.4269,33528323488090.824
3.0421862473761276,7555014092132284.0,1.1860584310547008e+16,1735851726610617.2,2532153737544752.5,14138438398.227812,41318119857.13842,1122705008321.0315,36386592692780.96
3.2030299723236504,7752944678442013.0,1.2173421638085844e+16,1781328564351655.0,2598492551452534.0,15301744431.402723,44717762192.32732,1215081594073.611,39380742738940.1
3.3670905717701234,7949679965578703.0,1.248453253136764e+16,1826530768305813.8,2664430746485391.5,16519284720.183704,48275898640.11977,1311764875601.063,42514490938785.25
3.5344323832055258,8145376285578687.0,1.2794165634205208e+16,1871494257563637.0,2730020719203480.5,17792563070.66161,51996923925.80097,1412874269085.1492,45791708103330.836
3.7051210308696363,8340176119839161.0,1.3102548074198744e+16,1916251768871399.5,2795310223958876.5,19123143108.296604,55885407591.05968,1518533940977.8396,49216419037625.39
3.879223451487029,8534209868403017.0,1.3409888232602012e+16,1960833263144707.0,2860342965892597.0,20512648680.985367,59946095171.93365,1628872840008.0007,52792803577819.38
4.0568079205167695,8727597341943431.0,1.3716378080721606e+16,2005266268269200.0,2925159100991182.5,21962764445.20751,64183909911.78541,1744024743726.87,56525198099703.03
4.237944078927105,8920449027607633.0,1.4022195162851982e+16,2049576169942780.2,2989795660349440.0,23475236613.50627,68603954945.76325,1864128317865.5557,60418097442708.02
4.422702960505647,9112867169103152.0,1.4327504288896844e+16,2093786459837877.5,3054286912174361.5,25051873845.90559,73211515905.90422,1989327187122.8801,64476157204567.26
4.61115701971576,9304946693168822.0,1.463245898693978e+16,2137918948468888.2,3118664672302952.0,26694548271.290253,78012063906.03981,2119770016273.9658,68704196370643.97
4.803380160110075,9496776008210240.0,1.4937202756077748e+16,2181993948687861.2,3182958571874508.5,28405196627.49473,83011258873.62012,2255610600705.728,73107200248946.84
4.9994477633122765,9688437695926054.0,1.5241870152085108e+16,2226030434593669.8,3247196289137542.5,30185821511.024086,88214953201.92769,2397007965658.6304,77690323687458.38
5.199436718578522,9880009112863572.0,1.5546587732395122e+16,2270046179746299.5,3311403751068289.0,32038492729.09124,93629195701.30083,2544126473593.5483,82458894554931.88
5.403425452950093,1.0071562915766376e+16,1.5851474882079092e+16,2314057877871596.0,3375605309447322.5,33965348748.081974,99260235832.16052,2697135939216.2793,87418417470002.31
5.611493962009095,1.0263167522128396e+16,1.6156644538671682e+16,2358081248678825.0,3439823895219759.5,35968598233.73536,105114528206.0685,2856211751785.441,92574577766466.31
5.823723841249277,1.045488751540429e+16,1.6462203830621664e+16,2402131130962444.0,3504081154306403.0,38050521679.29143,111198737343.86044,3021535004406.042,97933245685089.42
6.040198318074262,1.064678400274189e+16,1.6768254641669474e+16,2446221564795296.0,3568397567502054.5,40213473118.665245,117519742682.26474,3193292630075.304,103500480784362.89
6.261002284435747,1.0838914931816086e+16,1.7074894111441582e+16,2490365864324851.5,3632792556666226.0,42459881922.37567,124084643822.3654,3371677544300.2695,109282536564366.3
6.486222330124463,1.1031335372294016e+16,1.7382215080910782e+16,2534576682443027.5,3697284579059543.5,44792254674.528946,130900766014.9396,3556888794152.163,115285865299355.62
6.715946776726952,1.1224097766599312e+16,1.7690306490024564e+16,2578866068402241.5,3761891211390420.5,47213177129.63186,137975665879.09506,3749131713660.4575,121517123075927.3
6.950265712261491,1.1417252153933522e+16,1.7999253733692684e+16,2623245519286867.5,3826629224898514.5,49725316248.42634,145317137351.83627,3948618085482.0425,127983175034678.64
7.18927102650672,1.1610846370923172e+16,1.8309138981404584e+16,2667726026114232.5,3891514652604007.5,52331422312.28279,152933217867.2232,4155566308809.3174,134691100814175.22
7.433056447036854,1.1804926231771268e+16,1.8620041464981572e+16,2712318115226535.5,3956562849687560.0,55034331116.0034,160832194764.6646,4370201573504.834,141648200196842.6
7.681717575977592,1.1999535690382166e+16,1.8932037738327104e+16,2757031885540845.0,4021788547828375.5,57836966239.14396,169022611926.69037,4592756040471.58,148861998957068.28
7.935351927497144,1.2194716986584202e+16,1.9245201912500944e+16,2801877042145503.5,4087205904212512.5,60742341396.20273,177513276647.19763,4823469028286.337,156340254912411.78
8.194058966047088,1.239051077828503e+16,1.9559605868990644e+16,2846862926664280.0,4152828545826283.0,63753562866.22751,186313266731.79807,5062587206140.027,164090964179346.56
8.45794014536803,1.2586956261148502e+16,1.9875319453667924e+16,2891998544753579.5,4218669609567458.0,66873832002.5785,195431937832.41193,5310364793143.423,172122367635432.34
8.72709894827539,1.278409127717437e+16,2.019241065359436e+16,2937292591049818.5,4284741778637015.0,70106447823.74493,204878931018.7377,5567063764069.826,180442957590240.47
9.0016409272409,1.2981952413383616e+16,2.051094575856153e+16,2982753471843568.0,4351057315614705.5,73454809686.26564,214664180589.66974,5832954061618.085,189061484667734.47
9.281673745785717,1.3180575091661008e+16,2.083098950901443e+16,3028389325721883.5,4417628092570912.5,76922420040.93774,224797922128.1158,6108313815289.659,197986964903161.88
9.567307220701432,1.3379993650675982e+16,2.115260523180287e+16,3074208042390625.5,4484465618523378.5,80512887273.61836,235290700803.03836,6393429566983.865,207228687057819.75
9.85865336511546,1.358024142069127e+16,2.1475854965031428e+16,3120217279862534.5,4551581064510234.0,84229928632.04349,246153379922.8687,6688596503424.007,216796220155363.3
10.155826432417769,1.3781350791971478e+16,2.1800799573126536e+16,3166424480174933.5,4618985286517959.0,88077373240.1859,257397149744.76038,6994118695535.576,226699421243590.16
10.458942961066125,1.3983353277420656e+16,2.2127498853109704e+16,3212836883781449.5,4686688846475073.0,92059165201.77977,269033536544.41986,7310309344905.624,236948443385882.78
10.768121820287448,1.4186279570005166e+16,2.2456011632951884e+16,3259461542745552.0,4754702031498186.0,96179366794.72856,281074411951.54254,7637491037459.64,247553743886750.44
11.083484256693197,1.4390159595455266e+16,2.278639586278503e+16,3306305332849335.5,4823034871555488.0,100442161758.19908,293532002556.1236,7975996004499.127,258526092756097.34
11.405153941827061,1.4595022560683336e+16,2.3118708699663052e+16,3353374964718198.0,4891697155694682.0,104851858674.29063,306418899791.14667,8326166391250.065,269876581417107.53
11.733257020663602,1.4800896998308824e+16,2.345300658648638e+16,3400676994050974.5,4960698446966187.0,109412894446.24348,319748070097.4276,8688354533078.136,281616631662800.8
12.067922161076874,1.5007810807638032e+16,2.3789345325640664e+16,3448217831035442.5,5030048096157863.0,114129837875.23131,333532865376.5426,9062923239532.947,293758004866528.44
12.409280604298411,1.5215791292409546e+16,2.4127780147841716e+16,3496003749020882.5,5099755254445924.0,119007393337.85059,347787033738.05817,9450246086389.367,306312811451858.56
12.75746621638438,1.5424865195583582e+16,2.4468365776628216e+16,3544040892511218.0,5169828885054927.0,124050404566.49495,362524730547.4264,9850707715859.904,319293520627499.0
13.112615540712067,1.5635058731424432e+16,2.4811156488898172e+16,3592335284536412.0,5240277774010762.0,129263858534.86838,377760529781.1477,10264704145156.146,332712970393053.56
13.474867851526309,1.5846397615101318e+16,2.515620617184668e+16,3640892833453543.0,5311110540061471.0,134652889450.95694,393509435695.9863,10692643083585.016,346584377821609.0
13.844365208556836,1.605890709000738e+16,2.5503568376626268e+16,3689719339223723.5,5382335643833803.0,140222782859.84976,409786894819.20416,11134944258368.535,360921349625306.06
14.221252512727972,1.6272611952980624e+16,2.585329636902127e+16,3738820499206855.5,5453961396286117.0,145978979858.8554,426608808266.98505,11592039749381.896,375737893010206.2
14.605677562982532,1.648753657758912e+16,2.6205443177399324e+16,3788201913511654.5,5525995966512797.0,151927081427.43152,443991544398.3896,12064374333009.564,391048426826942.3
14.997791114242183,1.6703704935629222e+16,2.656006163817784e+16,3837869089935200.5,5598447388949659.0,158072852874.4978,461951951812.3647,12552405835323.906,406867793023782.56
15.397746936527026,1.6921140616971222e+16,2.6917204439024e+16,3887827448522611.0,5671323570025356.0,164422228405.7692,480507372695.512,13056605494795.475,423211268408920.44
15.805701875257567,1.7139866847873052e+16,2.7276924159983428e+16,3938082325774889.5,5744632294299489.0,170981315813.80496,499675656528.4912,13577458334749.379,440094576728914.75
16.221815912762718,1.7359906507872678e+16,2.7639273312718804e+16,3988638978530104.5,5818381230124386.0,177756401293.5309,519475174159.1018,14115463545785.975,457533901070410.4
16.64625223101797,1.758128214535945e+16,2.80043043780219e+16,4039502587541122.0,5892577934863893.0,184753954386.0352,539924832250.2662,14671134878389.533,475545896592363.4
17.079177275638333,1.7804015991914958e+16,2.837206984174871e+16,4090678260770554.0,5967229859699889.0,191980633053.5216,561044088111.3003,15245001045952.705,494147703596191.4
17.5207608211511,1.8028129975506156e+16,2.87426222293162e+16,4142171036422077.0,6042344354054266.0,199443288888.33167,582852964921.0073,15837606138449.21,513356960941388.9
17.97117603757412,1.8253645732607044e+16,2.911601413888508e+16,4193985885725445.5,6117928669651495.0,207148972459.03,605372067351.3405,16449510046991.39,533191819814285.2
18.430599558325603,1.8480584619316668e+16,2.949229827334644e+16,4246127715491073.0,6193989964245037.0,215104938796.58096,628622597600.4634,17081288899513.87,553670957857801.9
18.899211549492115,1.870896772153697e+16,2.9871527471216884e+16,4298601370448477.0,6270535305028565.0,223318653023.70837,652626371844.2954,17733535507829.363,574813593670164.2
19.37719578048196,1.8938815864268184e+16,3.0253754736541796e+16,4351411635381948.0,6347571671751392.0,231797796130.59027,677405837115.6831,18406859826305.41,596639501680688.5
19.864739696091597,1.91701496200735e+16,3.063903326789734e+16,4404563237075482.5,6425105959555542.0,240550270900.074,702984088620.5847,19101889422417.207,619169027410884.9
20.36203449001343,1.940298931676168e+16,3.10274164865745e+16,4458060846077934.5,6503144981550693.0,249584207985.67914,729384887500.7358,19819269959433.71,642423103129288.0
20.869275179813698,1.963735504433239e+16,3.1418958064024256e+16,4511909078298752.0,6581695471141910.0,258907972145.67194,756632679052.4692,20559665691500.055,666423263908493.8
21.38666068340997,1.9873266661223136e+16,3.1813711948634336e+16,4566112496443313.0,6660764084123425.0,268530168636.57025,784752611411.4675,21323759971381.676,691191664093092.5
21.91439389707817,2.0110743799896256e+16,3.221173239190698e+16,4620675611296592.0,6740357400551265.0,278459649769.4896,813770554713.3834,22112255771141.176,716751094187229.2
22.452681775019734,2.034980587180005e+16,3.261307397409812e+16,4675602882863000.0,6820481926405846.0,288705521632.75836,843713120740.457,22925876216021.742,743124998170744.5
23.00173541052013,2.059047207173435e+16,3.301779162937796e+16,4730898721369548.0,6901144095055348.0,299277150984.32385,874607683064.2722,23765365131813.86,770337491252881.2
23.561770118730532,2.083276138165066e+16,3.34259406705674e+16,4786567488138813.0,6982350268529223.0,310184172317.47266,906482397695.0734,24631487605988.56,798413378072715.9
24.133005521105144,2.1076692573912812e+16,3.383757681349998e+16,4842613496338241.0,7064106738611150.0,321436495103.46204,939366224248.1055,25525030562880.78,827378171355575.6
24.715665631527248,2.1322284214042544e+16,3.425275620105939e+16,4899041011610825.0,7146419727759187.0,333044311214.69055,973288947637.5839,26446803353211.875,857258111034822.6
25.309978944157795,2.156955466297306e+16,3.4671535426936788e+16,4955854252593124.0,7229295389861092.0,345018102532.0934,1008281200309.0435,27397638358243.12,888080183848462.2
25.91617852304095,2.1818522078830996e+16,3.5093971559149804e+16,5013057391324405.0,7312739810831589.0,357368648740.4506,1044374485020.903,28378391608855.06,919872143420210.0
26.53450209350177,2.2069204418265972e+16,3.552012216336427e+16,5070654553552365.0,7396759009057974.0,370107035315.3834,1081601198186.2418,29389943419850.832,952662530834645.2
27.165192135371807,2.232161943734642e+16,3.5950045326057216e+16,5128649818938824.0,7481358935700347.0,383244661705.83307,1119994653785.8386,30433199039784.51,986480695716297.2
27.808495978079243,2.2575784692036904e+16,3.6383799677554504e+16,5187047221169384.0,7566545474851545.0,396793249715.8034,1159589107863.6482,31509089316618.965,1021356817822498.1
28.464665897640828,2.2831717538272644e+16,3.682144441498097e+16,5245850747970702.0,7652324443562344.0,410764852089.2941,1200419783616.036,32618571379517.67,1057321929159981.9
29.133959215593645,2.308943513164657e+16,3.726303932515198e+16,5305064341038380.0,7738701591736228.0,425171861302.24524,1242522897086.053,33762629337082.562,1094407936635276.5
29.816638399905518,2.334895442671981e+16,3.770864480744053e+16,5364691895878727.0,7825682601898568.0,440027018565.45447,1285935683474.3035,34942274992346.164,1132647645248995.2
30.51297116790363,2.361029217596977e+16,3.815832189664685e+16,5424737261566891.0,7913273088843961.0,455343423042.3907,1330696424077.8162,36158548574832.34,1172074781844221.5
31.223230591261704,2.3873464928386296e+16,3.861213228590089e+16,5485204240424501.0,8001478599165640.0,471134541285.87286,1376844473868.6208,37412519490001.85,1212724019419238.0
31.947695203086937,2.4138489027726336e+16,3.9070138349623384e+16,5546096587618520.0,8090304610670694.0,487414216897.60535,1424420289723.5913,38705287086397.33,1254631002014881.2
32.686649107148675,2.4405380610438068e+16,3.953240316657377e+16,5607418010684265.0,8179756531684050.0,504196680414.56946,1473465459317.326,40037981440807.54,1297832370186903.0
33.44038208929165,2.4674155603261736e+16,3.9998990543006344e+16,5669172168974365.0,8269839700244688.0,521496559426.2915,1524022730689.7634,41411764161769.664,1342365787073692.8
34.20918973107749,2.4944829720518784e+16,4.046996503596414e+16,5731362673035677.0,8360559383196761.0,539328888927.0183,1576136042500.3628,42827829211729.33,1388269965069796.5
34.993373525699035,2.521741846109421e+16,4.094539197672943e+16,5793993083916111.0,8451920775178392.0,557709121906.837,1629850554980.5896,44287403748180.35,1435584693115673.2
35.793240996213015,2.5491937105122772e+16,4.142533749445684e+16,5857066912403124.0,8543928997510878.0,576653140185.7832,1685212681596.5847,45791748984104.29,1484350864614136.8
36.60910581613728,2.576840071038411e+16,4.190986854000925e+16,5920587618195560.0,8636589096990614.0,596177265494.978,1742270121433.7874,47342161068031.27,1534610505983910.8
37.44128793246003,2.6046824108414948e+16,4.239905291001909e+16,5984558609010331.0,8729906044585913.0,616298270808.8297,1801071892315.354,48939971984043.56,1586406805860797.8
38.29011369110923,2.6327221900344556e+16,4.289295927119699e+16,6048983239625591.0,8823884734041340.0,637033391932.3463,1861668364666.108,50586550472041.836,1639784144956821.5
39.15591596493141,2.660960845245983e+16,4.339165718490457e+16,6113864810861732.0,8918529980391203.0,658400339347.5502,1924111296133.8147,52283302968592.875,1694788126587792.2
40.03903428423004,2.6893997891505932e+16,4.389521713201772e+16,6179206568501703.0,9013846518384524.0,680417310323.0255,1988453866979.4614,54031674568678.04,1751465607879629.5
40.93981496991464,2.718040409972828e+16,4.440371053809338e+16,6245011702151776.0,9109839000823326.0,703103001290.5645,2054750716248.1748,55833150008657.62,1809864731663694.2
41.85861126931294,2.7468840709661956e+16,4.491720979886385e+16,6311283344044358.0,9206511996816168.0,726476620492.8533,2123057978732.33,57689254670765.58,1870034959071439.8
42.7957834946992,2.7759321098672996e+16,4.543578830607728e+16,6378024567783914.0,9303869989948838.0,750557900906.1659,2193433322738.3025,59601555609446.52,1932027102838471.0
43.751699164593184,2.8051858383258468e+16,4.595952047369941e+16,6445238387037260.0,9401917376373564.0,775367113441.8737,2265935988668.289,61571662599844.32,1995893361328051.8
