t(s),Total solute volume 1,Total retention volume 1,Total 1 volume 1,Total 2 volume 1,Total 3 volume 1,Total 4 volume 1,Total 5 volume 1,Total 6 volume 1
0.1,1388605447609674.5,1.2965503955258198e+16,3123970752525701.5,8452927755122823.0,0.0,0.0,0.0,-0.03849354864423057
0.202,1964913431669364.0,1.8472810686720508e+16,4420508624317729.0,1.1961292221038254e+16,139112174642.82156,1022383290949.9121,24838985838335.41,100095928391228.83
0.30604000000000003,2418457714602272.0,2.2929560317511052e+16,5440858172807459.0,1.4722241397708642e+16,345898451148.5743,2548082254316.919,66689405136723.67,278419646550472.1
0.41216080000000005,2799502591601125.0,2.67886250611846e+16,6298103776676027.0,1.704184411834557e+16,606640322324.8445,4472946169091.854,121724482124285.72,522370505946173.3
0.5204040160000001,3132061126352556.0,3.026475361175017e+16,7046268402953999.0,1.9066284499776536e+16,914061552942.2373,6742892722083.327,187882504017810.3,824600124374240.4
0.6308120963200001,3429405949314007.0,3.3475610461548236e+16,7715211861629461.0,2.0876360870754348e+16,1263692002199.7375,9324750242994.008,263875073251364.78,1180168264353858.2
0.7434283382464002,3699672304648280.5,3.6492526598577176e+16,8323236225820728.0,2.2521596916134764e+16,1652519002303.232,12196170482912.828,348810496498176.94,1585361965990032.5
0.8582969050113283,3948258925815441.0,3.936224036820626e+16,8882487163922556.0,2.403485757490463e+16,2078396531197.8186,15341234707988.12,442034355352141.44,2037182716972276.8
0.9754628431115548,4178970909759689.0,4.211725104555568e+16,9401525098120478.0,2.5439306444462416e+16,2539746609732.5376,18748237490104.125,543051362955532.25,2533109246157735.5
1.094972099973786,4394616251363403.0,4.478122410443443e+16,9886667244599540.0,2.67520372345817e+16,3035390384377.267,22408434216062.65,651482243485813.9,3070977305803537.5
1.2168715419732616,4597341849061421.0,4.737203619657192e+16,1.0342743534293626e+16,2.798611921911838e+16,3564443722838.945,26315267237491.867,767037172896631.9,3648914710241533.5
1.3412089728127268,4788834643848565.0,4.990360032898239e+16,1.0773549120464e+16,2.9151821675794724e+16,4126247644946.1196,30463850157140.07,889497724446553.6,4265307066626464.0
1.4680331522689813,4970448651985849.0,5.238701706549825e+16,1.1182130167354444e+16,3.025738719976367e+16,4720319254909.78,34850603939636.594,1018703593729217.4,4918776529470525.0
1.597393815314361,5143288968274092.0,5.483133184894036e+16,1.1570972834421028e+16,3.130954307400073e+16,5346315594053.301,39472988664898.22,1154542081146593.0,5608165586838968.0
1.729341691620648,5308269396398148.0,5.724405101711505e+16,1.1942132928717534e+16,3.231385209394562e+16,6004005935681.955,44329297746680.09,1296939292810841.0,6332524001560518.0
1.863928525453061,5466153463091691.0,5.963150402468415e+16,1.2297328175455252e+16,3.327496224109956e+16,6693250072515.433,49418496533448.38,1445852693895628.5,7091095704536056.0
2.001207095962122,5617584725151556.0,6.199910429292855e+16,1.2638006400432234e+16,3.419679117700097e+16,7413981284479.671,54740095641054.32,1601264845906525.8,7883303067511715.0
2.1412312378813647,5763109760018752.0,6.435154126118337e+16,1.296539725250989e+16,3.508266619854505e+16,8166192923088.097,60294051147452.42,1763178122100791.5,8708729683938359.0
2.284055862638992,5903195881175593.0,6.669292454646822e+16,1.3280552058382726e+16,3.593543208068839e+16,8949927687580.648,66080684788601.61,1931610281488145.0,9567103632257170.0
2.4297369798917723,6038245078936118.0,6.9026894021384616e+16,1.3584375185526858e+16,3.675753594131503e+16,9765269097709.926,72100620511977.72,2106590938092058.8,1.0458280987904894e+16
2.578331719489608,6168605290170635.0,7.1356705160202104e+16,1.3877649395990298e+16,3.7551095846080376e+16,10612334969751.125,78354735985603.14,2288158936908748.0,1.1382228620096674e+16
2.7298983538794,6294579612696788.0,7.368529611952918e+16,1.4161056576250866e+16,3.8317956901441416e+16,11491272557585.748,84844126539024.22,2476360456947783.0,1.2339007173095714e+16
2.884496320956988,6416433744091604.0,7.601534111491742e+16,1.443519447250772e+16,3.905973653878193e+16,12402254770479.938,91570077118010.62,2671247566649796.5,1.3328756460997866e+16
3.0421862473761276,6534401908051392.0,7.834929337122469e+16,1.4700590023368494e+16,3.9777860591388936e+16,13345476989987.473,98534038677829.77,2872877086720615.5,1.4351684246027452e+16
3.2030299723236504,6648691655778738.0,8.068942004030661e+16,1.4957710161655584e+16,4.047359252311006e+16,14321154422087.002,105737608560148.81,3081309804586976.5,1.5408057132193032e+16
3.3670905717701234,6759487919945732.0,8.303783085697117e+16,1.5206970934715168e+16,4.114805810707625e+16,15329520172559.309,113182516283637.84,3296610100903230.5,1.649819175787464e+16
3.5344323832055258,6866956502451030.0,8.53965018595162e+16,1.5448745350918616e+16,4.1802266657644424e+16,16370824057212.934,120870614831029.84,3518845874755745.5,1.7622446034858162e+16
3.7051210308696363,6971246974468873.0,8.776729518157045e+16,1.5683369903980046e+16,4.243712868460768e+16,17445331784608.861,128803874692040.95,3748088495995373.5,1.8781211916041732e+16
3.879223451487029,7072494936660783.0,9.015197569000315e+16,1.5911149657812202e+16,4.30534696522912e+16,18553324019253.99,136984376955971.72,3984412563657368.0,1.9974911178606384e+16
4.0568079205167695,7170823724148483.0,9.255222507161189e+16,1.6132362082244274e+16,4.365204035854919e+16,19695095125871.05,145414303969208.53,4227895488891951.5,2.1203994018682892e+16
4.237944078927105,7266345787315387.0,9.496965384017016e+16,1.6347260159443344e+16,4.423352534036027e+16,20870951864112.555,154095929609903.84,4478617142505579.5,2.2468938529071576e+16
4.422702960505647,7359163988635972.0,9.740581163421086e+16,1.6556075301424006e+16,4.479855076830001e+16,22081212533856.027,163031612959163.66,4736659815584961.0,2.3770248934772916e+16
4.61115701971576,7449372914485817.0,9.986219609870416e+16,1.6759020301263046e+16,4.534769243227427e+16,23326206860710.84,172223797542578.94,5002108524001435.0,2.510845192227631e+16
4.803380160110075,7537060121005354.0,1.0234026058621179e+17,1.6956292135953808e+16,4.588148332581709e+16,24606276426369.598,181675014649757.12,5275051417161074.0,2.648409229519835e+16
4.9994477633122765,7622307146274369.0,1.0484142087021072e+17,1.714807424352169e+16,4.6400419807747144e+16,25921775069077.938,191387886385821.5,5555579941470922.0,2.7897730069741652e+16
5.199436718578522,7705190178699297.0,1.0736706102976584e+17,1.733453802670916e+16,4.690496567092491e+16,27273068695675.46,201365124248626.56,5843788549588752.0,2.93499404108994e+16
5.403425452950093,7785780420180163.0,1.0991853863643442e+17,1.7515843669996272e+16,4.739555435291244e+16,28660534354745.617,211609522118883.9,6139774046203427.0,3.0841316090668416e+16
5.611493962009095,7864144315258599.0,1.1249718934937912e+17,1.7692140655115514e+16,4.7872590330791256e+16,30084558948253.242,222123946534507.12,6443634920897749.0,3.2372470621833264e+16
5.823723841249277,7940343849785284.0,1.1510433100352904e+17,1.786356843296897e+16,4.833645093924883e+16,31545538266493.98,232911329427638.3,6755471069774480.0,3.3944039844057336e+16
6.040198318074262,8014437041185980.0,1.1774126725942627e+17,1.8030257526593844e+16,4.878748935511984e+16,33043876929540.1,243974667716784.84,7075384115618121.0,3.555668067626213e+16
6.261002284435747,8086478601467248.0,1.2040929087258397e+17,1.819233102274743e+16,4.922603863355305e+16,34579989371162.203,255317030757356.47,7403478213007884.0,3.721106738167981e+16
6.486222330124463,8156520634754983.0,1.2310968663364229e+17,1.83499061411821e+16,4.965241595440609e+16,36154301465272.695,266941572607476.25,7739860952393592.0,3.890788707683282e+16
6.715946776726952,8224613193113105.0,1.2584373402606795e+17,1.8503095485087076e+16,5.00669260058621e+16,37767252060232.54,278851543551180.03,8084643902108576.0,4.064783664428563e+16
6.950265712261491,8290804568335139.0,1.2861270964322867e+17,1.8652007697537852e+16,5.046986276068454e+16,39419293718814.28,291050295584335.3,8437942485127729.0,4.243162254224031e+16
7.18927102650672,8355141307770050.0,1.314178894001028e+17,1.8796747497095296e+16,5.086150957244244e+16,41110892332141.26,303541279381520.3,8799875194842588.0,4.425996365623877e+16
7.433056447036854,8417668052096257.0,1.3426055056692405e+17,1.8937415312835196e+16,5.124213818780389e+16,42842525796671.96,316328034199547.7,9170562461668368.0,4.613359599252416e+16
7.681717575977592,8478427353744290.0,1.3714197364426827e+17,1.907410687584382e+16,5.161200764105122e+16,44614682373478.85,329414175415231.25,9550125650796486.0,4.8053277265043736e+16
7.935351927497144,8537459625999177.0,1.4006344409330181e+17,1.9206913104709856e+16,5.197136394418371e+16,46427859508184.16,342803385581540.2,9938686633253896.0,5.001978954006544e+16
8.194058966047088,8594803306061067.0,1.4302625393235976e+17,1.9335920472367412e+16,5.23204410795869e+16,48282563727518.01,356499413642814.06,1.0336368152872138e+16,5.2033938944101976e+16
8.45794014536803,8650495223456641.0,1.4603170321163984e+17,1.9461211834925092e+16,5.265946324285403e+16,50179311829320.71,370506083922907.44,1.0743294908339866e+16,5.409655260631199e+16
8.72709894827539,8704571085930237.0,1.4908110138031814e+17,1.9582867524793492e+16,5.298864780080107e+16,52118633116509.63,384827312974936.94,1.1159595004719544e+16,5.620847401798237e+16
9.0016409272409,8757065955512537.0,1.5217576856289942e+17,1.9700966421714256e+16,5.330820818966969e+16,54101072069703.76,399467129699897.5,1.1585401299189122e+16,5.837055849504414e+16
9.281673745785717,8808014596259138.0,1.553170367623323e+17,1.981558673507893e+16,5.361835603205914e+16,56127190725221.12,414429693187646.06,1.202085220822975e+16,6.058367030679251e+16
9.567307220701432,8857451622271926.0,1.5850625100545462e+17,1.9926806336936044e+16,5.3919302037997784e+16,58197570147935.42,429719303675978.8,1.2466091729577528e+16,6.284868240484746e+16
9.85865336511546,8905411438999414.0,1.617447704418845e+17,2.003470262992946e+16,5.4211255647524504e+16,60312810697160.19,445340404367355.0,1.2921268687722314e+16,6.5166478822644296e+16
10.155826432417769,8951928029665706.0,1.6503396940178e+17,2.0139352066816844e+16,5.449442373044353e+16,62473531162178.12,461297574707638.75,1.3386535448815118e+16,6.753795902016905e+16
10.458942961066125,8997034675186923.0,1.6837523841260627e+17,2.024082952035302e+16,5.4769008881176456e+16,64680367170832.24,477595518198713.75,1.3862046498894818e+16,6.996404295162556e+16
10.768121820287448,9040763703085148.0,1.7176998517172992e+17,2.0339207718411076e+16,5.503520789016765e+16,66933969460819.1,494239049216136.0,1.4347957303739792e+16,7.24456755376492e+16
11.083484256693197,9083146341378970.0,1.75219635471152e+17,2.043455691527398e+16,5.529321085439168e+16,69235002612606.94,511233083361843.5,1.4844423775029508e+16,7.498382949910336e+16
11.405153941827061,9124212716747502.0,1.7872563407295504e+17,2.0526944887505124e+16,5.5543201166192664e+16,71584144692766.61,528582634735883.0,1.5351602493774406e+16,7.757950602930672e+16
11.733257020663602,9163991994807730.0,1.822894455381722e+17,2.061643724953648e+16,5.578535636729637e+16,73982088004947.45,546292821601070.6,1.5869651643014502e+16,8.023373337391117e+16
12.067922161076874,9202512625475102.0,1.8591255501641658e+17,2.070309800566718e+16,5.601984964255483e+16,76429540869421.9,564368879821784.6,1.6398732432128012e+16,8.29475638899002e+16
12.409280604298411,9239802635657552.0,1.8959646900726474e+17,2.0786990208549444e+16,5.624685160184258e+16,78927230123138.73,582816181727908.4,1.6939010694369288e+16,8.57220704549948e+16
12.75746621638438,9275889907508164.0,1.9334271610599254e+17,2.08681765851848e+16,5.646653197402438e+16,81475903899742.78,601640257058422.6,1.7490658323894556e+16,8.855834315442243e+16
13.112615540712067,9310802391039844.0,1.971528477453568e+17,2.0946720015251276e+16,5.667906090131526e+16,84076334230419.02,620846812506236.4,1.805385428110397e+16,9.14574870099098e+16
13.474867851526309,9344568219899432.0,2.0102843894194826e+17,2.1022683791564236e+16,5.688460964407705e+16,86729319088725.45,640441747016585.6,1.862878501037438e+16,9.4420621209928e+16
13.844365208556836,9377215722245616.0,2.0497108905103766e+17,2.109613164454765e+16,5.7083350647014264e+16,89435683651818.8,660431161127379.6,1.9215644248807052e+16,9.744887994364397e+16
14.221252512727972,9408773339417898.0,2.0898242252891194e+17,2.116712755925922e+16,5.727545704401216e+16,92196280724404.36,680821359960372.4,1.9814632326734292e+16,1.0054341461880365e+17
14.605677562982532,9439269479689882.0,2.130640896976087e+17,2.1235735446372196e+16,5.7461101767779304e+16,95011990431352.23,701618850681504.9,2.042595514733243e+16,1.037053970153221e+17
14.997791114242183,9468732341298204.0,2.1721776750453654e+17,2.130201874403572e+16,5.764045647245232e+16,97883719402094.97,722830336134420.2,2.1049823072449156e+16,1.0693602281876467e+17
15.397746936527026,9497189738459078.0,2.214451602691507e+17,2.1366040026456956e+16,5.781369047439835e+16,100812399730466.86,744462706805933.4,2.1686449934727916e+16,1.1023651498857205e+17
15.805701875257567,9524668957868454.0,2.2574800041055018e+17,2.1427860681063856e+16,5.798096987860912e+16,103798987996597.17,766523033299698.9,2.233605235111016e+16,1.136081265206024e+17
16.221815912762718,9551196663520324.0,2.3012804915308214e+17,2.1487540694371616e+16,5.814245699925966e+16,106844464592224.3,789018561146287.8,2.2998849443812224e+16,1.1705214232637984e+17
16.64625223101797,9576798856931698.0,2.3458709721101424e+17,2.154513856250012e+16,5.829831011758429e+16,109949833513162.33,811956709184903.9,2.3675062997541956e+16,1.2056988013375806e+17
17.079177275638333,9601500890042094.0,2.3912696545723117e+17,2.1600711320195572e+16,5.844868356043316e+16,113116122690893.9,835345072053016.9,2.436491801034491e+16,1.2416269048147158e+17
17.5207608211511,9625327520565296.0,2.4374950558397293e+17,2.1654314665358684e+16,5.859372803727451e+16,116344384846578.39,859191426645948.8,2.506864354087415e+16,1.2783195600840768e+17
17.97117603757412,9648302995117900.0,2.4845660076535603e+17,2.1706003146063348e+16,5.873359114629663e+16,119635698778638.47,883503741861253.4,2.5786473723217188e+16,1.3157909031402101e+17
18.430599558325603,9670451144082090.0,2.5325016633159376e+17,2.1755830373974292e+16,5.8868417951942616e+16,122991170947697.17,908290190584497.2,2.6518648812957716e+16,1.3540553668710486e+17
18.899211549492115,9691795473414284.0,2.581321504635297e+17,2.1803849230893132e+16,5.8998351543845e+16,126411937202557.6,933559162723038.6,2.726541614195389e+16,1.3931276697349776e+17
19.37719578048196,9712359241706190.0,2.6310453491366778e+17,2.1850112042126184e+16,5.912353350597196e+16,129899164495793.38,959319278134435.5,2.8027030888515496e+16,1.4330228079271763e+17
19.864739696091597,9732165514858582.0,2.681693357568066e+17,2.189467069948626e+16,5.924410424947605e+16,133454052461600.83,985579398482119.5,2.880375660708348e+16,1.4737560523495846e+17
20.36203449001343,9751237194928122.0,2.7332860417019555e+17,2.1937576726190336e+16,5.936020318830456e+16,137077834764452.56,1012348637326530.1,2.959586550016057e+16,1.5153429508852096e+17
20.869275179813698,9769597023431480.0,2.7858442724033565e+17,2.197888128429252e+16,5.947196875930551e+16,140771780167383.62,1039636368068357.5,3.0403638449426884e+16,1.557799335756436e+17
21.38666068340997,9787267562253646.0,2.839389287915149e+17,2.2018635131732276e+16,5.9579538305987304e+16,144537193307231.72,1067452229654690.2,3.12273648489461e+16,1.601141335196338e+17
21.91439389707817,9804271157152970.0,2.8939427023010995e+17,2.205688854022962e+16,5.968304785632904e+16,148375415196449.6,1095806130205151.8,3.206734229939872e+16,1.6453853883159795e+17
22.452681775019734,9820629889713376.0,2.9495265139865274e+17,2.2093691187189596e+16,5.97826318302594e+16,152287823494811.94,1124708248895242.9,3.292387622841709e+16,1.690548261906831e+17
23.00173541052013,9836365523615584.0,3.006163114345317e+17,2.212909203482614e+16,5.9878422712553e+16,156275832608742.06,1154169036542773.0,3.379727949967209e+16,1.7366470679471344e+17
23.561770118730532,9851499450499294.0,3.063875296297558e+17,2.2163139208365748e+16,5.997055072324006e+16,160340893681712.56,1184199215385408.2,3.4687872064467184e+16,1.783699280741164e+17
24.133005521105144,9866052639694500.0,3.1226862629016435e+17,2.219587988295593e+16,6.005914351157446e+16,164484494537667.3,1214809778523934.2,3.5595980696601172e+16,1.831722752862767e+17
24.715665631527248,9880045594920798.0,3.18261963594526e+17,2.2227360186249924e+16,6.01443258924264e+16,168708159632527.88,1246011989451424.0,3.652193883645225e+16,1.8807357293539267e+17
25.309978944157795,9893498319857882.0,3.243699464558474e+17,2.225762512094962e+16,6.0226219636685144e+16,173013450058515.34,1277817382007686.8,3.746608655556567e+16,1.9307568599072298e+17
25.91617852304095,9906430293400924.0,3.305950233887193e+17,2.2286718509136716e+16,6.030494332062467e+16,177401963634008.4,1310237761005157.2,3.842877063998781e+16,1.9818052090093014e+17
26.53450209350177,9918860454508090.0,3.369396873875167e+17,2.2314682958184172e+16,6.0380612233667224e+16,181875335099465.25,1343285203678023.5,3.94103447801629e+16,2.033900264222166e+17
27.165192135371807,9930807195861794.0,3.434064768206958e+17,2.2341559846496044e+16,6.0453338339804584e+16,186435236428663.9,1376972062019550.0,4.0411169847893064e+16,2.087061942921921e+17
27.808495978079243,9942288365104848.0,3.4999797634632224e+17,2.2367389326288984e+16,6.052323028513384e+16,191083377254937.62,1411310965999105.2,4.14316142367308e+16,2.141310597898097e+17
28.464665897640828,9953321272160342.0,3.5671681785338144e+17,2.2392210340060344e+16,6.059039344242905e+16,195821505404577.75,1446314827593328.8,4.247205424096643e+16,2.1966670222476736e+17
29.133959215593645,9963922701066972.0,3.635656814325214e+17,2.241606064721502e+16,6.065492998320123e+16,200651407524287.62,1481996845526016.5,4.353287444959991e+16,2.253152453983878e+17
29.816638399905518,9974108924821072.0,3.7054729637874944e+17,2.2438976857456396e+16,6.071693896805949e+16,205574909786368.5,1518370510587834.2,4.461446813472592e+16,2.310788580733124e+17
30.51297116790363,9983895721871180.0,3.776644422274329e+17,2.2460994467894812e+16,6.077651644713068e+16,210593878653958.16,1555449611397703.8,4.5717237617959576e+16,2.36959754482525e+17
31.223230591261704,9993298393124266.0,3.8491994982381997e+17,2.248214790130724e+16,6.083375556359097e+16,215710221688774.16,1593248240470012.8,4.684159460326187e+16,2.4296019490037683e+17
31.947695203086937,1.0002331778562252e+16,3.923167024253394e+17,2.250247054352008e+16,6.088874665482252e+16,220925888385068.47,1631780800462570.8,4.798796046926553e+16,2.4908248629032138e+17
32.686649107148675,1.0011010272809374e+16,3.998576368351816e+17,2.252199477843132e+16,6.0941577347180824e+16,226242871015525.28,1671062010497029.2,4.915676651854345e+16,2.5532898303670394e+17
33.44038208929165,1.0019347839216818e+16,4.075457445651817e+17,2.25407520196972e+16,6.099233264173356e+16,231663205477318.0,1711106912463219.5,5.034845418492864e+16,2.617020877616651e+17
34.20918973107749,1.002735802223067e+16,4.153840730257975e+17,2.2558772738556372e+16,6.104109498954681e+16,237188972129222.7,1751930877240352.8,5.1563475202838584e+16,2.682042522232557e+17
34.993373525699035,1.0035053957975886e+16,4.233757267409845e+17,2.257608648764086e+16,6.108794435611022e+16,242822296613384.6,1793549610788918.8,5.280229174453409e+16,2.7483797828732125e+17
35.793240996213015,1.0042448383121654e+16,4.315238685859986e+17,2.2592721920920304e+16,6.11329582752986e+16,248565350657883.47,1835979160086994.0,5.406537653240136e+16,2.8160581896351168e+17
36.60910581613728,1.0049553642192334e+16,4.398317210465242e+17,2.2608706810149316e+16,6.117621189387041e+16,254420352858585.25,1879235918902396.8,5.535321293377996e+16,2.885103794947711e+17
37.44128793246003,1.0056381693556408e+16,4.4830256749799974e+17,2.2624068058340788e+16,6.121777800791885e+16,260389569440801.38,1923336633407531.8,5.6666295045710616e+16,2.955543184896249e+17
