t(s),Total solute volume 1,Total retention volume 1,Total 1 volume 1,Total 2 volume 1,Total 3 volume 1,Total 4 volume 1,Total 5 volume 1,Total 6 volume 1
0.1,1277535415264620.8,2216485712870468.2,368078767489456.25,570871530116391.1,0.0,0.0,0.0,3.710125213445117e-74
0.202,1921162725166307.0,3333316183759757.0,553518293402280.2,858478917340297.6,43569031.07597355,139910925.0719185,4369640989.464105,151694729929.78503
0.30604000000000003,2412216755128108.0,4185521424625501.0,694998964342814.0,1077908301253816.2,110503820.41108614,354857036.58308125,11085465135.969194,385853074769.31635
0.41216080000000005,2827699344917642.5,4906680501288238.0,814706270912341.1,1263568292015682.5,196253153.97216606,630222267.7382244,19689616341.574524,686077350813.5095
0.5204040160000001,3196707906088055.0,5547269185749222.0,921023652144340.9,1428461183400899.8,298792957.2925163,959506624.9061021,29978824586.426865,1045206991753.2517
0.6308120963200001,3533767431365433.0,6132483965461595.0,1018135995311083.8,1579077525027936.8,417037115.85487,1339222245.256266,41844046109.20363,1459413451669.2058
0.7434283382464002,3847326720940238.5,6676981004838463.0,1108477537498170.2,1719192695968873.2,550364575.5718257,1767374728.221053,55222933480.83104,1926509758397.057
0.8582969050113283,4142800516434294.5,7190153448343747.0,1193608354040562.0,1851226294407122.0,698424893.2784296,2242838690.3780503,70080305839.58868,2445261892348.684
0.9754628431115548,4423900281270185.5,7678439936559671.0,1274597778052779.5,1976836802063695.2,861042400.0503237,2765050002.3539205,86398526099.11864,3015050554517.1953
1.094972099973786,4693298947703791.0,8146477729907093.0,1352215924889009.2,2097218628996528.0,1038163118.8890004,3333835324.5932474,104172171806.66214,3635684147507.357
1.2168715419732616,4952996036703153.0,8597736065139037.0,1427038889133369.5,2213265268833633.2,1229822865.7789257,3949309669.87732,123404832954.11522,4307286503393.708
1.3412089728127268,5204533078493753.0,9034889829847894.0,1499510810771158.8,2325665560276537.5,1436126897.6703484,4611811046.7119465,144107069044.76703,5030225299439.084
1.4680331522689813,5449128027943071.0,9460052719954596.0,1569982602452428.8,2434963751133471.5,1657236324.6642725,5321856824.69446,166295045202.00195,5805064287287.509
1.597393815314361,5687763000273233.0,9874929424549828.0,1638737227581055.2,2541598703360638.5,1893358714.9600291,6080113564.143385,189989589156.95795,6632530273489.51
1.729341691620648,5921243700950338.0,1.02809187108266e+16,1706006823034671.8,2645930449537054.0,2144741420.0760984,6887375581.362692,215215521292.59335,7513489666245.095
1.863928525453061,6150240952043273.0,1.0679185453556886e+16,1771984663585526.5,2748258749077690.0,2411666733.0054216,7744549400.01888,242001168669.02948,8448931465596.116
2.001207095962122,6375320485278417.0,1.1070712312250862e+16,1836833745765221.0,2848836401374524.0,2694448321.541183,8652642297.478128,270378007041.3719,9439954735038.074
2.1412312378813647,6596964808825912.0,1.1456337659776092e+16,1900693088042257.0,2947879017053992.0,2993428573.51153,9612753779.5587,300380394406.6189,10487759277168.914
2.284055862638992,6815589577452976.0,1.1836783976899506e+16,1963682447330065.8,3045572333042910.0,3308976610.072977,10626069200.621462,332045371603.0954,11593638656137.408
2.4297369798917723,7031556062711326.0,1.2212679482313436e+16,2025905911851248.0,3142077784919582.5,3641486799.0472636,11693854989.44998,365412513098.1387,12758974976383.959
2.578331719489608,7245180799687312.0,1.2584574865462386e+16,2087454680523548.8,3237536817601143.5,3991377649.8820486,12817455100.639101,400523816078.06604,13985235001557.672
2.7298983538794,7456743152778487.0,1.2952956410014972e+16,2148409242783396.0,3332074266139868.5,4359091005.096772,13998288418.086246,437423619295.0128,15273967314488.354
2.884496320956988,7666491322988430.0,1.3318256414262934e+16,2208841109385458.5,3425801040105871.0,4745091465.921375,15237846910.54547,476158545418.4316,16626800299391.582
3.0421862473761276,7874647171132201.0,1.3680861557840374e+16,2268814202046771.5,3518816278855044.0,5149866005.840369,16537694390.602139,516777462245.44214,18045440783725.21
3.2030299723236504,8081410129625701.0,1.404111968771583e+16,2328385980496993.5,3611209099527116.0,5573923737.171963,17899465765.088017,559331459270.2186,19531673217232.887
3.3670905717701234,8286960404398191.0,1.4399345373026506e+16,2387608365001594.5,3703060027832483.0,6017795804.091702,19324866691.54798,603873836943.602,21087359294795.305
3.5344323832055258,8491461617902983.0,1.475582449061771e+16,2446528497856330.0,3794442179091768.0,6482035381.604729,20815673574.938232,650460106565.8635,22714437951120.574
3.7051210308696363,8695063007719335.0,1.5110818039871162e+16,2505189376840272.0,3885422240689461.0,6967217764.518138,22373733853.34249,699147999211.9355,24414925671275.12
3.879223451487029,8897901268554849.0,1.5464565339123952e+16,2563630385926727.0,3976061295179741.5,7473940533.901208,24000966532.524303,749997482433.3427,26190917073126.7
4.0568079205167695,9100102105694724.0,1.5817286721700744e+16,2621887742857283.0,4066415514451273.0,8002823791.147922,25699362937.570118,803070783744.6472,28044585726991.85
4.237944078927105,9301781553137594.0,1.6169185823900188e+16,2679994878918240.0,4156536748741239.5,8554510451.784854,27470987656.392662,858432420105.89,29978185184908.145
4.422702960505647,9503047098443818.0,1.6520451537826194e+16,2737982763027728.0,4246473029278128.5,9129666592.752047,29317979654.95195,916149232771.5037,31994050197510.37
4.61115701971576,9703998647745894.0,1.6871259687080378e+16,2795880179770921.0,4336268999500286.5,9728981848.131336,31242553548.05533,976290427001.2864,34094598100871.168
4.803380160110075,9904729357749342.0,1.7221774471847404e+16,2853713969113087.5,4425966286838762.0,10353169849.289013,33247001012.78516,1038927616228.7368,36282330359149.24
4.9994477633122765,1.010532635639824e+16,1.7572149720965884e+16,2911509234035063.5,4515603824749494.0,11002968706.194412,35333692334.154526,1104134870361.6423,38559834251676.49
5.199436718578522,1.0305871369833106e+16,1.7922529981557742e+16,2969289521170016.5,4605218132871693.0,11679141527.31843,37505078074.65474,1171988767954.4756,40929784695374.78
5.403425452950093,1.0506441270067802e+16,1.8273051471240576e+16,3027076978598122.0,4694843561759560.0,12382476976.040098,39763690861.04058,1242568452044.5632,43394946195228.586
5.611493962009095,1.0707108555265414e+16,1.8623842913526212e+16,3084892494221842.5,4784512507495247.0,13113789861.918003,42112147283.077515,1315955689487.22,45958174917045.67
5.823723841249277,1.0907941772446978e+16,1.8975026273463544e+16,3142755817555230.5,4874255600577991.0,13873921765.539265,44553149900.11672,1392234933660.5618,48622420877990.56
6.040198318074262,1.110900589082e+16,1.932671740772613e+16,3200685667285926.0,4964101872747302.0,14663741695.955273,47089489352.31442,1471493390440.6003,51390730251409.05
6.261002284435747,1.1310362632573914e+16,1.9679026641020984e+16,3258699826582752.5,5054078904800244.0,15484146779.960438,49724046574.10994,1553821087371.9763,54266247783336.65
6.486222330124463,1.1512070766897752e+16,2.0032059278801884e+16,3316815227806984.0,5144212957974297.0,16336062982.681713,52459795108.25217,1639310945980.9253,57252219318822.05
6.715946776726952,1.1714186372078526e+16,2.0385916064716188e+16,3375048028027159.5,5234529091067118.0,17220445859.1248,55299803519.236,1728058857194.8943,60351994436821.8
6.950265712261491,1.1916763069799826e+16,2.074069358992989e+16,3433413676524333.5,5325051265133677.0,18138281336.476997,58247237905.50889,1820163759848.78,63569029192964.805
7.18927102650672,1.2119852235146736e+16,2.109648466041571e+16,3491926975297917.5,5415802437327775.0,19090586527.098568,61305364510.22629,1915727722270.9397,66906888969947.6
7.433056447036854,1.2323503185313418e+16,2.145337862740134e+16,3550602133435383.5,5506804645226825.0,20078410572.25181,64477552430.71584,2014856026953.8943,70369251435731.62
7.681717575977592,1.252776334958365e+16,2.181146168543871e+16,3609452816086506.5,5598079082788206.0,21102835516.71676,67767276427.12777,2117657258324.6772,73959909610067.31
7.935351927497144,1.2732678422795516e+16,2.217081714193092e+16,3668492188678920.0,5689646168925619.0,22164977214.53454,71178119831.0451,2224243393639.035,77682775040186.0
8.194058966047088,1.293829250420034e+16,2.2531525661432404e+16,3727732956925750.5,5781525609558678.0,23265986266.19762,74713777555.0795,2334729897031.513,81541881086787.22
8.45794014536803,1.3144648223370462e+16,2.2893665487594044e+16,3787187403101618.5,5873736453875334.0,24407048987.680763,78378059204.71848,2449235816760.909,85541386321696.33
8.72709894827539,1.3351786854593218e+16,2.3257312645249184e+16,3846867419001500.5,5966297145449258.0,25589388411.770424,82174892293.89003,2567883885697.134,89685578038800.5
9.0016409272409,1.35597484210044e+16,2.3622541124815892e+16,3906784535943145.5,6059225568772230.0,26814265322.21164,86108325565.91615,2690800625101.384,93978875880088.56
9.281673745785717,1.3768571789555332e+16,2.398942305091701e+16,3966949952128801.0,6152539091690624.0,28082979321.24554,90182532421.69418,2818116451757.4517,98425835578800.31
9.567307220701432,1.3978294757773696e+16,2.43580288368854e+16,4027374557642250.0,6246254604174682.0,29396869931.16445,94401814457.11652,2949965788516.698,103031152821888.27
9.85865336511546,1.4188954133160264e+16,2.472842732661747e+16,4088068957324451.5,6340388553797415.0,30757317730.557114,98770605111.89467,3086487178324.597,107799667234153.84
10.155826432417769,1.4400585805964108e+16,2.510068592506695e+16,4149043491741139.5,6434956978254350.0,32165745525.964546,103293473432.09341,3227823401800.8467,112736366486582.42
10.458942961066125,1.4613224815991132e+16,2.547487071851753e+16,4210308256431575.0,6529975535217249.0,33623619559.70959,107975127948.83241,3374121598449.773,117846390531557.58
10.768121820287448,1.4826905414026076e+16,2.5851046585642656e+16,4271873119605090.0,6625459529780717.0,35132450754.70399,112820420675.73311,3525533391581.6763,123135035967777.6
11.083484256693197,1.5041661118381202e+16,2.6229277300248456e+16,4333747738433847.5,6721423939731329.0,36693795997.078476,117834351227.82782,3682215017030.0063,128607760537837.7
11.405153941827061,1.5257524767029638e+16,2.6609625626494004e+16,4395941574073125.5,6817883438843332.0,38309259457.519135,123022071064.76549,3844327455752.983,134270187761580.48
11.733257020663602,1.5474528565728374e+16,2.699215340729849e+16,4458463905526482.0,6914852418382986.0,39980493952.23197,128388887861.27402,4012036570412.0664,140128111708448.02
12.067922161076874,1.5692704132495196e+16,2.737692164656885e+16,4521323842460231.0,7012345006982867.0,41709202344.492226,133940270007.95848,4185513246023.6274,146187501912200.2
12.409280604298411,1.591208253876302e+16,2.776399058581233e+16,4584530337060636.0,7110375089032133.0,43497138987.776596,139681851245.62753,4364933534783.555,152454508431492.94
12.75746621638438,1.6132694347501878e+16,2.815341977564253e+16,4648092195017572.0,7208956321711296.0,45346111211.50609,145619435436.46188,4550478805168.295,158935467059926.2
13.112615540712067,1.6354569648569522e+16,2.854526814263491e+16,4712018085709518.0,7308102150788846.0,47257980850.46865,151759001475.4472,4742335895419.422,165636904689326.03
13.474867851526309,1.6577738091524032e+16,2.8939594051940932e+16,4776316551657460.0,7407825825283682.0,49234665819.02156,158106708345.61295,4940697271522.265,172565544830103.22
13.844365208556836,1.6802228916109288e+16,2.933645536602975e+16,4840996017308224.0,7508140411087680.0,51278141731.21361,164668900320.73004,5145761189792.887,179728313292704.78
14.221252512727972,1.7028070980603044e+16,2.9735909499892544e+16,4906064797202034.0,7609058803633132.0,53390443567.99722,171452112319.2316,5357731864191.025,187132344034261.5
14.605677562982532,1.725529278819883e+16,3.01380134730099e+16,4971531103573551.0,7710593739681509.0,55573667392.74225,178463075413.24344,5576819638480.354,194784985174681.7
14.997791114242183,1.748392251157649e+16,3.0542823958355236e+16,5037403053431094.0,7812757808303135.0,57829972116.29134,185708722496.71118,5803241163360.854,202693805186555.22
15.397746936527026,1.771398801580171e+16,3.095039732868309e+16,5103688675154272.0,7915563461109640.0,60161581312.84082,193196194116.7402,6037219578701.87,210866599263360.94
15.805701875257567,1.7945516879681312e+16,3.136078970032608e+16,5170395914646873.0,8019023021796788.0,62570785087.960434,200932844472.36993,6278984701007.672,219311395870598.6
16.221815912762718,1.817853641568964e+16,3.177405697470682e+16,5237532641077996.0,8123148695048776.0,65059942000.10447,208926247585.12982,6528773216251.525,228036463484591.1
16.64625223101797,1.841307368857131e+16,3.219025487775051e+16,5305106652241718.0,8227952574850728.0,67631481037.00404,217184203645.8307,6786828878217.57,237050317523837.5
17.079177275638333,1.8649155532714588e+16,3.260943899736909e+16,5373125679562714.0,8333446652252226.0,70287903648.36455,225714745542.17557,7053402712493.348,246361727477920.62
17.5207608211511,1.8886808568383372e+16,3.3031664819173572e+16,5441597392772962.0,8439642822620504.0,73031785836.33531,234526145571.88617,7328753226260.306,255979724239103.16
17.97117603757412,1.912605921688594e+16,3.3456987760555336e+16,5510529404282063.0,8546552892418763.0,75865780305.24611,243626922346.16653,7613146624032.675,265913607641893.84
18.430599558325603,1.9366933714753268e+16,3.388546320326935e+16,5579929273262257.0,8654188585541769.0,78792618672.15804,253025847888.4485,7906857029499.122,276172954215982.25
18.899211549492115,1.960945812699263e+16,3.4317146524638268e+16,5649804509467025.0,8762561549238223.0,81815113739.8009,262731954933.48648,8210166713625.897,286767625158085.5
19.37719578048196,1.98536583594766e+16,3.4752093127487972e+16,5720162576800558.0,8871683359646975.0,84936161833.51581,272754544431.99545,8523366329183.585,297707774528394.0
19.864739696091597,2.0099560170523484e+16,3.5190358468917016e+16,5791010896654230.0,8981565526971597.0,88158745203.86354,283103193266.15326,8846755151863.857,309003857677421.9
20.36203449001343,2.0347189181718228e+16,3.5631998087992572e+16,5862356851024356.0,9092219500315936.0,91485934496.59064,293787762181.42145,9180641328156.674,320666639909245.6
20.869275179813698,2.0596570888021824e+16,3.6077067632460456e+16,5934207785424732.0,9203656672201308.0,94920891291.69736,304818403940.2699,9525342130162.195,332707205387219.0
21.38666068340997,2.0847730667210144e+16,3.652562288454942e+16,6006571011606344.0,9315888382784600.0,98466870713.38309,316205571703.50104,9881184217516.416,345136966288421.1
21.91439389707817,2.110069378868264e+16,3.697771978594351e+16,6079453810095053.0,9428925923794198.0,102127224112.69104,327960027645.05615,10248503906612.932,357967672213238.3
22.452681775019734,2.1355485421675092e+16,3.743341446199072e+16,6152863432557999.0,9542780542199974.0,105905401824.71959,340092851806.2615,10627647447308.062,371211419856628.9
23.00173541052013,2.1612130642911e+16,3.789276324521358e+16,6226807104008009.0,9657463443632312.0,109804956002.30168,352615451195.64185,11018971307300.98,384880662947761.8
23.561770118730532,2.1870654443720268e+16,3.835582269818019e+16,6301292024854615.0,9772985795563276.0,113829543528.10713,365539569140.58417,11422842464384.18,398988222464890.6
24.133005521105144,2.2131081736654224e+16,3.882264963578957e+16,6376325372809955.0,9889358730262276.0,117982929007.15993,378877294897.2273,11839638706764.574,413547297132459.94
24.715665631527248,2.239343736162146e+16,3.929330114702686e+16,6451914304656641.0,1.0006593347538142e+16,122268987841.80986,392641073525.146,12269748941660.094,428571474207618.0
25.309978944157795,2.2657746091569068e+16,3.976783461623257e+16,6528065957884579.0,1.0124700717277718e+16,126691709391.2411,406843716033.5102,12713573512380.95,444074740563454.2
25.91617852304095,2.2924032637730024e+16,4.0246307743934056e+16,6604787452202804.0,1.024369188179063e+16,131255200217.64969,421498409805.5674,13171524524108.465,460071494076433.25
26.53450209350177,2.319232165445687e+16,4.072877856727948e+16,6682085890932226.0,1.0363577857969354e+16,135963687421.26192,436618729308.419,13644026178591.213,476576555325691.3
27.165192135371807,2.34626377436605e+16,4.121530548011642e+16,6759968362284366.0,1.0484369639272436e+16,140821522066.41843,452218647095.23926,14131515117980.324,493605179611984.8
27.808495978079243,2.3735005458869824e+16,4.1705947252750104e+16,6838441940531251.0,1.0606078197539022e+16,145833182700.99127,468312545107.2199,14634440778032.203,511173069304276.0
28.464665897640828,2.400944930892937e+16,4.220076305141878e+16,6917513687070483.0,1.072871448464069e+16,151003278971.44928,484915226282.6716,15153265750911.139,529296386522091.1
29.133959215593645,2.4285993761347388e+16,4.2699812457517e+16,6997190651390068.0,1.0852289433977848e+16,156336555335.93857,502041926480.88574,15688466157828.824,547991766161972.2
29.816638399905518,2.4564663245308828e+16,4.3203155486601144e+16,7077479871936463.0,1.0976813961825994e+16,161837894877.78918,519708326728.4872,16240532031763.441,567276329276475.8
30.51297116790363,2.4845482154364708e+16,4.371085260720529e+16,7158388376889349.0,1.1102298968537378e+16,167512323221.90707,537930565796.2064,16809967710504.844,587167696814416.0
31.223230591261704,2.5128474848808852e+16,4.422296475949584e+16,7239923184846529.0,1.1228755339603366e+16,173365012556.5631,556725253114.0967,17397292240277.889,607684003731125.8
31.947695203086937,2.54136656577525e+16,4.473955337379105e+16,7322091305421605.0,1.1356193946581166e+16,179401285763.13803,576109482033.453,18003039790201.062,628843913477769.9
32.686649107148675,2.5701078880906104e+16,4.526068038897419e+16,7404899739757259.0,1.1484625647890056e+16,185626620656.43527,596100843443.7764,18627760077841.99,650666632878871.9
33.44038208929165,2.599073879007606e+16,4.578640827082089e+16,7488355480956623.0,1.1614061289480496e+16,192046654338.20792,616717439753.3423,19272018806136.777,673171927407392.2
34.20918973107749,2.6282669630385564e+16,4.631680003026557e+16,7572465514434945.0,1.1744511705379238e+16,198667187666.63083,637977899242.0632,19936398111945.035,696380136866919.8
34.993373525699035,2.6576895621225148e+16,4.685191924163097e+16,7657236818193496.0,1.1875987718114554e+16,205494189844.4496,659901390795.5066,20621497026517.93,720312191490621.6
35.793240996213015,2.6873440956940852e+16,4.7391830060839176e+16,7742676363017782.0,1.2008500139023334e+16,212533803128.63635,682507639029.0869,21327931948159.88,744989628466890.4
36.60910581613728,2.717232980726496e+16,4.793659724362712e+16,7828791112601751.0,1.214205976844381e+16,219792347664.40347,705816939811.6243,22056337127373.367,770434608901709.4
37.44128793246003,2.7473586317495252e+16,4.84862861637855e+16,7915588023599287.0,1.2276677395795556e+16,227276326446.48553,729850176197.5881,22807365164776.03,796669935227991.1
38.29011369110923,2.7777234608427024e+16,4.904096283144065e+16,8003074045604823.0,1.2412363799549176e+16,234992430410.64462,754628834777.5663,23581687522089.92,823719069072291.9
39.15591596493141,2.808329877604328e+16,4.960069391139702e+16,8091256121063867.0,1.254912974708778e+16,242947543658.4241,780175022456.6013,24379995046502.668,851606149589505.1
40.03903428423004,2.8391802890965932e+16,5.016554674156031e+16,8180141185115023.0,1.2686985994461784e+16,251148748818.1905,806511483670.2278,25202998508710.016,880356012276292.1
40.93981496991464,2.870277099767262e+16,5.073558935145573e+16,8269736165364325.0,1.2825943286038998e+16,259603332545.5937,833661618048.2072,26051429154950.047,909994208274206.4
41.85861126931294,2.901622711348142e+16,5.13108904808616e+16,8360047981592659.0,1.296601235405088e+16,268318791166.58905,861649498536.103,26926039273347.7,940547024173639.1
42.7957834946992,2.933219522730703e+16,5.1891519598572456e+16,8451083545397484.0,1.3107203918036758e+16,277302836466.2414,890499889984.9819,27827602774890.77,972041502329843.5
