t(s),Total solute volume 1,Total retention volume 1,Total 1 volume 1,Total 2 volume 1,Total 3 volume 1,Total 4 volume 1,Total 5 volume 1,Total 6 volume 1
0.1,803801399340899.0,888695292650996.4,42833262785020.44,42060630525076.21,0.0,0.0,0.0,0.0
0.202,1202870563990058.0,1345848078401669.5,64099006366369.414,62942779845032.91,48245993464.33542,76702553423.72565,837326257095.2742,14973453396225.5
0.30604000000000003,1500476598496363.0,1699102291215345.2,79957945542303.89,78515653355865.22,121559647113.05476,193264967684.55692,2109790795680.8232,37727478410334.22
0.41216080000000005,1746958084083463.0,2002284811774483.2,93092541061280.89,91413325279989.0,214405202437.86392,340890153556.43,3721361977243.673,66544204016509.34
0.5204040160000001,1961258859592287.5,2275469775508428.5,104512279135843.14,102627072587502.47,324146522237.59656,515390297811.6958,5626325651000.262,100605701721749.16
0.6308120963200001,2152869065993609.5,2528634560395558.5,114722873868164.08,112653487242824.84,449223478485.6171,714288018685.319,7797639563237.65,139427982230550.66
0.7434283382464002,2327333728164265.0,2767570685706317.0,124019810571282.56,121782724555542.72,588608569647.2291,935952623203.7802,10217504328763.604,182692356893606.72
0.8582969050113283,2488222986488022.0,2995987913489693.5,132593336191248.81,130201599771823.42,741582212971.7339,1179242931567.1453,12873464347830.72,230175701546237.4
0.9754628431115548,2637994974322408.0,3216431436242368.5,140574440637116.2,138038739987157.3,907621252822.8613,1443330066644.7114,15756473306586.656,281715856669626.2
1.094972099973786,2778427643191370.5,3430738758794233.5,148057868039702.25,145387180324988.4,1086336736435.2083,1727598556182.4827,18859814573807.074,337192317371749.56
1.2168715419732616,2910856460929185.0,3640290042848941.0,155114783297195.6,152316802001488.38,1277436191570.171,2031586381199.0913,22178446750769.516,396514527297528.5
1.3412089728127268,3036314977422779.0,3846155487563877.5,161800262593823.8,158881687729249.25,1480699308375.0762,2354946330291.9683,25708581805193.426,459614332374155.25
1.4680331522689813,3155622742138025.5,4049187103608087.5,168157978381137.12,165124722190249.5,1695961499961.0344,2697419876990.981,29447399911777.688,526440879609938.3
1.597393815314361,3269442828525827.5,4250078501923760.0,174223264759596.62,171080602123673.47,1923102361332.6821,3058818842884.2993,33392849285294.984,596957036025148.0
1.729341691620648,3378320894254565.5,4449405320516759.0,180025198934516.28,176777880236278.44,2162037314460.1584,3439012125013.4766,37543501297236.34,671136796354691.9
1.863928525453061,3482712540575520.5,4647653424996082.0,185588059151931.06,182240396839814.53,2412711404302.093,3837915842161.2646,41898442914450.35,748963358267901.4
2.001207095962122,3583002988585807.0,4845239109339193.0,190932373214491.72,187488309453651.94,2675094592905.186,4255485862344.5864,46457195131995.07,830427662497991.2
2.1412312378813647,3679521555182795.5,5042523900986754.0,196075689881415.8,192538850290111.94,2949178124921.6924,4691712033388.464,51219649997562.64,915527265476552.9
2.284055862638992,3772552515710173.0,5239825629954006.0,201033157721139.53,197406894665704.72,3234971677125.632,5146613659771.135,56186021240787.766,1004265455279308.9
2.4297369798917723,3862343397871815.0,5437426851213010.0,205817967080436.38,202105394997938.72,3532501093160.013,5620235909837.188,61356805058942.29,1096650549200892.5
2.578331719489608,3949111412332512.5,5635581353818933.0,210441692760617.1,206645717300290.12,3841806562870.8257,6112646929857.518,66732748618991.95,1192695329313798.2
2.7298983538794,4033048507305052.5,5834519262010291.0,214914563368213.5,211037905674299.03,4162941144681.282,6623935503557.705,72314824514366.33,1292416584500116.2
2.884496320956988,4114325390604290.5,6034451083390258.0,219245675643668.78,215290892772169.16,4495969556364.23,7154209138497.785,78104209881593.61,1395834735793683.8
3.0421862473761276,4193094765688974.5,6235570958334729.0,223443166904716.03,219412669129590.72,4840967178460.646,7703592490710.302,84102269209695.12,1502973527732569.5
3.2030299723236504,4269493961525927.0,6438059295503545.0,227514355187539.72,223410420779017.44,5198019228098.059,8272226060468.876,90310540109571.27,1613859772612920.2
3.3670905717701234,4343647089412433.0,6642084929942955.0,231465854180320.56,227290642110024.1,5567220070776.514,8860265107658.75,96730721480883.36,1728523137580860.2
3.5344323832055258,4415666826652932.5,6847806905906041.0,235303668272447.56,231059229204005.8,5948672644928.63,9467878746724.229,103364663639518.88,1846995966745472.0
3.7051210308696363,4485655902969269.5,7055375961752386.0,239033271762891.25,234721557613783.88,6342487979469.837,10095249189767.768,110214360062608.4,1969313132174591.8
3.879223451487029,4553708347934541.0,7264935776193226.0,242659675333916.38,238282547638253.94,6748784788649.244,10742571112881.76,117281940479080.97,2095511908905902.0
4.0568079205167695,4619910544674892.0,7476624021759160.0,246187482201125.2,241746719459587.16,7167689131644.81,11410051125775.016,124569665088123.53,2225631870078008.5
4.237944078927105,4684342125295715.0,7690573261346730.0,249620935829260.25,245118239998331.75,7599334126769.244,12097907328606.334,132079919729942.62,2359714799038105.0
4.422702960505647,4747076736066606.0,7906911716118577.0,252963960707655.94,248400962953347.4,8043859712044.689,12806368942944.84,139815211866050.88,2497804615869928.5
4.61115701971576,4808182694714173.0,8125763927238375.0,256220197376302.4,251598463196068.5,8501412445394.521,13535676006145.787,147778167252168.28,2639947316248119.0
4.803380160110075,4867723557777764.0,8347251329454780.0,259393032659301.97,254714066458599.84,8972145338884.355,14286079120311.928,155971527207361.4,2786190920892543.0
4.9994477633122765,4925758612556492.0,8571492751072852.0,262485625879919.56,257750875075902.78,9456217722391.5,15057839248517.053,164398146399496.12,2936585434190121.0
5.199436718578522,4982343305483073.0,8798604852126596.0,265500931687929.66,260711790401375.56,9953795132846.352,15851227552183.936,173060991080338.3,3091182810788839.5
5.403425452950093,5037529616627265.0,9028702510413032.0,268441720016292.88,263599532403549.2,10465049225809.264,16666525264493.445,181963137714401.66,3250036929161205.5
5.611493962009095,5091366388330638.0,9261899163334850.0,271310593593558.62,266416656862599.7,10990157706652.945,17504023595509.336,191107771954444.4,3413203571291439.5
5.823723841249277,5143899614608183.0,9498307112126156.0,274110003365609.84,269165570513913.97,11529304279037.135,18364023665364.625,200498187923748.53,3580740407770277.5
6.040198318074262,5195172696849317.0,9738037793929340.0,276842262121553.1,271848544428189.9,12082678608705.842,19246836462403.574,210137787771287.38,3752706987687884.5
6.261002284435747,5245226670453434.0,9981202026294378.0,279509556570748.75,274467725870627.3,12650476300924.08,20152782823628.258,220030081470872.47,3929164732804140.5
6.486222330124463,5294100406302065.0,1.0227910227939192e+16,282113958078941.75,277025148843391.66,13232898890109.473,21082193435180.402,230178686839514.5,4110176935550012.0
6.715946776726952,5341830790367253.0,1.0478272619011222e+16,284657432239294.3,279522743484005.38,13830153840414.229,22035408850905.562,240587329753718.53,4295808760475604.0
6.950265712261491,5388452884258384.0,1.0732399403594546e+16,287141847427660.2,281962344466304.56,14442454556183.045,23012779527321.26,251259844545389.3,4486127248813300.0
7.18927102650672,5434000069096021.0,1.099040093679941e+16,289568982469397.94,284345698528950.2,15070020401353.459,24014665873532.977,262200174561495.34,4681201325868676.0
7.433056447036854,5478504174758346.0,1.1252387878428758e+16,291940533526688.56,286674471238519.6,15713076726989.424,25041438314841.246,273412372873785.84,4881101810989587.0
7.681717575977592,5521995596256095.0,1.1518471334933616e+16,294258120299975.5,288950253079076.75,16371854906240.271,26093477368945.86,284900603126646.5,5085901429896649.0
7.935351927497144,5564503398750605.0,1.1788762991129742e+16,296523291624200.06,291174564947466.9,17046592376107.236,27171173733797.812,296669140512751.9,5295674829184809.0
8.194058966047088,5606055412524599.0,1.2063375232947568e+16,298737530529639.6,293348863122863.5,17737532685476.395,28274928386270.332,308722372867492.0,5510498592831244.0
8.45794014536803,5646678319041775.0,1.234242126231746e+16,300902258827887.94,295474543770026.5,18444925548941.81,29405152690927.24,321064801874339.6,5730451260563547.0
8.72709894827539,5686397729084669.0,1.2626015205148098e+16,303018841275682.25,297552947028027.6,19169026906000.46,30562268518259.79,333701044374298.3,5955613347961158.0
9.0016409272409,5725238253833139.0,1.2914272213233942e+16,305088589362575.5,299585360729587.56,19910098985249.465,31746708371840.58,346635833773451.75,6186067368178083.0
9.281673745785717,5763223569639684.0,1.3207308560821792e+16,307112764762689.94,301573023790580.5,20668410373260.125,32958915523915.266,359874021543418.0,6421897855188248.0
9.567307220701432,5800376477163858.0,1.350524173647784e+16,309092582485908.7,303517129304376.1,21444236087839.773,34199344159013.742,373420578810164.06,6663191388466687.0
9.85865336511546,5836718955449492.0,1.380819053081892e+16,311029213759553.75,305418827371534.44,22237857655425.074,35468459525213.9,387280598027222.94,6910036619030493.0
10.155826432417769,5872272211458722.0,1.4116275120605032e+16,312923788667974.56,307279227691790.4,23049563192381.855,36766738092742.336,401459294729876.0,7162524296771535.0
10.458942961066125,5907056725517607.0,1.4429617149633032e+16,314777398574270.6,309099401942086.5,23879647490007.75,38094667719634.29,415962009367342.3,7420747299022081.0
10.768121820287448,5941092293076176.0,1.474833980682185e+16,316591098345623.25,310880385961765.5,24728412103060.242,39452747824215.82,430794209210382.94,7684800660300623.0
11.083484256693197,5974398063140540.0,1.507256790183528e+16,318365908401266.4,312623181763599.8,25596165441649.723,40841489564200.664,445961490332130.7,7954781603191925.0
11.405153941827061,6006992573695052.0,1.5402427938551834e+16,320102816600089.2,314328759387343.9,26483222866355.617,42261416022227.86,461469579660264.5,8230789570320515.0
11.733257020663602,6038893784398425.0,1.5738048186657294e+16,321802779982946.8,315998058610620.3,27389906786439.28,43713062397688.09,477324337098913.3,8512926257382248.0
12.067922161076874,6070119106806753.0,1.6079558751607156e+16,323466726383208.1,317631990530413.4,28316546761040.312,45196976204714.41,493531757718982.9,8801295647202017.0
12.409280604298411,6100685432350532.0,1.6427091643181254e+16,325095555917593.9,319231439027013.4,29263479603255.312,46713717476231.016,510097974015775.7,9096004044790860.0
12.75746621638438,6130609158268276.0,1.6780780842829434e+16,326690142368145.3,320797262121064.2,30231049487009.64,48263858973975.04,527029258233055.56,9397160113377926.0
13.112615540712067,6159906211679540.0,1.7140762369988336e+16,328251334465030.6,322330293233222.2,31219608056640.2,49847986404423.99,544332024752807.56,9704874911396658.0
13.474867851526309,6188592071961074.0,1.7507174347532358e+16,329779957078937.6,323831342355045.1,32229514539118.668,51466698640572.9,562012832550214.25,1.0019261930407408e+16
13.844365208556836,6216681791573886.0,1.7880157066505568e+16,331276812330909.44,325301197138808.94,33261135858849.41,53120607949526.59,580078387713453.2,1.0340437133940134e+16
14.221252512727972,6244190015474438.0,1.825985305026804e+16,332742680626742.3,326740623913240.0,34314846754984.41,54810340225879.51,598535546028100.4,1.066851899724465e+16
14.605677562982532,6271130999230148.0,1.8646407118178492e+16,334178321622319.94,328150368631451.56,35391029901203.79,56536535230869.36,617391315626053.1,1.1003628547936498e+16
14.997791114242183,6297518625948234.0,1.903996644892429e+16,335584475125737.0,329531157756775.3,36490076027913.81,58299846837303.586,636652859699012.5,1.134588940752933e+16
15.397746936527026,6323366422116204.0,1.9440680643598188e+16,336961861941405.2,330883699091654.5,37612384046820.914,60100943280264.305,656327499276613.2,1.1695427833845224e+16
15.805701875257567,6348687572443515.0,1.9848701788616908e+16,338311184660940.44,332208682554264.56,38758361177844.55,61940507413609.37,676422716069545.8,1.2052372764297172e+16
16.221815912762718,6373494933785445.0,2.02641845185641e+16,339633128405147.75,333506780907106.06,39928423078331.375,63819236972294.195,696946155377894.1,1.2416855860037908e+16
16.64625223101797,6397801048222888.0,2.0687286079036932e+16,340928361521018.1,334778650441438.75,41122993974542.56,65737844840547.24,717905629065210.6,1.2789011550971268e+16
17.079177275638333,6421618155365237.0,2.1118166389566852e+16,342197536237330.5,336024931621048.75,42342506795382.43,67697059325939.914,739309118598786.2,1.3168977081623122e+16
17.5207608211511,6444958203937330.0,2.155698810668203e+16,343441289282105.0,337246249688568.6,43587403308343.97,69697624439396.96,761164778156728.4,1.3556892557869522e+16
17.97117603757412,6467832862706330.0,2.2003916687170492e+16,344660242464869.44,338443215237244.75,44858134257644.555,71740300181201.73,783480937802486.1,1.3952900994520752e+16
18.430599558325603,6490253530799307.0,2.2459120451602656e+16,345855003226475.06,339616424750824.5,46155159504529.77,73825862833054.86,806266106727565.2,1.4357148363760906e+16
18.899211549492115,6512231347457895.0,2.2922770648162924e+16,347026165158901.6,340766461114000.75,47478948169723.02,75955105256251.19,829528976563223.6,1.476978364444293e+16
19.37719578048196,6533777201272747.0,2.3395041516840976e+16,348174308497351.06,341893894095606.8,48829978778000.336,78128837196045.1,853278424761983.9,1.5190958872239286e+16
19.864739696091597,6554901738936341.0,2.387611035402636e+16,349300000586661.06,342999280806643.94,50208739404868.25,80347885592280.25,877523518049878.6,1.562082919064965e+16
20.36203449001343,6575615373550082.0,2.4366157577548576e+16,350403796323986.8,344083166134954.7,51615727825328.164,82613094896359.88,902273515950398.4,1.6059552902867472e+16
20.869275179813698,6595928292518038.0,2.486536679220179e+16,351486238579443.5,345146083158289.9,53051451664703.805,84925327394645.77,927537874381127.8,1.6507291524505518e+16
21.38666068340997,6615850465057604.0,2.5373924855789972e+16,352547858596328.56,346188553537310.94,54516428551514.6,87285463538370.25,953326249324173.8,1.6964209837184714e+16
21.91439389707817,6635391649354157.0,2.5892021945726732e+16,353589176372394.5,347211087889977.44,56011186272373.125,89694402280156.6,979648500571436.0,1.7430475942986244e+16
22.452681775019734,6654561399385423.0,2.641985162622064e+16,354610701023498.3,348214186148648.44,57536262928888.9,92153061417239.28,1006514695545945.4,1.790626131977093e+16
23.00173541052013,6673369071438491.0,2.695761091607596e+16,355612931130885.5,349198337901092.9,59092207096553.05,94662377941488.5,1033935113200385.9,1.8391740877367096e+16
23.561770118730532,6691823830340884.0,2.7505500357137036e+16,356596355073238.0,350164022716553.3,60679577985586.3,97223308396336.14,1061920247994100.9,1.888709301463029e+16
24.133005521105144,6709934655425630.0,2.8063724083399236e+16,357561451344535.94,351111710457870.75,62298945603723.55,99836829240713.44,1090480813949846.0,1.9392499677376964e+16
24.715665631527248,6727710346248042.0,2.863248989081376e+16,358508688858700.94,352041861580634.06,63950890920913.77,102503937220107.31,1119627748791572.1,1.990814641719384e+16
25.309978944157795,6745159528071362.0,2.9212009307805824e+16,359438527241913.3,352954927420224.4,65636006035905.86,105225649744847.8,1149372218164635.2,2.043422245112691e+16
25.91617852304095,6762290657136359.0,2.9802497666528056e+16,360351417113422.2,353851350467563.0,67354894344697.53,108003005275741.4,1179725619939819.0,2.0970920722250444e+16
26.53450209350177,6779112025729340.0,3.0404174174868532e+16,361247800355613.1,354731564634299.2,69108170710812.88,110837063717168.58,1210699588602566.2,2.151843796111876e+16
27.165192135371807,6795631767061694.0,3.101726198923051e+16,362128110374028.06,355595995508148.7,70896461637382.11,113728906817766.28,1242305999728899.8,2.207697474810262e+16
27.808495978079243,6811857859973011.0,3.164198828810055e+16,362992772347987.2,356445060598991.6,72720405440986.73,116679638578815.89,1274556974549547.8,2.264673557661122e+16
28.464665897640828,6827798133469229.0,3.2278584346420764e+16,363842203472422.44,357279169576338.3,74580652427237.16,119690385670465.98,1307464884603776.2,2.322792891720134e+16
29.133959215593645,6843460271105949.0,3.292728561077783e+16,364676813191454.1,358098724498705.06,76477865068041.16,122762297855915.67,1341042356484485.2,2.382076728257327e+16
29.816638399905518,6858851815226980.0,3.358833177542262e+16,365497003424256.2,358904120035391.5,78412718180526.64,125896548423688.33,1375302276676204.8,2.4425467293455616e+16
30.51297116790363,6873980171066541.0,3.426196685913146e+16,366303168783657.25,359695743681149.06,80385899107571.84,129094334628130.75,1410257796487559.8,2.504224974537692e+16
31.223230591261704,6888852610723826.0,3.4948439282918548e+16,367095696787937.5,360473975964152.6,82398107899896.9,132356878138269.78,1445922337079889.8,2.567133967632458e+16
31.947695203086937,6903476277017404.0,3.564800194860969e+16,367874968066225.06,361239190647688.0,84450057499667.98,135685425495166.34,1482309594593738.2,2.6312966435289812e+16
32.686649107148675,6917858187226665.0,3.636091231828463e+16,368641356557870.3,361991754925939.75,86542473925558.95,139081248577903.02,1519433545374858.0,2.6967363751695856e+16
33.44038208929165,6932005236726950.0,3.708743249459471e+16,369395229706155.8,362732029614199.44,88676096459216.03,142545645078349.97,1557308451301557.0,2.7634769805708148e+16
34.20918973107749,6945924202524520.0,3.782782930196107e+16,370136948646667.94,363460369333841.56,90851677833062.67,146079938984847.7,1595948865215089.5,2.831542729942301e+16
34.993373525699035,6959621746697151.0,3.858237436865945e+16,370866868390641.8,364177122692363.56,93069984419381.05,149685481074957.16,1635369636454972.2,2.9009583528929892e+16
35.793240996213015,6973104419745527.0,3.93513442097915e+16,371585338003556.56,364882632458750.75,95331796420600.9,153363649417418.22,1675585916500967.2,2.9717490457244624e+16
36.60910581613728,6986378663860761.0,4.013502031114831e+16,372292700779245.25,365577235734460.6,97637908060724.94,157115849883469.84,1716613164723710.8,3.043940478810589e+16
37.44128793246003,6999450816112374.0,4.093368921396446e+16,372989294409786.06,366261264120235.0,99989127777809.69,160943516667683.56,1758467154245734.2,3.117558804063075e+16
38.29011369110923,7012327111561178.0,4.174764260056239e+16,373675451151379.0,366935043878991.75,102386278417423.08,164848112818452.12,1801163977914939.8,3.1926306624820156e+16
39.15591596493141,7025013686301168.0,4.257717738088714e+16,374351497986445.3,367598896095001.5,104830197426989.1,168831130778302.38,1844720054392372.5,3.2691831917906828e+16
40.03903428423004,7037516580434198.0,4.342259577992496e+16,375017756782141.0,368253136829537.06,107321737050929.1,172894092934174.44,1889152134356296.0,3.3472440341537636e+16
40.93981496991464,7049841740980931.0,4.42842054260057e+16,375674544445477.5,368898077273200.44,109861764526501.06,177038552177832.7,1934477306824574.2,3.42684134397772e+16
41.85861126931294,7061995024731552.0,4.516231943998001e+16,376322173075232.5,369534023895086.5,112451162280232.9,181266092476557.53,1980713005597359.2,3.5080037957924036e+16
42.7957834946992,7073982201039039.0,4.605725652526524e+16,376960950110796.5,370161278588957.5,115090828124845.5,185578329454290.7,2027877015822171.5,3.5907605922125068e+16
43.751699164593184,7085808954558460.0,4.696934105875177e+16,377591178478145.8,370780138816570.9,117781675456542.39,189976910983379.28,2075987480683411.2,3.675141471977527e+16
44.72673314788505,7097480887934455.0,4.789890318256008e+16,378213156733058.06,371390897748312.9,120524633452554.02,194463517787092.88,2125062908218397.5,3.761176718068615e+16
