t(s),Total solute volume 1,Total retention volume 1,Total 1 volume 1,Total 2 volume 1,Total 3 volume 1,Total 4 volume 1,Total 5 volume 1,Total 6 volume 1
0.1,1405356901042544.8,1.6627283363228424e+16,3932847546865173.5,1.1289078915320706e+16,0.0,0.0,0.0,0.355950925957304
0.202,1950522936273163.2,2.308896714946478e+16,5458493544032324.0,1.5668761810740838e+16,20433435217.698826,160496307763.85364,2446457648208.8413,8561471027263.713
0.30604000000000003,2396536691586036.0,2.8385985955766344e+16,6706655396089799.0,1.9251708829249812e+16,50722036849.28109,400271976348.63007,6694772160110.061,23939272667384.29
0.41216080000000005,2782606595347424.0,3.298123837695185e+16,7787064787970138.0,2.235309438493564e+16,89231474192.40771,705473122355.8668,12431681974185.254,45246222127918.9
0.5204040160000001,3128514002213312.0,3.7108174082073016e+16,8755079948405522.0,2.5131839323235044e+16,135115931875.8713,1069297173656.8842,19493918231499.176,72042476882115.9
0.6308120963200001,3445651535243085.5,4.090125687056559e+16,9642583062434524.0,2.7679466949876996e+16,187897835659.05817,1487922384633.5894,27787353985554.855,104092148805138.08
0.7434283382464002,3741115835585943.0,4.444425887734668e+16,1.0469433999661506e+16,3.00529875655327e+16,247295358614.8675,1959095760626.998,37253196472196.984,141261888975094.34
0.8582969050113283,4019622536315677.5,4.7792868346397784e+16,1.1248829392779274e+16,3.22902834876604e+16,313142790070.6885,2481491940539.749,47853985821508.5,183484309090330.47
0.9754628431115548,4284472677719570.0,5.098609347391846e+16,1.199000715124159e+16,3.441787297783255e+16,385349717548.2539,3054386187960.5605,59566428868121.96,230734502351107.88
1.094972099973786,4538075485908188.0,5.405242941734453e+16,1.2699709454077038e+16,3.645511001740538e+16,463878098103.5811,3677471099420.3643,72377044798206.02,283016065958194.7
1.2168715419732616,4782249262990231.0,5.701340904910991e+16,1.338302478810252e+16,3.841660149756449e+16,548728371489.4741,4350745716100.2637,86279547622466.1,340354478742610.4
1.3412089728127268,5018404387309305.0,5.988576154272046e+16,1.404390007186636e+16,4.031367733338614e+16,639930555928.1619,5074444476415.026,101273186286704.4,402792188839624.7
1.4680331522689813,5247659908914497.0,6.268278670604369e+16,1.4685466946475924e+16,4.215532711697362e+16,737538278203.1454,5848989609427.968,117361588444905.58,470384617347106.44
1.597393815314361,5470920747817900.0,6.541526505793311e+16,1.531025781377684e+16,4.394882027635001e+16,841624618517.0525,6674958012546.595,134551936156036.81,543197701201286.7
1.729341691620648,5688930557031517.0,6.809208105206687e+16,1.5920353772734348e+16,4.57001307403771e+16,952279135267.0857,7553057541944.481,152854377696038.2,621306267550673.8
1.863928525453061,5902309005107269.0,7.072066231886119e+16,1.6517488954014804e+16,4.741423644016742e+16,1069605690923.788,8484109692123.848,172281595898728.25,704792608289913.5
2.001207095962122,6111578722628403.0,7.330729699620733e+16,1.7103125929290062e+16,4.909533577767286e+16,1193720835370.8772,9469036719196.287,192848482006537.97,793745327054916.5
2.1412312378813647,6317185189628744.0,7.585736796613862e+16,1.7678511365838408e+16,5.07470073865821e+16,1324752585867.473,10508851924254.777,214571887570715.56,888258532008534.1
2.284055862638992,6519511696374912.0,7.83755290511014e+16,1.8244717894031732e+16,5.2372330316108616e+16,1462839498037.9043,11604652255404.568,237470435822607.75,988431217010096.9
2.4297369798917723,6718890792130906.0,8.086583978580195e+16,1.880267614649971e+16,5.397397600176481e+16,1608129955604.051,12757612652523.896,261564377399877.75,1094366725398531.9
2.578331719489608,6915613174963344.0,8.333187004860998e+16,1.935319963608985e+16,5.555427967932372e+16,1760781626359.0818,13968981715990.305,286875479519470.44,1206172315371275.0
2.7298983538794,7109934684042004.0,8.577678238094326e+16,1.9897004323693096e+16,5.711529655562617e+16,1920961046242.4226,15240078395281.44,313426941501905.3,1323958836638624.0
2.884496320956988,7302081866051363.0,8.820339753282744e+16,2.043472419574438e+16,5.865884652485909e+16,2088843304253.5286,16572289480432.318,341243331456777.9,1447840481931139.8
3.0421862473761276,7492256455191999.0,9.061424722212378e+16,2.0966923801423556e+16,6.018655015743062e+16,2264611807963.4443,17967067735216.742,370350539804777.75,1577934588729603.8
3.2030299723236504,7680639013323565.0,9.301161702366354e+16,2.1494108439527476e+16,6.169985794205767e+16,2448458113865.976,19425930546432.395,400775746252498.1,1714361493842024.2
3.3670905717701234,7867391913181947.0,9.539758155129827e+16,2.2016732506947296e+16,6.320007425061e+16,2640581810397.1157,20950458992268.406,432547397780933.3,1857244441975440.5
3.5344323832055258,8052661802995924.0,9.777403355813274e+16,2.253520639585154e+16,6.468837713691335e+16,2841190444372.664,22542297256110.754,465695195739949.06,2006709538931493.8
3.7051210308696363,8236581657698498.0,1.001427081909357e+17,2.304990223396195e+16,6.616583481457167e+16,3050499483580.347,24203152327946.816,500250090376840.06,2162885742515189.0
3.879223451487029,8419272497225734.0,1.0250520334914395e+17,2.3561158693179972e+16,6.7633419460425704e+16,3268732309609.0166,25934793946187.07,536244281394146.9,2325904890662603.5
4.0568079205167695,8600844834477017.0,1.04862996886713e+17,2.4069285041675612e+16,6.909201884631975e+16,3496120236140.0815,27739054741819.426,573711223438645.0,2495901765824028.0
4.237944078927105,8781399902244845.0,1.0721746123562834e+17,2.4574564577426584e+16,7.054244619528056e+16,3732902548892.874,29617830554541.49,612685635607849.6,2673014191965044.0
4.422702960505647,8961030698129997.0,1.0956987590884654e+17,2.5077257552393184e+16,7.198544857553121e+16,3979326564102.7983,31573080895982.426,653203514137950.2,2857383161194127.0
4.61115701971576,9139822878495404.0,1.119214382476563e+17,2.5577603674230336e+16,7.342171408179885e+16,4235647702916.641,33606829539135.215,695302147538339.1,3049152988351320.5
4.803380160110075,9317855526495972.0,1.142732727066936e+17,2.6075824255604076e+16,7.48518780050468e+16,4502129579546.692,35721165216766.67,739020133574277.4,3248471491176194.5
4.9994477633122765,9495201814557588.0,1.1662643891386525e+17,2.6572124068125496e+16,7.627652815429254e+16,4779044101415.704,37918242414697.81,784397397591425.6,3455490192782105.0
5.199436718578522,9671929577923328.0,1.1898193869841768e+17,2.7066692947408516e+16,7.769620946401022e+16,5066671579809.101,40200282248112.76,831475211723261.4,3670364543524483.5
5.403425452950093,9848101812918428.0,1.2134072224551749e+17,2.7559707187454028e+16,7.911142799678131e+16,5365300849787.912,42569573410945.62,880296214591842.9,3893254159511167.5
5.611493962009095,1.002377711129139e+16,1.2370369350789722e+17,2.8051330756144516e+16,8.052265443243165e+16,5675229398353.972,45028473190305.54,930904431210150.8,4124323074230898.5
5.823723841249277,1.0199010040126332e+16,1.2607171498279109e+17,2.8541716358421104e+16,8.193032711993099e+16,5996763500059.858,47579408539517.68,983345292868162.5,4363739999404972.0
6.040198318074262,1.0373851475248626e+16,1.2844561194434126e+17,2.9031006369311864e+16,8.333485475569392e+16,6330218359394.85,50224877204467.65,1037665656830828.9,4611678591692175.0
6.261002284435747,1.054834889478361e+16,1.3082617620699734e+17,2.9519333655449844e+16,8.47366187417835e+16,6675918259406.909,52967448898972.5,1093913825740367.5,4868317722081644.0
6.486222330124463,1.0722546638550926e+16,1.332141694834482e+17,3.000682230098275e+16,8.613597526966589e+16,7034196716169.879,55809766526107.305,1152139566702142.8,5133841744304250.0
6.715946776726952,1.0896486138142136e+16,1.3561032639078597e+17,3.0493588251439772e+16,8.75332571684568e+16,7405396638825.934,58754547443396.71,1212394130096620.5,5408440758568457.0
6.950265712261491,1.1070206121764258e+16,1.3801535715047758e+17,3.097973988698227e+16,8.892877555046171e+16,7789870494994.766,61804584770270.54,1274730268190000.2,5692310867814063.0
7.18927102650672,1.1243742797305268e+16,1.4042995002097907e+17,3.1465378534708364e+16,9.032282128176677e+16,8187980481395.323,64962748736618.87,1339202253656324.0,5985654424324344.0
7.433056447036854,1.141713001660912e+16,1.4285477349621666e+17,3.1950598928373056e+16,9.171566630188486e+16,8600098699613.008,68231988071990.53,1405865898185381.0,6288680264392611.0
7.681717575977592,1.159039942353516e+16,1.452904782984565e+17,3.2435489622729508e+16,9.310756481313987e+16,9026607337013.053,71615331435527.61,1474778571386093.8,6601603928893387.0
7.935351927497144,1.1763580587947902e+16,1.477376991901416e+17,3.292013336849642e+16,9.449875435702704e+16,9467898852799.434,75115888886710.89,1545999220183510.8,6924647868747217.0
8.194058966047088,1.1936701127413778e+16,1.501970566259424e+17,3.340460745292395e+16,9.588945679182382e+16,9924376169200.32,78736853396831.77,1619588388896747.8,7258041635318203.0
8.45794014536803,1.2109786818140592e+16,1.5266915826345165e+17,3.388898401025537e+16,9.727987918378566e+16,10396452867792.78,82481502401362.19,1695608240207116.5,7602022055793678.0
8.72709894827539,1.2282861696501082e+16,1.5515460034855565e+17,3.4373330305839028e+16,9.867021462270456e+16,10884553391017.361,86353199393704.73,1774122577232087.5,7956833393494087.0
9.0016409272409,1.2455948152232638e+16,1.576539689894784e+17,3.485770899694546e+16,1.0006064297059987e+17,11389113248894.326,90355395560473.19,1855196866866738.2,8322727494024372.0
9.281673745785717,1.2629067014159444e+16,1.601678413317423e+17,3.5342178372659668e+16,1.0145133155034363e+17,11910579230871.578,94491631457782.14,1938898264488632.8,8699963919402300.0
9.567307220701432,1.2802237629162152e+16,1.626967866447963e+17,3.5826792574875924e+16,1.028424357800417e+17,12449409622726.295,98765538727948.31,2025295640114168.2,9088810072251734.0
9.85865336511546,1.2975477935078992e+16,1.652413673297717e+17,3.631160180231039e+16,1.0423409975866616e+17,13006074428492.79,103180841856426.34,2114459606107740.5,9489541311323442.0
10.155826432417769,1.3148804528111508e+16,1.6780213985671034e+17,3.679665249913495e+16,1.056264568075428e+17,13581055597367.434,107741359968616.14,2206462546489439.8,9902441059865760.0
10.458942961066125,1.332223272512597e+16,1.70379655638654e+17,3.72819875293263e+16,1.0701962997083538e+17,14174847255421.818,112451008665187.88,2301378647784236.0,1.032780090966158e+16
10.768121820287448,1.349577662116026e+16,1.7297446184913946e+17,3.776764633759862e+16,1.0841373247751496e+17,14787955941903.467,117313801894143.73,2399283931329520.5,1.0765920723700044e+16
11.083484256693197,1.3669449142514176e+16,1.7558710218892454e+17,3.825366509797539e+16,1.0980886816784986e+17,15420900850000.871,122333853858638.67,2500256287024292.5,1.1217108738852194e+16
11.405153941827061,1.3843262095825962e+16,1.7821811760713357e+17,3.874007685112958e+16,1.11205131887653e+17,16074214072020.027,127515380960166.16,2604375508513654.5,1.1681681668979402e+16
11.733257020663602,1.4017226213391542e+16,1.8086804698145587e+17,3.922691163120872e+16,1.126026098523447e+17,16748440848799.01,132862703775708.7,2711723329683915.0,1.2159964810202482e+16
12.067922161076874,1.4191351194844784e+16,1.83537427761546e+17,3.971419658247673e+16,1.1400137998178526e+17,17444139823035.928,138380249066213.88,2822383462260920.0,1.2652292151288936e+16
12.409280604298411,1.436564574540719e+16,1.8622679657935133e+17,4.020195606635477e+16,1.154015122075463e+17,18161883296303.688,144072551814563.9,2936441634415788.5,1.3159006490516528e+16
12.75746621638438,1.4540117611092576e+16,1.8893668982971514e+17,4.0690211759941256e+16,1.1680306875572256e+17,18902257489764.984,149944257293193.6,3053985630436021.5,1.3680459557739722e+16
13.112615540712067,1.471477361119017e+16,1.9166764422426803e+17,4.1178982746915304e+16,1.1820610440787952e+17,19665862808580.95,156000123161341.66,3175105331443104.5,1.4217012140870044e+16
13.474867851526309,1.4889619668080404e+16,1.944201973213424e+17,4.166828560097578e+16,1.1961066674057493e+17,20453314109687.78,162245021589286.34,3299892756909258.0,1.4769034219102966e+16
13.844365208556836,1.5064660834382818e+16,1.971948880343688e+17,4.215813446181446e+16,1.2101679634344691e+17,21265240972514.246,168683941406077.44,3428442106742997.0,1.5336905105603002e+16
14.221252512727972,1.523990131773638e+16,1.999922571209997e+17,4.264854110446319e+16,1.2242452701828288e+17,22102287972606.523,175321990270545.66,3560849804050016.5,1.592101359822403e+16
14.605677562982532,1.5415344503706996e+16,2.028128476549919e+17,4.313951500340048e+16,1.2383388596304522e+17,22965114958467.79,182164396868176.34,3697214538836349.0,1.6521758134176142e+16
14.997791114242183,1.5590992977006476e+16,2.0565720548270266e+17,4.3631063391932424e+16,1.2524489394232973e+17,23854397331560.9,189216513133461.5,3837637312560043.0,1.7139546948409018e+16
15.397746936527026,1.576684854078679e+16,2.0852587966589568e+17,4.4123191316187256e+16,1.2665756544236446e+17,24770826328790.246,196483816492127.78,3982221483051841.0,1.777479824068436e+16
15.805701875257567,1.5942912233944492e+16,2.1141942291240214e+17,4.461590168354181e+16,1.2807190881002274e+17,25715109306943.91,203971912119013.06,4131072809633805.5,1.8427940353833464e+16
16.221815912762718,1.6119184346983268e+16,2.1433839199606294e+17,4.510919530701252e+16,1.294879263802518e+17,26687970029534.566,211686535215278.8,4284299498972317.5,1.9099411957598228e+16
16.64625223101797,1.6295664437065154e+16,2.1728334816725504e+17,4.56030709473761e+16,1.3090561459698661e+17,27690148956765.85,219633553311023.12,4442012252173539.5,1.978966223138585e+16
17.079177275638333,1.6472351342111348e+16,2.2025485755520736e+17,4.609752535263043e+16,1.3232496412642672e+17,28722403538201.875,227818968589838.16,4604324312646170.0,2.049915104926471e+16
17.5207608211511,1.6649243193265718e+16,2.2325349156321776e+17,4.659255329287362e+16,1.3374595995716011e+17,29785508506666.305,236248920223197.28,4771351513741538.0,2.122834917744687e+16
17.97117603757412,1.6826337425712092e+16,2.2627982725779965e+17,4.708814759057609e+16,1.3516858148706355e+17,30880256172868.785,244929686710598.4,4943212326242976.0,2.1977738485321492e+16
18.430599558325603,1.7003630788922382e+16,2.2933444775271235e+17,4.758429914925953e+16,1.3659280260562853e+17,32007456722258.17,253867688237948.62,5120027907114598.0,2.2747812156827224e+16
18.899211549492115,1.7181119357144146e+16,2.324179425887647e+17,4.808099698284675e+16,1.3801859177821382e+17,33167938515454.11,263069489065403.12,5301922150256070.0,2.3539074892723004e+16
19.37719578048196,1.735879853934997e+16,2.3553090811021494e+17,4.857822824350436e+16,1.3944591212597234e+17,34362548390764.87,272541799932355.62,5489021737758471.0,2.4352043115306664e+16
19.864739696091597,1.7536663087256934e+16,2.3867394783854675e+17,4.907597824408556e+16,1.4087472149027531e+17,35592151965743.06,282291480454456.9,5681456189679692.0,2.5187245194829056e+16
20.36203449001343,1.771470710170942e+16,2.4184767284433917e+17,4.957423047599223e+16,1.4230497248398698e+17,36857633937655.62,292325541511764.0,5879357913161337.0,2.604522169403984e+16
20.869275179813698,1.7892924039548406e+16,2.4505270211791565e+17,5.007296662839831e+16,1.437366125466482e+17,38159898386715.77,302651147659939.8,6082862254147942.0,2.692652560312614e+16
21.38666068340997,1.8071306722034692e+16,2.4828966293940896e+17,5.057216661182242e+16,1.4516958401214515e+17,39499869084464.61,313275619584241.8,6292107552680050.0,2.7831722552057988e+16
21.91439389707817,1.8249847342835844e+16,2.5155919124884947e+17,5.1071808580479256e+16,1.4660382417287222e+17,40878489803300.02,324206436563219.6,6507235197887035.0,2.87613910284085e+16
22.452681775019734,1.842853747298776e+16,2.548619320168456e+17,5.1571868946164296e+16,1.480392653195899e+17,42296724620934.625,335451238890815.0,6728389678746135.0,2.9716122635845716e+16
23.00173541052013,1.860736806381672e+16,2.5819853961640314e+17,5.207232238643122e+16,1.494758347648971e+17,43755558220794.86,347017830265443.7,6955718633273329.0,3.0696522379498496e+16
23.561770118730532,1.878632945192793e+16,2.6156967819639466e+17,5.257314185855214e+16,1.509134548833054e+17,45255996197253.234,358914180219697.94,7189372903346836.0,3.170320892284546e+16
24.133005521105144,1.896541136780896e+16,2.6497602205717427e+17,5.307429862359432e+16,1.523520431803565e+17,46799065370115.78,371148426627156.94,7429506596447408.0,3.2736814796969812e+16
24.715665631527248,1.914460294384483e+16,2.6841825602880682e+17,5.35757622688505e+16,1.5379151235701174e+17,48385814099026.25,383728878209009.4,7676277145342956.0,3.3797986621448708e+16
25.309978944157795,1.9323892716934196e+16,2.718970758523623e+17,5.40775007151598e+16,1.552317703306674e+17,50017312584931.71,396664016934370.4,7929845357651724.0,3.4887385402429868e+16
25.91617852304095,1.9503268627880464e+16,2.7541318856470624e+17,5.457948021520431e+16,1.5667272023025904e+17,51694653161869.83,409962500341627.3,8190375461764610.0,3.6005686876094148e+16
26.53450209350177,1.9682718025334484e+16,2.7896731288720502e+17,5.50816653645419e+16,1.5811426042793437e+17,53418950598474.3,423633163941337.25,8458035164683982.0,3.715358179017045e+16
27.165192135371807,1.9862227677018748e+16,2.8256017961874787e+17,5.558401913301739e+16,1.5955628462922474e+17,55191342418451.58,437685023776940.94,8732995724189285.0,3.833177608910222e+16
27.808495978079243,2.0041783780251864e+16,2.8619253203346877e+17,5.608650289421579e+16,1.6099868195759594e+17,57012989220355.43,452127278980329.25,9015432016052788.0,3.954099111715173e+16
28.464665897640828,2.022137196263223e+16,2.898651262835536e+17,5.658907642737437e+16,1.6244133695993504e+17,58885074969554.56,466969314098417.6,9305522578929938.0,4.078196396561398e+16
29.133959215593645,2.040097727653074e+16,2.935787318074889e+17,5.7091697901971224e+16,1.63884129562302e+17,60808807268414.375,482220701241231.56,9603449649964942.0,4.205544790821023e+16
29.816638399905518,2.0580584201724716e+16,2.973341317441144e+17,5.759432388509569e+16,1.6532693509108595e+17,62785417645007.23,497891202385115.56,9909399224029944.0,4.336221272214795e+16
30.51297116790363,2.0760176662066068e+16,3.01132123352823e+17,5.809690938809435e+16,1.6676962440691293e+17,64816161882217.92,513990772011265.4,1.0223561143800088e+16,4.4703044818056056e+16
31.223230591261704,2.093973804244016e+16,3.049735184402461e+17,5.859940791403066e+16,1.6821206404089018e+17,66902320350013.03,530529559770968.7,1.0546129182284964e+16,4.607874738047923e+16
31.947695203086937,2.1119251188440228e+16,3.08859143793757e+17,5.910177145677297e+16,1.696541161919818e+17,69045198283471.945,547517912703291.4,1.0877301079144224e+16,4.749014076643103e+16
32.686649107148675,2.1298698392965624e+16,3.127898416221164e+17,5.960395046349003e+16,1.7109563861933517e+17,71246126011500.81,564966377047264.4,1.1217278551963876e+16,4.8938063091302776e+16
33.44038208929165,2.14780613949791e+16,3.167664700035758e+17,6.010589383117253e+16,1.7253648463229066e+17,73506459215084.97,582885700301301.1,1.1566267349657136e+16,5.0423370635960024e+16
34.20918973107749,2.1657321404279624e+16,3.2078990334175565e+17,6.060754897596026e+16,1.7397650328940074e+17,75827579269383.69,601286833977658.4,1.1924477372066898e+16,5.194693788680085e+16
34.993373525699035,2.183645913144348e+16,3.248610328295998e+17,6.110886191693196e+16,1.7541553963897184e+17,78210893608906.31,620180936547735.9,1.2292122786620524e+16,5.3509657525475416e+16
35.793240996213015,2.2015454789822304e+16,3.2898076692171686e+17,6.16097772816969e+16,1.7685343473510624e+17,80657835997460.25,639579375600204.5,1.2669422056577992e+16,5.511244084691565e+16
36.60910581613728,2.219428806994324e+16,3.331500318153963e+17,6.211023823475277e+16,1.7829002543202474e+17,83169866688186.5,659493729093098.9,1.3056597903454806e+16,5.67562185794392e+16
37.44128793246003,2.237293812743761e+16,3.373697719406035e+17,6.26101864437041e+16,1.7972514428707792e+17,85748472614472.45,679935786865876.2,1.3453877332026456e+16,5.8441941490877304e+16
