t(s),Total solute volume 1,Total retention volume 1,Total 1 volume 1,Total 2 volume 1,Total 3 volume 1,Total 4 volume 1,Total 5 volume 1,Total 6 volume 1
0.1,803801399340899.0,888695292650996.4,42833262785020.44,42060630525076.21,0.0,0.0,0.0,0.0
0.202,1210063586464212.5,1340092704754584.0,64482310776354.41,63319170155612.3,6744414146.511213,10721795494.002573,117044401082.22679,2093126747680.0078
0.30604000000000003,1518524874720197.2,1684551388961827.2,80919708681314.25,79460068076075.31,17096004158.593294,27178158271.53212,296690472967.20465,5305772848843.741
0.41216080000000005,1778653142452480.8,1976526791230428.0,94781518914792.81,93071837114331.95,30337220802.78332,48228455263.64938,526486455767.4456,9415240616986.295
0.5204040160000001,2008963683450361.8,2236383185742363.0,107054391223969.64,105123329702401.02,46145547725.42677,73360039191.56331,800836069484.2139,14321439709231.395
0.6308120963200001,2218682393908231.2,2474262567956288.5,118229958538794.45,116097310630613.23,64344466598.43231,102292357241.78853,1116676701155.6301,19969591353653.754
0.7434283382464002,2413171486107308.0,2696059031228099.0,128593964387898.05,126274369147811.52,84829656376.80748,134859630483.09839,1472198669926.5276,26327323628291.297
0.8582969050113283,2595865342461902.0,2905549051872054.0,138329421397039.62,135834216673555.1,107538641308.90576,170962603781.79538,1866318504296.7134,33375251590168.27
0.9754628431115548,2769116276655490.5,3105321629538229.5,147561680517809.75,144899943062176.5,132435815692.79759,210544740070.7704,2298419066853.0254,41102329680126.414
1.094972099973786,2934616771522496.5,3297242375551408.0,156380931394266.1,153560111104834.2,159504134855.9212,253579011864.48813,2768205364000.022,49503273019086.96
1.2168715419732616,3093631343300537.5,3482708212215823.5,164854558029986.2,161880889323399.75,188740109235.0676,300059943679.607,3275617677245.5815,58577003831742.41
1.3412089728127268,3247133331817562.5,3662797551474437.0,173034428113571.3,169913209810137.72,220150599010.11462,349998516775.5344,3820775941014.06,68325656676363.3
1.4680331522689813,3395890255194674.0,3838363954045063.5,180961441431262.06,177697234595444.97,253750663387.22418,403418750459.8507,4403942422683.431,78753910987157.78
1.597393815314361,3540519527166653.5,4010097236851751.0,188668498951880.75,185265271176043.7,289562063371.57526,460355322241.01556,5025495743200.615,89868526428357.08
1.729341691620648,3681526202916890.5,4178564850844433.5,196182514240684.3,192643747646681.1,327612188225.90967,520851861513.9094,5685912250320.913,101678009740114.33
1.863928525453061,3819329357389127.0,4344240784889987.0,203525819116486.3,199854593001818.06,367933267070.1369,584959696537.0458,6385752340209.651,114192370078736.64
2.001207095962122,3954281013153867.5,4507526297736703.0,210717172286720.84,206916227576800.7,410561778488.4025,652736916187.7559,7125650215322.5205,127422935809322.98
2.1412312378813647,4086680034699772.5,4668765131425759.0,217772499751524.16,213844290096430.75,455538001357.7278,724247656224.857,7906306093128.568,141382215127326.1
2.284055862638992,4216782531657551.5,4828254898968981.0,224705449174528.3,220652182045949.06,502905668747.9579,799561549413.0891,8728480203636.963,156083788669151.78
2.4297369798917723,4344809784706642.5,4986255758420249.0,231527812241478.47,227351482411087.03,552711698580.1942,878753297681.1826,9592988119112.78,171542225945661.6
2.578331719489608,4470954377731723.0,5142997122969369.0,238249851432828.75,233952268556293.9,605005982473.9757,961902336794.6062,10500697093738.105,187773019835517.56
2.7298983538794,4595385007722939.0,5298682923932449.0,244880556335464.28,240463367913079.22,659841219410.1843,1049092572284.9747,11452523181156.746,204792534988114.56
2.884496320956988,4718250304261525.0,5453495790289463.0,251427847176849.75,246892557842778.38,717272784404.453,1140412171049.845,12449428959755.66,222617967093102.88
3.0421862473761276,4839681896402872.0,5607600405284865.0,257898738254209.75,253246726117781.16,777358624885.2438,1235953397009.8706,13492421738909.795,241267310749205.62
3.2030299723236504,4959796900180592.0,5761146229785686.0,264299470489561.88,259532001085512.8,840159179253.7299,1335812482044.4897,14582552150358.002,260759334218364.0
3.3670905717701234,5078699954784136.0,5914269732576859.0,270635619934289.7,265753858215793.9,905737313395.3418,1440089525482.5498,15720913051310.996,281113559752445.7
3.5344323832055258,5196484903349499.0,6067096232583222.0,276912187335731.62,271917208051809.62,974158271864.0426,1548888416936.2532,16908638682401.713,302350248474986.94
3.7051210308696363,5313236179102182.0,6219741433255898.0,283133672003211.6,278026468745316.34,1045489638893.8708,1662316775492.0122,18146904131541.918,324490402859246.4
3.879223451487029,5429030025211412.0,6372312706904824.0,289304136809109.6,284085629878840.6,1119801320823.4512,1780485919390.9668,19436924495215.195,347555703270020.4
4.0568079205167695,5543935409274770.0,6524910183004275.0,295427256924745.6,290098300332109.7,1197165514342.9531,1903510820320.0068,20779955140212.87,371568584997788.3
4.237944078927105,5658014910837158.0,6677627670491946.0,301506367111786.44,296067754713916.06,1277656704445.3076,2031510097831.0564,22177291137356.746,396552179889453.56
4.422702960505647,5771325424101889.0,6830553446901192.0,307544499169338.2,301996970135361.44,1361351657185.8477,2164606009081.2664,23630267276077.266,422530328552246.44
4.61115701971576,5883918771449712.0,6983770936795817.0,313544414627373.56,307888658313572.7,1448329419894.614,2302924449735.7397,25140258074699.02,449527580460831.4
4.803380160110075,5995842232351798.0,7137359298146474.0,319508632931637.4,313745293248192.4,1538671325873.8052,2446594962025.3633,26708677868854.74,477569195458101.5
4.9994477633122765,6107139001470631.0,7291393931703281.0,325439455855096.6,319569135192501.44,1632461002985.8352,2595750749015.744,28336980967722.45,506681146465332.75
5.199436718578522,6217848587170211.0,7445946925607621.0,331338988733896.5,325362251506307.06,1729784385635.8005,2750528694299.6094,30026661869488.27,536890123247769.9
5.403425452950093,6328007159621985.0,7601087445262180.0,337209159017357.2,331126534871340.5,1830729729731.8276,2911069386451.5767,31779255528820.6,568223537106490.0
5.611493962009095,6437647856072392.0,7756882076708395.0,343051732535183.06,336863719265035.1,1935387630271.8745,3077517147688.06,33596337670270.676,600709526387538.1
5.823723841249277,6546801049537972.0,7913395130340133.0,348868327815781.8,342575394020567.0,2043851041258.7383,3250020066259.2095,35479525142438.95,634376962715863.1
6.040198318074262,6655494586144825.0,8070688910638363.0,354660428733705.1,348263016246158.3,2156215297689.097,3428730032170.339,37430476308512.25,669255457875308.5
6.261002284435747,6763753995478280.0,8228823956681011.0,360429395718827.75,353927921832069.56,2272578139398.902,3613802775888.0703,39450891469407.88,705375371267135.5
6.486222330124463,6871602677612886.0,8387859257424825.0,366176475722879.1,359571335237348.6,2393039736577.874,3805397909734.8696,41542513316294.516,742767817889117.2
6.715946776726952,6979062069922911.0,8547852445133271.0,371902811108499.2,365194378218544.6,2517702716791.412,4003678971716.475,43707127409698.375,781464676785103.0
6.950265712261491,7086151796302552.0,8708859969810839.0,377609447600932.4,370798077637973.44,2646672193369.759,4208813471560.9414,45946562682780.73,821498599921676.6
7.18927102650672,7192889801034982.0,8870937257080057.0,383297341421706.25,376383372468708.25,2780055795042.3984,4420972938776.851,48262691966690.13,862903021454147.9
7.433056447036854,7299292469225217.0,9034138851582448.0,388967365706284.0,381951120096482.1,2917963696711.538,4640332972563.389,50657432536160.0,905712167349028.6
7.681717575977592,7405374735439035.0,9198518547689382.0,394620316293269.5,387502102004455.56,3060508651271.1987,4867073293425.905,53132746673757.305,949961065334174.5
7.935351927497144,7511150181963401.0,9364129509060384.0,400256916960537.0,393037028914901.0,3207806022390.681,5101377796368.784,55690642251385.125,995685555151408.9
8.194058966047088,7616631127910549.0,9531024378376740.0,405877824173443.8,398556545451766.0,3359973818190.2676,5343434605553.574,58333173327814.38,1042922299089445.1
8.45794014536803,7721828725238372.0,9699255377819740.0,411483632201199.5,404061235163895.75,3517132732464.378,5593436140061.235,61062440699187.55,1091708775644550.6
8.72709894827539,7826752972281373.0,9868874404263216.0,417074873839516.56,409551621238101.0,3679406153187.862,5851579132392.316,63880592772630.59,1142083358846018.8
9.0016409272409,7931412872079742.0,1.0039933113979772e+16,422652028845285.06,415028174776475.44,3846920238543.372,6118064744989.42,66789825836743.65,1194085227457988.8
9.281673745785717,8035816433283139.0,1.0212483003853254e+16,428215523986357.7,420491314848776.5,4019803926999.839,6393098591316.9,69792384958702.695,1247754444257967.0
9.567307220701432,8139970742203799.0,1.0386575486556032e+16,433765736880731.3,425941412261479.5,4198188981277.034,6676890806208.35,72890564587355.73,1303131950835171.2
9.85865336511546,8243882015046280.0,1.056226196094863e+16,439302998779786.8,431378792290810.75,4382210026283.364,6969656107620.871,76086709228464.52,1360259579469367.0
10.155826432417769,8347555646105331.0,1.0739593878219138e+16,444827597136677.56,436803737204804.94,4572004587634.732,7271613859374.587,79383214130751.98,1419180065194560.2
10.458942961066125,8450996252353560.0,1.0918622804220104e+16,450339777982327.8,442216488596448.56,4767713130729.499,7582988134839.634,82782525982334.94,1479937058039858.2
10.768121820287448,8554207714792243.0,1.1099400478408696e+16,455839748128952.7,447617249547454.56,4969479100357.357,7904007781538.226,86287143617204.75,1542575135440904.0
11.083484256693197,8657193216897122.0,1.128197886975105e+16,461327677218771.8,453006186640011.4,5177448960823.923,8234906486635.434,89899618731455.4,1607139814816260.2
11.405153941827061,8759955280453571.0,1.146641022991221e+16,466803699633608.06,458383431831948.1,5391772236575.408,8575922843296.29,93622556609026.53,1673677566304191.2
11.733257020663602,8862495799044277.0,1.1652747144016788e+16,472267916279388.0,463749084209038.56,5612601553310.651,8927300417892.223,97458616856775.14,1742235825656117.8
12.067922161076874,8964816069423250.0,1.1841042579238094e+16,477720396258013.75,469103211626714.3,5840092679570.584,9289287818043.568,101410514148731.9,1812863007283793.0
12.409280604298411,9066916820985948.0,1.2031349931443744e+16,483161178437779.06,474445852252160.2,6074404568797.489,9662138761489.393,105481018979451.7,1885608517458097.2
12.75746621638438,9168798243523236.0,1.2223723070104352e+16,488590272932327.56,479777016016591.2,6315699401858.977,10046112145779.447,109672958426401.25,1960522767658129.0
13.112615540712067,9270460013427044.0,1.241821638165071e+16,494007662497113.8,485096685986521.1,6564142630033.877,10441472118787.262,113989216921377.97,2037657188069842.0
13.474867851526309,9371901318498832.0,1.2614884811446124e+16,499413303851410.06,490404819661927.56,6819903018459.44,10848488150046.5,118432737030984.23,2117064241234464.2
13.844365208556836,9473120881496990.0,1.2813783904524908e+16,504807128933094.75,495701350208403.5,7083152690041.282,11267435102916.982,123006520246230.22,2198797435847214.2
14.221252512727972,9574116982544458.0,1.3014969845233574e+16,510189046092733.25,500986187629698.4,7354067169829.828,11698593307589.295,127713627781365.47,2282911340707886.5
14.605677562982532,9674887480507292.0,1.3218499495898582e+16,515558941232794.4,506259219886392.6,7632825429869.044,12142248634941.217,132557181382087.75,2369461598825236.0
14.997791114242183,9775429833442768.0,1.3424430434632984e+16,520916678897310.3,511520313965888.44,7919609934524.846,12598692571262.191,137540364143305.95,2458504941677934.5
15.397746936527026,9875741118206800.0,1.3632820992384036e+16,526262103316708.8,516769316908407.5,8214606686303.266,13068222293864.959,142666421336671.56,2550099203635260.5
15.805701875257567,9975818049300598.0,1.3843730289315406e+16,531595039412125.4,522006056793186.25,8518005272169.735,13551140747607.367,147938661248135.22,2644303336541591.5
16.221815912762718,1.0075656997029654e+16,1.4057218270608992e+16,536915293763077.25,527230343688681.4,8829998910383.049,14047756722350.326,153360456025807.56,2741177424469068.5
16.64625223101797,1.0175254005040458e+16,1.4273345741764018e+16,542222655541952.2,532441970570222.3,9150784497859.678,14558384931380.537,158935242538450.4,2840782698643669.5
17.079177275638333,1.027460480729399e+16,1.4492174403464876e+16,547516897418501.1,537640714208170.9,9480562658085.258,15083346090830.994,164666523244954.44,2943181552550336.5
17.5207608211511,1.0373704844528592e+16,1.4713766886083466e+16,552797776437123.5,542826336029396.2,9819537789592.967,15622967000133.717,170557867075186.44,3048437557223415.0
17.97117603757412,1.047254928026094e+16,1.4938186783875532e+16,558065034869526.8,547998582954540.44,10167918115029.145,16177580623543.586,176612910322633.53,3156615476729307.0
18.430599558325603,1.057113301636693e+16,1.5165498688926912e+16,563318401045010.8,553157188213337.0,10525915730829.023,16747526172774.38,182835357549297.56,3267781283848727.0
18.899211549492115,1.0669450708281724e+16,1.539576822490032e+16,568557590160450.2,558301872139978.0,10893746657527.1,17333149190791.164,189228982503327.88,3382002175966512.5
19.37719578048196,1.0767496779852676e+16,1.56290620806297e+16,573782305071785.2,563432342950326.9,11271630890727.965,17934801636806.402,195797629049906.8,3499346591177476.5
19.864739696091597,1.0865265437875944e+16,1.586544804360569e+16,578992237068652.1,568548297502580.8,11659792452764.896,18552841972529.062,202545212115940.1,3619884224617249.5
20.36203449001343,1.0962750686343846e+16,1.6104995033391824e+16,584187066633595.4,573649422042779.6,12058459445076.352,19187635249719.58,209475718649127.22,3743686045027670.5
20.869275179813698,1.105994634042617e+16,1.63477731350088e+16,589366464187127.2,578735392936437.9,12467864101329.656,19839553199105.88,216593208592018.88,3870824311566629.5
21.38666068340997,1.1156846040207388e+16,1.6593853632320992e+16,594530090819740.2,583805877387339.5,12888242841324.842,20508974320716.984,223901815871691.22,4001372590872772.5
21.91439389707817,1.1253443264196674e+16,1.6843309041455928e+16,599677599011849.4,588860534144500.6,13319836325711.502,21196283975694.887,231405749405695.06,4135405774395821.5
22.452681775019734,1.1349731342626836e+16,1.7096213144287354e+16,604808633342459.5,593899014198063.2,13762889511552.969,21901874479646.27,239109294124959.22,4273000096003811.5
23.00173541052013,1.144570347055516e+16,1.7352641022006628e+16,609922831187295.4,598920961464812.2,14217651708773.44,22626145197596.83,247016812014352.56,4414233149878620.0
23.561770118730532,1.1541352720776816e+16,1.7612669088809146e+16,615019823406929.2,603926013463904.0,14684376637524.182,23369502640615.348,255132743171617.1,4559183908711762.0
24.133005521105144,1.1636672056559536e+16,1.7876375125716756e+16,620099235025406.0,608913801983249.9,15163322486506.377,24132360564172.824,263461606885421.16,4707932742212459.0
24.715665631527248,1.173165434420706e+16,1.814383831455777e+16,625160685899701.0,613883953736894.8,15654751972287.596,24915140068305.92,272008002733270.94,4860561435940253.0
25.309978944157795,1.1826292365454926e+16,1.84151392721231e+16,630203791380306.0,618836091013681.8,16158932399651.238,25718269699653.824,280776611700055.25,5017153210474801.0
25.91617852304095,1.1920578829703594e+16,1.86903600845157e+16,635228162963080.4,623769832317364.2,16676135723015.98,26542185555438.51,289772197317988.56,5177792740935257.0
26.53450209350177,1.2014506386089166e+16,1.8969584341709052e+16,640233408932502.4,628684792998230.9,17206638608965.205,27387331389458.91,298999606828729.5,5342566176861996.0
27.165192135371807,1.2108067635393028e+16,1.925289717232758e+16,645219134996303.8,633580585876307.2,17750722499924.58,28254158720170.367,308463772368468.94,5511561162473349.0
27.808495978079243,1.2201255141788914e+16,1.954038527866299e+16,650184944911450.2,638456821856043.0,18308673679025.62,29143126940919.74,318169712176747.94,5684866857309902.0
28.464665897640828,1.2294061444425024e+16,1.9832136971936156e+16,655130441101346.4,643313110532374.5,18880783336194.047,30054703432407.504,328122531829805.1,5862573957279042.0
29.133959215593645,1.238647906883853e+16,2.0128242207814732e+16,660055225264082.1,648149060788017.1,19467347635499.887,30989363677446.125,338327425499222.3,6044774716111895.0
29.816638399905518,1.2478500538197674e+16,2.042879262219451e+16,664958898971509.2,652964281381710.6,20068667783806.05,31947591378085.13,348789677236620.2,6231562967245077.0
30.51297116790363,1.257011838436627e+16,2.0733881567252504e+16,669841064258853.9,657758381527224.2,20685050100751.348,32929878575170.27,359514662285187.1,6423034146139089.0
31.223230591261704,1.2661325158785406e+16,2.1043604147776948e+16,674701324204585.1,662530971462742.2,21316806090102.895,33936725770404.902,370507848418757.0,6619285313044965.0
31.947695203086937,1.275211344316538e+16,2.1358057257779236e+16,679539283500163.2,667281663010353.4,21964252512510.83,34968642050978.703,381774797309177.25,6820415176230667.0
32.686649107148675,1.2842475859981442e+16,2.1677339617393252e+16,684354549009354.0,672010070125254.8,22627711459698.656,36026145216828.516,393321165922691.44,7026524115678014.0
33.44038208929165,1.2932405082765716e+16,2.200155181006425e+16,689146730316652.4,676715809434307.2,23307510430119.965,37109761910593.125,405152707945990.44,7237714207260861.0
34.20918973107749,1.302189384618851e+16,2.2330796320030356e+16,693915440264512.2,681398500763555.6,24003982406110.562,38220027750324.586,417275275242661.6,7454089247414681.0
34.993373525699035,1.3110934955920892e+16,2.2665177570099724e+16,698660295478899.5,686057767654314.1,24717465932565.414,39357487465013.49,429694819340641.5,7675754778307373.0
35.793240996213015,1.3199521298271768e+16,2.3004801959724124e+16,703380916882837.9,690693237867438.2,25448305197166.105,40522695032985.03,442417392951349.5,7902818113520597.0
36.60910581613728,1.328764584959151e+16,2.3349777903371588e+16,708076930197518.4,695304543875407.2,26196850112184.77,41716213823224.414,455449151521091.6,8135388364250631.0
37.44128793246003,1.3375301685436162e+16,2.370021586919888e+16,712747966430633.1,699891323341831.0,26963456397887.867,42938616739682.05,468796354815347.75,8373576466037305.0
38.29011369110923,1.3462481989484158e+16,2.405622841802568e+16,717393662351544.6,704453219588071.9,27748485667563.105,44190486368612.54,482465368536529.2,8617495206029211.0
39.15591596493141,1.3549180062201098e+16,2.4417930242612696e+16,722013660953005.9,708989882046624.5,28552305514190.453,45472415128998.47,496462665975767.25,8867259250793010.0
40.03903428423004,1.3635389329245694e+16,2.478543820724441e+16,726607611899120.0,713500966700980.9,29375289598776.688,46785005426107.98,510794829699293.25,9122985174674404.0
40.93981496991464,1.37211033496129e+16,2.5158871387620456e+16,731175171959243.2,717986136511734.9,30217817740374.5,48128869808235.55,525468553269961.6,9384791488718026.0
41.85861126931294,1.3806315823509416e+16,2.553835111105802e+16,735716005427689.0,722445061828692.6,31080276007803.23,49504631126673.945,540490643004440.9,9652798670153254.0
42.7957834946992,1.3891020599959026e+16,2.592400099700865e+16,740229784528977.1,726877420788825.8,31963056813088.6,50912922698964.86,555868019766642.94,9927129192453094.0
43.751699164593184,1.3975211684134016e+16,2.6315946997894948e+16,744716189808537.2,731282899699917.1,32866559006640.188,52354388475476.945,571607720797874.5,1.0207907555972488e+16
44.72673314788505,1.4058883244412452e+16,2.6714317440272356e+16,749174910508766.8,735661193409841.6,33791187974182.65,53829683209357.21,587716901584316.9,1.049526031917339e+16
