t(s),Total solute volume 1,Total retention volume 1,Total 1 volume 1,Total 2 volume 1,Total 3 volume 1,Total 4 volume 1,Total 5 volume 1,Total 6 volume 1
0.1,839524706393360.9,941664656952722.2,50673114377222.37,51466836182138.266,0.0,0.0,0.0,0.0
0.202,1264990885586635.5,1418922844938632.5,76353950538127.2,77549926094423.27,71166413.36525813,119162813.5489495,1406180068.3358545,26486210148.268032
0.30604000000000003,1588985652110724.8,1782379289588138.8,95910044320026.89,97412338173518.19,180571062.35232002,302352711.26306105,3567915246.0776377,67204144848.14257
0.41216080000000005,1863023108135359.8,2089812559138451.8,112450750350165.25,114212130745457.44,320746663.8797639,537066286.1786944,6337657200.852481,119374437318.283
0.5204040160000001,2106379077889755.2,2362842344525780.0,127139543679514.23,129131003045559.84,488379708.98195815,817755320.8107759,9649933851.651506,181763842070.98648
0.6308120963200001,2328655754397364.0,2612238378837642.0,140556005853549.62,142757614938643.62,681692916.6425096,1141443896.7887247,13469627735.961777,253710883541.36267
0.7434283382464002,2535433604052453.5,2844259669476698.5,153036969856895.6,155434075417701.0,899670188.0188351,1506430638.4829428,17776661701.195293,334837387113.0144
0.8582969050113283,2730287379745604.0,3062915661905126.5,164798205232801.72,167379533748010.66,1141738214.013525,1911755588.7394671,22559707735.987568,424929977165.8812
0.9754628431115548,2915666626472332.5,3270953809206177.5,175987564775834.25,178744158627135.53,1407609615.429754,2356937558.859573,27813087554.74832,523881696143.2172
1.094972099973786,3093335123232783.5,3470352443974795.0,186711508932570.44,189636078052572.28,1697196080.737787,2841828684.3373475,33535056276.026955,631659675837.5359
1.2168715419732616,3264612116969746.5,3662591341151149.0,197049666510619.25,200136168103510.1,2010556175.311475,3366527035.3739977,39726771179.30039,748285712883.8821
1.3412089728127268,3430514595469694.5,3848811287275955.0,207063422169786.44,210306774942801.5,2347862046.3815284,3931320866.8521194,46391633824.67229,873823876935.3954
1.4680331522689813,3591846035792987.5,4029913617640370.0,216801273214235.78,220197155515627.84,2709377195.706549,4536651400.37276,53534850860.965385,1008372238056.6266
1.597393815314361,3749254319608455.0,4206625171768609.5,226302325320910.2,229847028033517.4,3095441111.882313,5183087092.242161,61163130374.21946,1152057147154.542
1.729341691620648,3903270956783240.0,4379542284799339.5,235598660047533.25,239288976565979.84,3506458352.8843536,5871305353.040548,69284466168.86531,1305029172706.835
1.863928525453061,4054338488866334.5,4549161521862095.0,244716988887393.06,248550131003698.88,3942890627.0373178,6602079287.832403,77907981295.15929,1467460153450.186
2.001207095962122,4202830147441391.0,4715901725842591.0,253679839833542.94,257653372208566.2,4405250959.897555,7376267929.082708,87043812792.41905,1639541027406.9888
2.1412312378813647,4349064281108493.0,4880120197895882.0,262506428181164.53,266618216455918.72,4894099352.7796335,8194808967.220325,96703025905.8277,1821480216074.194
2.284055862638992,4493315154832867.5,5042124809723042.0,271213308370496.1,275461477492137.4,5410039535.032654,9058713324.359129,106897552484.4329,2013502722197.6123
2.4297369798917723,4635821177221667.0,5202183229583122.0,279814870571639.28,284197770879587.06,5953716529.186592,9969061030.435116,117640132613.85419,2215848000075.3916
2.578331719489608,4776791262182171.0,5360530059124475.0,288323724681551.44,292839904035998.75,6525814850.366151,10926998278.549961,128944294396.03252,2428771117232.728
2.7298983538794,4916409820414978.0,5517372430375455.0,296751001599016.6,301399182209787.0,7127057180.595204,11933735158.476294,140824317533.6052,2652541041804.8755
2.884496320956988,5054840721387469.0,5672894449693499.0,305106592368586.7,309885651374586.4,7758203431.183295,12990544098.411484,153295217356.01965,2887440597966.253
3.0421862473761276,5192230474495711.0,5827260765710765.0,313399340193251.6,318308293249526.44,8420050111.461217,14098758808.01776,166372732346.875,3133766230992.7173
3.2030299723236504,5328710809038255.0,5980619463047588.0,321637196159821.56,326675183463833.94,9113429947.837795,15259773640.608807,180073316617.4166,3391827865484.3394
3.3670905717701234,5464400785966209.0,6133104430918006.0,329827346702661.2,334993621017102.2,9839211709.690098,16475043301.666029,194414136466.89856,3661948840567.9365
3.5344323832055258,5599408541008625.0,6284837318330274.0,337976318817501.9,343270235141128.0,10598300208.567396,17746082847.55746,209413070367.5051,3944465909603.782
3.7051210308696363,5733832734700869.0,6435929160589403.0,346090067584117.5,351511074193500.2,11391636444.627117,19074467930.789562,225088711858.4802,4239729294689.605
3.879223451487029,5867763767238414.0,6586481742062778.0,354174049494037.5,359721680133896.06,12220197879.842297,20461835257.529545,241460374945.17932,4548102788346.589
4.0568079205167695,6001284803040600.0,6736588745547865.0,362233284292490.7,367907151334682.8,13084998821.814346,21909883230.33263,258548101683.6242,4869963896370.847
4.237944078927105,6134472640140354.0,6886336727625544.0,370272407454147.4,376072195878619.44,13987090905.345247,23420372754.561993,276372671696.7358,5205704017069.33
4.422702960505647,6267398452118673.0,7035805951085729.0,378295714965758.8,384221177042951.44,14927563661.512653,24995128191.330067,294955613419.5863,5555728653062.729
4.61115701971576,6400128424645317.0,7185071099168088.0,386307201747295.7,392358152322367.75,15907545166.033054,26636038443.204113,314319216911.3552,5920457652598.249
4.803380160110075,6532724304319632.0,7334201891461716.0,394310594779600.75,400486907075537.9,16928202760.318882,28345058161.63755,334486548103.70087,6300325477917.936
4.9994477633122765,6665243874105890.0,7483263617494765.0,402309381801316.6,408610983671553.56,17990743839.937183,30124209067.262466,355481464380.97455,6695781498712.688
5.199436718578522,6797741366988111.0,7632317601052380.0,410306836276801.94,416733706848914.44,19096416706.22783,31975581375.943115,377328631408.4609,7107290309083.487
5.403425452950093,6930267827358777.0,7781421605893155.0,418306039209302.56,424858205870379.4,20246511477.69485,33901335324.919388,400053541141.7405,7535332066749.298
5.611493962009095,7062871427975683.0,7930630191650149.0,426309898272227.44,432987433953911.7,21442361058.489315,35903702794.54932,423682530964.1738,7980402853503.503
5.823723841249277,7195597748971717.0,8079995027190242.0,434321164649996.0,441124185377303.6,22685342161.880066,37984989022.13031,448242803910.96936,8443015056136.334
6.040198318074262,7328490024316868.0,8229565167486597.0,442342447914302.8,449271110587460.56,23976876387.09621,40147574405.09257,473762449947.8884,8923697767221.494
6.261002284435747,7461589360247278.0,8379387299068094.0,450376229208333.1,457430729591136.5,25318431348.330246,42393916391.53545,500270468280.6577,9422997205316.223
6.486222330124463,7594934929456810.0,8529505958302886.0,458424872968044.0,465605443859797.0,26711521855.03334,44726551456.655815,527796790677.94525,9941477154251.938
6.715946776726952,7728564144254965.0,8679963726109221.0,466490637373839.44,473797546945017.8,28157711142.929626,47148097164.1069,556372305796.5747,10479719421301.791
6.950265712261491,7862512811407596.0,8830801402140269.0,474575683696649.25,482009233970950.2,29658612155.42568,49661254311.745186,586028884502.5618,11038324314104.768
7.18927102650672,7996815270972508.0,8982058161036597.0,482682084677950.9,490242610145607.25,31215888875.30879,52268809161.59051,616799406185.9207,11617911136307.02
7.433056447036854,8131504521106037.0,9133771692962604.0,490811832062999.56,498499698412089.94,32831257706.819134,54973635754.13835,648717786070.8639,12219118701951.334
7.681717575977592,8266612330535170.0,9285978330327870.0,498966843389573.3,506782446343663.4,34506488908.34376,57778698307.44236,681819003526.371,12842605868708.26
7.935351927497144,8402169340153828.0,9438713162329448.0,507148968120244.8,515092732372094.2,36243408076.13154,60687053701.636635,716139131384.9578,13489052090096.479
8.194058966047088,8538205155002876.0,9592010138728474.0,515359993194235.06,523432371426450.6,38043897679.558235,63701854049.77922,751715366280.1267,14159157986889.596
8.45794014536803,8674748427724884.0,9745902164084820.0,523601648064679.1,531803120049282.25,39909898648.58831,66826349356.1068,788586060015.2769,14853645937950.395
8.72709894827539,8811826934441927.0,9900421183513798.0,531875609278558.2,540206681048285.6,41843412014.189156,70063890262.96117,826790751979.0505,15573260690773.486
9.0016409272409,8949467643882678.0,1.0055598260892148e+16,540183504649165.4,548644707734120.6,43846500602.55234,73417930887.821,866370202623.9297,16318769992054.678
9.281673745785717,9087696780481042.0,1.021146365032359e+16,548526917064684.0,557118807788655.56,45921290784.065865,76892031752.02,907366428026.7985,17090965238638.17
9.567307220701432,9226539882078908.0,1.0368046861574278e+16,556907387971097.4,565630546802424.4,48069974278.06642,80489862802.8731,949822735551.8091,17890662149224.973
9.85865336511546,9366021852789416.0,1.0525376720102234e+16,565326420562970.9,574181451515387.8,50294810014.48154,84215206531.07347,993783760637.4507,18718701457255.062
10.155826432417769,9506167011510222.0,1.0683481422230262e+16,573785482711672.0,582773012791021.0,52598126053.54295,88071961185.33522,1039295504731.2251,19575949625403.875
10.458942961066125,9646999136518596.0,1.0842388585948148e+16,582286009657121.5,591406688350229.9,54982321564.8287,92064144086.38828,1086405374396.7058,20463299582160.297
10.768121820287448,9788541506532136.0,1.1002125297773324e+16,590829406486159.6,600083905288529.5,57449868866.95444,96195895042.54027,1135162221619.169,21381671480978.055
11.083484256693197,9930816938572908.0,1.116271815605149e+16,599417050418016.6,608806062397327.8,60003315529.30392,100471479869.12936,1185616385337.2,22332013482518.023
11.405153941827061,1.0073847822937528e+16,1.132419331103565e+16,608050292915081.9,617574532307739.5,62645286537.250565,104895294014.30247,1237819734228.9978,23315302560521.438
11.733257020663602,1.0217656155541344e+16,1.1486576502045438e+16,616730461635165.4,626390663473436.2,65378486522.38526,109471866293.65672,1291825710783.3452,24332545331878.613
12.067922161076874,1.0362263567876146e+16,1.1649893091976072e+16,625458862239733.8,635255782007211.8,68205702059.3257,114205862736.37971,1347689376686.326,25384778911478.344
12.409280604298411,1.0507691354796014e+16,1.181416809939801e+16,634236780071043.5,644171193384365.8,71129804030.74136,119102090545.62885,1405467459556.1294,26473071792447.9
12.75746621638438,1.0653960500322758e+16,1.1979426228462942e+16,643065481709725.9,653138184024717.4,74153750062.2911,124165502175.98906,1465218401059.4924,27598524752413.145
13.112615540712067,1.0801091701643202e+16,1.2145691896809644e+16,651946216423273.6,662158022763738.4,77280587029.22289,129401199530.94383,1527002406444.3032,28762271786432.082
13.474867851526309,1.0949105391453186e+16,1.231298926164494e+16,660880217514675.1,671231962222354.9,80513453636.45015,134814438283.39168,1590881495524.29,29965481067275.38
13.844365208556836,1.1098021758787254e+16,1.2481342244155144e+16,669868703579702.8,680361240083902.2,83855583073.97159,140410632322.34076,1656919555152.6475,31209355933749.55
14.221252512727972,1.1247860768459762e+16,1.2650774552391184e+16,678912879680361.4,689547080285955.4,87310305749.56238,146195358329.0089,1725182393222.7356,32495135907780.29
14.605677562982532,1.1398642179230826e+16,1.2821309702753996e+16,688013938441361.6,698790694133989.4,90881052100.72217,152174360485.6541,1795737794235.1,33824097740994.43
14.997791114242183,1.1550385560799242e+16,1.2992971040197036e+16,697173061075810.5,708093281343129.8,94571355487.92247,158353555320.55484,1868655576471.0962,35197556491560.93
15.397746936527026,1.170311030971595e+16,1.316578175725017e+16,706391418345735.5,717456031013719.1,98384855171.25449,164739036692.66373,1944007650814.829,36616866632072.91
15.805701875257567,1.1856835664301148e+16,1.3339764911960244e+16,715670171462465.0,726880122545797.4,102325299372.63747,171337080919.55115,2021868081265.8745,38083423189274.21
16.221815912762718,1.2011580718641972e+16,1.351494344483491e+16,725010472931528.2,736366726497250.1,106396548425.80501,178154152052.3466,2102313147186.8152,39598662916455.83
16.64625223101797,1.2167364435740112e+16,1.3691340194868142e+16,734413467346216.4,745917005389790.4,110602578016.34558,185196907301.50455,2185421407330.408,41164065499368.75
17.079177275638333,1.2324205659871234e+16,1.3868977914718886e+16,743880292133621.9,755532114466674.6,114947482514.13289,192472202617.2885,2271273765692.7256,42781154796523.42
17.5207608211511,1.2482123128214554e+16,1.4047879285107552e+16,753412078256553.5,765213202405632.1,119435478400.53519,199987098428.994,2359953539239.3027,44451500114763.0
17.97117603757412,1.2641135481803206e+16,1.4228066928489802e+16,763009950874524.4,774961411990189.1,124070907792.86023,207748865547.00787,2451546527552.9985,46176717521025.914
18.430599558325603,1.2801261275842706e+16,1.4409563422060434e+16,772675029966544.4,784777880742229.0,128858242068.53288,215764991231.90417,2546141084452.8633,47958471191225.82
18.899211549492115,1.296251898943959e+16,1.4592391310136194e+16,782408430918348.1,794663741518404.9,133802085591.5759,224043185434.8626,2643828191634.7686,49798474797204.92
19.37719578048196,1.3124927034777904e+16,1.4776573115960754e+16,792211265076272.5,804620123072707.2,138907179543.99948,232591387213.79813,2744701534385.45,51698492932732.234
19.864739696091597,1.3288503765777576e+16,1.4962131352970874e+16,802084640269875.8,814648150587259.6,144178405864.77145,241417771329.64682,2848857579422.5864,53660342579536.16
20.36203449001343,1.3453267486264144e+16,1.5149088535557992e+16,812029661305051.5,824748946173159.9,149620791299.0715,250530755027.36954,2956395654914.4863,55685894614382.26
20.869275179813698,1.3619236457675596e+16,1.533746718935526e+16,822047430429216.6,834923629342944.6,155239511560.58572,259939005006.26465,3067418032733.8013,57777075358216.164
21.38666068340997,1.3786428906327974e+16,1.5527289861075444e+16,832139047769842.6,845173317456018.0,161039895609.62247,269651444584.2635,3182030013000.285,59935868168411.516
21.91439389707817,1.3954863030257544e+16,1.5718579127920322e+16,842305611747464.5,855499126138086.4,167027430049.8682,279677261060.92224,3300340010968.209,62164315075165.22
22.452681775019734,1.4124557005652802e+16,1.591135760657852e+16,852548219463889.4,865902169675491.9,173207763646.6058,290025913283.8391,3422459646314.3457,64464518463094.63
23.00173541052013,1.4295528992885032e+16,1.6105647961821506e+16,862867967066219.2,876383561384899.9,179586711969.23697,300707139423.2667,3548503834882.5967,66838642799089.55
23.561770118730532,1.4467797142142044e+16,1.6301472914705148e+16,873265950086880.0,886944413958680.1,186170262160.92102,311730964959.61633,3678590882940.922,69288916407468.63
24.133005521105144,1.4641379598663634e+16,1.6498855250375332e+16,883743263759638.6,897585839785866.0,192964577838.13556,323107710888.56964,3812842584006.007,71817633293480.47
24.715665631527248,1.4816294507572564e+16,1.6697817825472838e+16,894301003311204.5,908308951248308.9,199976004122.89996,334848002148.3684,3951384318289.766,74427155016167.55
25.309978944157795,1.499256001828875e+16,1.6898383575123164e+16,904940264227650.5,919114860991292.8,207211072810.3314,346962776273.79034,4094345154820.668,77119912611591.36
25.91617852304095,1.5170194288507198e+16,1.7100575519492758e+16,915662142494536.6,930004682167411.6,214676507674.11356,359463292281.0898,4241857956290.5747,79898408567369.03
26.53450209350177,1.5349215487714746e+16,1.730441676988181e+16,926467734809157.1,940979528652131.9,222379229912.30106,372361139788.0012,4394059486675.3765,82765218849431.08
27.165192135371807,1.5529641800211106e+16,1.7509930534318672e+16,937358138762908.5,952040515229034.4,230326363735.7368,385668248372.6052,4551090521674.089,85722994981840.94
27.808495978079243,1.5711491427593478e+16,1.771714012260856e+16,948334452991246.8,963188757742101.2,238525242101.1271,399396897174.48193,4713095962007.144,88774466180438.7
28.464665897640828,1.5894782590654396e+16,1.7926068950782602e+16,959397777288242.5,974425373212077.6,246983412590.57678,413559724741.1776,4880224949609.248,91922441540976.31
29.133959215593645,1.607953353063332e+16,1.8136740544880284e+16,970549212682128.8,985751479913202.8,255708643439.05774,428169739122.4644,5052630986746.303,95169812282297.77
29.816638399905518,1.6265762509753534e+16,1.8349178543988324e+16,981789861467702.0,997168197406108.8,264708929710.9463,443240328214.27344,5230472058078.342,98519554044975.14
30.51297116790363,1.6453487810965318e+16,1.856340670244956e+16,993120827190830.2,1008676646522091.1,273992499626.30963,458785270353.4725,5413910755682.662,101974729245665.42
31.223230591261704,1.6642727736806528e+16,1.877944889113996e+16,1004543214579668.0,1020277949293249.0,283567821037.1566,474818745163.83636,5603114407040.696,105538489487257.02
31.947695203086937,1.6833500607281476e+16,1.8997329097703884e+16,1016058129416622.9,1031973228822448.5,293443608053.29877,491355344652.61584,5798255205982.3,109214078024678.4
32.686649107148675,1.7025824756647598e+16,1.921707142562332e+16,1027666678344428.4,1043763609086339.9,303628827816.8311,508410084556.0826,5999510346567.573,113004832285999.17
33.44038208929165,1.7219718528991258e+16,1.943870009198586e+16,1039369968599058.2,1055650214664112.5,314132707423.5557,525998415931.19904,6207062159873.201,116914186448198.1
34.20918973107749,1.741520027246104e+16,1.9662239423805012e+16,1051169107661698.2,1067634170383993.9,324964740988.8674,544136236989.31006,6421098253634.48,120945674066675.31
34.993373525699035,1.761228833202074e+16,1.988771385273496e+16,1063065202821288.9,1079716600878957.0,336134696854.7785,562839905166.2606,6641811654677.202,125102930757265.66
35.793240996213015,1.7811001040572908e+16,2.011514790801183e+16,1075059360638760.5,1091898630042550.0,347652624933.79156,582126249421.798,6869400954054.935,129389696929170.53
36.60910581613728,1.8011356708297406e+16,2.0344566207444788e+16,1087152686303516.4,1104181380375304.2,359528864184.3494,602012582759.3862,7104070454787.379,133809820566827.03
37.44128793246003,1.8213373610042412e+16,2.057599344627209e+16,1099346282872363.2,1116565972211748.8,371774050211.4513,622516714955.7775,7346030322073.378,138367260058345.83
38.29011369110923,1.841706997060008e+16,2.080945438369056e+16,1111641250380760.8,1129053522817726.2,384399122984.8838,643656965487.6094,7595496735829.324,143066087067695.8
39.15591596493141,1.862246394769543e+16,2.1044973826863028e+16,1124038684816027.9,1141645145347535.2,397415334666.25745,665452176640.3708,7852692045378.991,147910489447363.16
40.03903428423004,1.882957361251452e+16,2.1282576612204976e+16,1136539676942070.2,1154341947650219.2,410834257534.73474,687921726782.7628,8117844926095.08,152904774187719.16
40.93981496991464,1.903841692759945e+16,2.1522287583751308e+16,1149145310965100.0,1167145030914419.8,424667791999.96356,711085543787.2097,8391190537765.681,158053370398824.88
41.85861126931294,1.9249011721938076e+16,2.176413156840702e+16,1161856663030105.2,1180055488141264.2,438928174689.3229,734964118575.0073,8672970684430.632,163360832319870.53
42.7957834946992,1.9461375663082924e+16,2.200813334788761e+16,1174674799537928.5,1193074402435106.5,453627986595.1059,759578518761.9714,8963433975404.39,168831842350906.12
43.751699164593184,1.9675526226138164e+16,2.225431762716563e+16,1187600775273374.5,1206202845102316.5,468780161265.78577,784950402378.0858,9262835987171.691,174471214100960.72
44.72673314788505,1.989148065946581e+16,2.250270899924646e+16,1200635631335252.2,1219441873548864.8,484397993023.97705,811102031632.0334,9571439425812.838,180283895446080.84
