t(s),Total solute volume 1,Total retention volume 1,Total 1 volume 1,Total 2 volume 1,Total 3 volume 1,Total 4 volume 1,Total 5 volume 1,Total 6 volume 1
0.1,1171626138357391.5,1690659390667246.5,218249522949102.88,300783729360751.56,0.0,0.0,0.0,0.0
0.202,1732143813874506.5,2578274386308545.0,322662283146610.25,444681696790101.75,39849912385.732635,106711345746.8716,2544816432538.026,76095214806659.47
0.30604000000000003,2136873528186519.8,3279959572716321.0,398054992177773.4,548585252665098.2,99303905728.64275,265920297995.26083,6341947520450.394,189738627962758.06
0.41216080000000005,2461429143526100.0,3894757612128720.5,458512937757817.2,631906247245156.2,173298258116.00363,464067219985.6067,11067842534428.113,331204075587117.4
0.5204040160000001,2734822605834181.0,4459530505474473.5,509440440746442.94,702092724198195.1,259308570205.33124,694392455361.0717,16561263125654.092,495659770544434.6
0.6308120963200001,2971820047739933.0,4992498328461923.0,553588123857300.75,762935494178005.9,355775774111.6529,952721331734.3844,22722636868221.945,680123528712622.4
0.7434283382464002,3181179835550153.5,5504180135219999.0,592587488159061.2,816683034041492.6,461629440618.8326,1236187658258.207,29483602395815.72,882548357974597.2
0.8582969050113283,3368622183238518.0,6001282312560126.0,627504090270128.4,864803856079939.5,576087642181.4745,1542697796555.036,36794225146374.63,1101439172386426.4
0.9754628431115548,3538138993506659.0,6488388867597261.0,659081538446458.6,908322774778626.4,698556107715.7198,1870660617584.2253,44616556056878.05,1335659788083337.0
1.094972099973786,3692654009199405.5,6968800780783356.0,687864465029544.8,947990383082414.5,828571048266.3392,2218834400954.8496,52920979797464.91,1584323538225309.5
1.2168715419732616,3834388810378757.0,7444994401476262.0,714266704071954.6,984377012379617.4,965763940495.3225,2586232533011.822,61683965526868.68,1846725912645558.5
1.3412089728127268,3965080844850786.5,7918890392099831.0,738611905879462.4,1017928706022107.4,1109838458625.5776,2972061736046.16,70886593588023.92,2122300441564784.5
1.4680331522689813,4086120823009105.5,8392020620717141.0,761159130806253.0,1049002491785027.0,1260554629764.3933,3375679640229.2935,80513543562010.12,2410588397284755.5
1.597393815314361,4198643305431266.0,8865636508452827.0,782119723835692.0,1077889637814738.6,1417717533098.029,3796564523080.1387,90552372535023.6,2711217186779931.0
1.729341691620648,4303588693609589.5,9340782033286262.0,801668862161198.0,1104831567094581.9,1581168989881.1064,4234293057642.8335,100992984382321.72,3023884463991038.5
1.863928525453061,4401746993677388.0,9818344477411848.0,819953707456112.6,1130031092613611.8,1750781296659.141,4688523532002.892,111827229548646.11,3348346149287419.0
2.001207095962122,4493789540902873.5,1.029909065270872e+16,837099315485551.0,1153660561783714.0,1926452398529.4895,5158982924914.918,123048596799740.75,3684407202413411.0
2.1412312378813647,4580292526171814.0,1.0783693359280778e+16,853213018599675.1,1175867896236116.5,2108102104493.2302,5645456771925.589,134651971528779.88,4031914387867965.0
2.284055862638992,4661754791229280.0,1.1272751100743408e+16,868387740616245.0,1196781160274735.0,2295669074228.812,6147781097199.977,146633443330723.0,4390750515120989.5
2.4297369798917723,4738611524077605.0,1.1766803036182166e+16,882704547987757.6,1216512076804068.0,2489108387275.019,6665835904919.397,158990150772946.22,4760829792247597.0
2.578331719489608,4811244961608379.0,1.2266340498945438e+16,896234643478667.6,1235158774944311.8,2688389559566.7812,7199539868600.78,171720154736567.7,5142094034749343.0
2.7298983538794,4879992868032549.0,1.2771815996390578e+16,909040945520157.8,1252807966641962.0,2893494908851.6665,7748845954653.087,184822334039459.38,5534509541292937.0
2.884496320956988,4945155333584514.0,1.3283650331585128e+16,921179354666972.5,1269536692055620.8,3104418195893.2856,8313737784443.514,198296298672769.06,5938064496624895.0
3.0421862473761276,5007000286287824.0,1.3802238304642814e+16,932699780324484.6,1285413734554749.0,3321163486332.909,8894226587252.916,212142317130170.88,6352766796271999.0
3.2030299723236504,5065768004812833.0,1.4327953325845522e+16,943646981399973.4,1300500779275374.8,3543744191031.548,9490348631179.65,226361255136181.28,6778642212398954.0
3.3670905717701234,5121674846788381.0,1.4861151185183726e+16,954061260809373.6,1314853370264624.2,3772182252204.6157,10102163044462.58,240954523685960.72,7215732838338713.0
3.5344323832055258,5174916354268104.0,1.5402173160926224e+16,963979043960903.0,1328521707726283.0,4006507449718.7446,10729749958592.246,255924034759760.5,7664095762802840.0
3.7051210308696363,5225669859837761.0,1.595134860521646e+16,973433364218534.9,1341551317069314.8,4246756807239.9033,11373208918824.348,271272163414904.56,8123801934949895.0
3.879223451487029,5274096688738210.0,1.650899711216058e+16,982454273111595.5,1353983614244126.5,4492974081981.574,12032657518578.992,287001715217459.06,8594935189248637.0
4.0568079205167695,5320344031435140.0,1.7075430349850564e+16,991069189155471.2,1365856386474887.0,4745209324933.583,12708230222597.607,303115898175778.0,9077591405061780.0
4.237944078927105,5364546545282956.0,1.7650953619824412e+16,999303196208182.9,1377204203443950.0,5003518500895.235,13400077350269.328,319618298494114.56,9571877780544036.0
4.422702960505647,5406827731904645.0,1.823586719391575e+16,1007179300047569.2,1388058770897401.0,5267963159558.536,14108364195686.895,336512859587260.75,1.0077912204123666e+16
4.61115701971576,5447301127657868.0,1.883046746811822e+16,1014718650130269.9,1398449236265411.2,5538610150414.268,14833270265080.682,353803863894697.75,1.0595822709754486e+16
4.803380160110075,5486071337370956.0,1.9435047965136624e+16,1021940732155219.9,1408402454046402.5,5815531375476.064,15574988615552.895,371495917110784.8,1.112574700446223e+16
4.9994477633122765,5523234935904587.0,2.0049900211129916e+16,1028863536005770.9,1417943217258905.5,6098803574803.602,16333725281673.775,389593934510531.3,1.1667832058593618e+16
5.199436718578522,5558881257649035.0,2.067531450731855e+16,1035503702816584.4,1427094460123929.8,6388508140607.428,17109698778648.506,408103129101620.8,1.2222233750708132e+16
5.403425452950093,5593093090530354.0,2.1311580613323656e+16,1041876654252512.0,1435877436232520.2,6684730956372.9795,17903139672516.504,427029001375228.25,1.2789116560304186e+16
5.611493962009095,5625947288264529.0,2.1958988356081376e+16,1047996706558773.0,1444311875725650.0,6987562257980.657,18714290209289.883,446377330462608.9,1.3368653302602536e+16
5.823723841249277,5657515312311688.0,2.261782817575953e+16,1053877171515735.2,1452416124426524.5,7297096514244.917,19543403996131.78,466154166532913.56,1.3961024900462266e+16
6.040198318074262,5687863713126758.0,2.328839161816041e+16,1059530446085876.9,1460207267388826.5,7613432324666.797,20390745728670.797,486365824291426.56,1.4566420189214184e+16
6.261002284435747,5717054558786804.0,2.3970971781520204e+16,1064968092258122.9,1467701238935353.2,7936672332504.801,21256590959378.246,507018877457241.9,1.5185035750790794e+16
6.486222330124463,5745145817830548.0,2.4665863724335372e+16,1070200908362869.1,1474912920941844.2,8266923151530.164,22141225902635.273,528120154116079.6,1.5817075774029846e+16
6.715946776726952,5772191702118171.0,2.5373364839801332e+16,1075238992939599.5,1481856230857054.2,8604295305052.93,23044947272705.66,549676732858004.56,1.646275193845075e+16
6.950265712261491,5798242974666247.0,2.609377520158617e+16,1080091802080149.1,1488544200731211.8,8948903175991.875,23968062151332.273,571695939621756.9,1.7122283319159456e+16
7.18927102650672,5823347226702811.0,2.6827397884951972e+16,1084768201038255.1,1494989048342465.5,9300864966920.998,24910887882099.625,594185345177567.0,1.7795896310841846e+16
7.433056447036854,5847549127591347.0,2.7574539266647548e+16,1089276510785202.5,1501202241358212.2,9660302669160.322,25873751989070.34,617152763189007.2,1.8483824569065508e+16
7.681717575977592,5870890650772539.0,2.8335509306502468e+16,1093624550098060.9,1507194555339613.2,10027342040096.71,26856992117514.535,640606248801875.1,1.91863089673328e+16
7.935351927497144,5893411278449607.0,2.9110621813243904e+16,1097819673688290.6,1512976126289105.0,10402112588019.33,27860955994822.074,664554097714541.1,1.9903597568519428e+16
8.194058966047088,5915148187384735.0,2.9900194696708744e+16,1101868806811752.5,1518556498348642.5,10784747563842.096,28886001409917.152,689004845689718.2,2.06359456095001e+16
8.45794014536803,5936136417869142.0,3.070455020833635e+16,1105778476744287.8,1523944667178266.5,11175383959160.639,29932496209698.91,713967268472410.1,2.1383615497903324e+16
8.72709894827539,5956409027668903.0,3.1524015171576388e+16,1109554841458652.0,1529149119477612.8,11574162510155.834,31000818311204.1,739450382082963.0,2.2146876820066892e+16
9.0016409272409,5975997232525730.0,3.235892120364063e+16,1113203715796845.2,1534177869055686.0,11981227706913.45,32091355728342.336,765463443457820.9,2.2926006359369296e+16
9.281673745785717,5994930534599722.0,3.320960492984668e+16,1116730595396344.5,1539038489805164.0,12396727807779.361,33204506612187.293,792015951413699.2,2.372128812421179e+16
9.567307220701432,6013236840076336.0,3.4076408191650908e+16,1120140678597810.8,1543738145894792.0,12820814858412.875,34340679303922.88,819117647913759.5,2.4533013385005856e+16
9.85865336511546,6030942567016100.0,3.4959678249336988e+16,1123438886535258.6,1548283619456962.0,13253644715239.465,35500292399647.76,846778519616723.6,2.5361480719597064e+16
10.155826432417769,6048072744402229.0,3.585976798021387e+16,1126629881586550.5,1552681336015524.8,13695377073037.604,36683774826332.06,875008799692139.8,2.620699606661806e+16
10.458942961066125,6064651103233036.0,3.677703607308065e+16,1129718084342022.0,1556937387871351.2,14146175496424.83,37891565928298.12,903818969886795.6,2.706987278632276e+16
10.768121820287448,6080700160412122.0,3.7711847219632904e+16,1132707689231477.5,1561057555638873.8,14606207455033.701,39124115563671.125,933219762829087.4,2.7950431728502636e+16
11.083484256693197,6096241296107160.0,3.866457230341212e+16,1135602678934499.2,1565047328105907.5,15075644362192.395,40381884210304.82,963222164559526.0,2.884900130713252e+16
11.405153941827061,6111294825175881.0,3.963558858683755e+16,1138406837685655.0,1568911920570367.8,15554661616945.66,41665343080747.05,993837417277030.1,2.976591758143091e+16
11.733257020663602,6125880063194953.0,4.062527989680498e+16,1141123763574258.0,1572656291791415.2,16043438649269.373,42974974245855.97,1025077022291721.9,3.070152434305753e+16
12.067922161076874,6140015387571249.0,4.163403680929028e+16,1143756879928158.5,1576285159678141.5,16542158968349.885,44311270766725.62,1056952743176084.5,3.165617320920163e+16
12.409280604298411,6153718294166366.0,4.266225683335256e+16,1146309445861703.8,1579803015826419.5,17051010213813.174,45674736834617.92,1089476609107263.9,3.263022372134236e+16
12.75746621638438,6167005449821725.0,4.3710344594897224e+16,1148784566060041.8,1583214139003282.5,17570184209802.791,47065887918633.164,1122660918394157.1,3.3624043449489516e+16
13.112615540712067,6179892741132513.0,4.477871202052663e+16,1151185199864731.0,1586522607668396.2,18099877021816.816,48485250920885.97,1156518242183686.8,3.4638008101734588e+16
13.474867851526309,6192395319785787.0,4.58677785217779e+16,1153514169719262.8,1589732311613339.5,18640289016225.848,49933364338978.95,1191061428341365.2,3.5672501638962936e+16
13.844365208556836,6204527644746454.0,4.697797118002296e+16,1155774169027420.8,1592846962791774.0,19191624922402.684,51410778435596.555,1226303605501905.8,3.672791639459728e+16
14.221252512727972,6216303521548605.0,4.8109724932285544e+16,1157967769472447.5,1595870105406423.2,19754093897404.066,52918055415061.72,1262258187286113.0,3.780465319925942e+16
14.605677562982532,6227736138925207.0,4.92634827582093e+16,1160097427840409.2,1598805125312779.2,20327909593152.066,54455769606723.15,1298938876680932.8,3.89031215102502e+16
14.997791114242183,6238838102987756.0,5.0439695868395544e+16,1162165492387136.5,1601655258793820.5,20913290226070.74,56024507655056.13,1336359670579866.8,4.002373954576588e+16
15.397746936527026,6249621469148195.0,5.163882389431263e+16,1164174208784577.2,1604423600755088.2,21510458649139.01,57624868716382.43,1374534864481540.0,4.1166934423777544e+16
15.805701875257567,6260097771957602.0,5.286133507996982e+16,1166125725679207.5,1607113112385008.2,22119642426329.0,59257464662127.03,1413479057344420.0,4.233314230551511e+16
16.221815912762718,6270278053021612.0,5.4107706475532056e+16,1168022099892006.8,1609726628321406.5,22741073909401.08,60922920288547.65,1453207156596185.5,4.352280854350289e+16
16.64625223101797,6280172887137401.0,5.537842413304463e+16,1169865301287282.2,1612266863361483.8,23374990317035.41,62621873532884.1,1493734383296521.5,4.473638783411206e+16
17.079177275638333,6289792406785280.0,5.667398330442867e+16,1171657217334930.0,1614736418749394.2,24021633816282.58,64354975695888.18,1535076277452381.5,4.597434437459442e+16
17.5207608211511,6299146325096265.0,5.79948886418966e+16,1173399657388810.8,1617137788072542.2,24681251606319.48,66122891670707.2,1577248703485105.0,4.723715202457685e+16
17.97117603757412,6308243957406701.0,5.9341654400934936e+16,1175094356701921.5,1619473362795149.0,25354096004502.766,67926300178103.06,1620267855848956.5,4.85252944719996e+16
18.430599558325603,6317094241501758.0,6.071480464599061e+16,1176742980197364.0,1621745437455256.8,26040424534713.008,69765894007999.97,1664150264800953.5,4.9839265403492504e+16
18.899211549492115,6325705756641399.0,6.2114873458994024e+16,1178347126012452.5,1623956214549125.8,26740500017988.594,71642380267363.1,1708912802322008.0,5.117956867918367e+16
19.37719578048196,6334086741454484.0,6.354240515084789e+16,1179908328832029.8,1626107809125056.0,27454590665449.535,73556480634418.72,1754572688189724.2,5.254671851194659e+16
19.864739696091597,6342245110779945.0,6.499795447600389e+16,1181428063025626.5,1628202253106915.8,28182970173515.223,75508931619232.83,1801147496203212.8,5.394123965109539e+16
20.36203449001343,6350188471527667.0,6.648208685024905e+16,1182907745602006.0,1630241499366008.5,28925917821422.76,77500484830676.3,1848655160560558.2,5.536366757054083e+16
20.869275179813698,6357924137625853.0,6.799537857181733e+16,1184348738993555.2,1632227425558417.0,29683718571053.934,79531907249807.8,1897113982389853.2,5.681454866142886e+16
21.38666068340997,6365459144116787.0,6.953841704593972e+16,1185752353682028.2,1634161837743683.2,30456663169083.33,81603981509713.7,1946542636434601.8,5.8294440429283896e+16
21.91439389707817,6372800260457472.0,7.111180101294578e+16,1187119850676179.8,1636046473799429.2,31245048251459.555,83717506181851.88,1996960177894677.5,5.9803911695684584e+16
22.452681775019734,6379954003078263.0,7.271614078002483e+16,1188452443851155.2,1637883006645412.2,32049176450235.87,85873296068949.78,2048386049424067.8,6.134354280450673e+16
23.00173541052013,6386926647247418.0,7.435205845675493e+16,1189751302158653.5,1639673047289465.0,32869356502767.227,88072182504510.98,2100840088286738.2,6.291392583276538e+16
23.561770118730532,6393724238287226.0,7.602018819450362e+16,1191017551716220.0,1641418147706934.0,33705903363292.51,90315013658998.81,2154342533672182.5,6.451566480609871e+16
24.133005521105144,6400352602182790.0,7.772117642980662e+16,1192252277783448.2,1643119803564168.5,34559138316923.02,92602654852755.73,2208914034172170.8,6.614937591893464e+16
24.715665631527248,6406817355622383.0,7.94556821318288e+16,1193456526632311.2,1644779456796166.2,35429389096059.34,94935988875735.84,2264575655420534.5,6.781568775938567e+16
25.309978944157795,6413123915505065.0,8.122437705400469e+16,1194631307318198.8,1646398498047353.8,36316989999260.625,97315916314124.4,2321348887897708.0,6.951524153892307e+16
25.91617852304095,6419277507948769.0,8.302794598996755e+16,1195777593357962.0,1647978268984188.0,37222282012591.38,99743355883925.86,2379255654902094.5,7.124869132687795e+16
26.53450209350177,6425283176829671.0,8.486708703386173e+16,1196896324320612.8,1649520064487430.0,38145612933471.87,102219244771601.4,2438318320690142.0,7.301670428982893e+16
27.165192135371807,6431145791881788.0,8.674251184514318e+16,1197988407336103.8,1651025134731476.2,39087337497061.46,104744538981850.4,2498559698787437.5,7.481996093592768e+16
27.808495978079243,6436870056383126.0,8.865494591796562e+16,1199054718527106.8,1652494687157581.5,40047817505202.38,107320213692622.03,2560003060472849.0,7.665915536422698e+16
28.464665897640828,6442460514453623.0,9.060512885525315e+16,1200096104368451.8,1653929888347409.2,41027421957955.23,109947263617457.64,2622672143438201.5,7.853499551907002e+16
29.133959215593645,6447921557987646.0,9.259381464756226e+16,1201113382978536.5,1655331865802766.8,42026527187756.92,112626703375260.61,2686591160625799.5,8.044820344960456e+16
29.816638399905518,6453257433242990.0,9.462177195682893e+16,1202107345346680.8,1656701709637156.8,43045516996234.84,115359567867597.53,2751784809246303.0,8.239951557449203e+16
30.51297116790363,6458472247106305.0,9.668978440510368e+16,1203078756500278.2,1658040474184261.5,44084782793708.72,118146912663637.72,2818278279979454.0,8.438968295187597e+16
31.223230591261704,6463569973053817.0,9.879865086837483e+16,1204028356615137.2,1659349179528183.2,45144723741416.7,120989814392840.03,2886097266360488.0,8.641947155468318e+16
31.947695203086937,6468554456824875.0,1.0094918577558074e+17,1204956862072350.8,1660628812959990.8,46225746896499.305,123889371145499.72,2955267974354703.5,8.848966255132675e+16
32.686649107148675,6473429421824780.0,1.0314221941290987e+17,1205864966464726.0,1661880330364761.5,47328267359779.69,126846702881272.56,3025817132123172.0,9.060105259189144e+16
33.44038208929165,6478198474272309.0,1.0537859823349504e+17,1206753341555659.5,1663104657543034.8,48452708426374.92,129862951845792.69,3097771999982391.0,9.275445409986966e+16
34.20918973107749,6482865108106041.0,1.0765918517259754e+17,1207622638193096.0,1664302691470420.2,49599501739178.04,132939282995510.61,3171160380560824.0,9.495069556953253e+16
34.993373525699035,6487432709663336.0,1.0998485996838848e+17,1208473487181105.0,1665475301498771.0,50769087445249.71,136076884430870.81,3246010629155342.5,9.719062186901357e+16
35.793240996213015,6491904562144245.0,1.1235651948842784e+17,1209306500111434.2,1666623330502193.5,51961914355157.586,139276967837960.11,3322351664290715.0,9.947509454918626e+16
36.60910581613728,6496283849872278.0,1.1477507806194672e+17,1210122270157187.0,1667747595970875.2,53178440105305.805,142540768938759.8,3400212978485159.5,1.0180499215841723e+17
37.44128793246003,6500573662363284.0,1.172414678180328e+17,1210921372830780.0,1668848891055665.2,54419131323293.79,145869547950128.0,3479624649225357.0,1.0418121056328427e+17
38.29011369110923,6504776998212498.0,1.1975663902982816e+17,1211704366708011.2,1669927985565968.8,55684463796347.375,149264590051655.06,3560617350154080.0,1.0660466327533968e+17
39.15591596493141,6508896768809910.0,1.2232156046484434e+17,1212471794120159.2,1670985626923571.2,56974922642864.27,152727205862528.8,3643222362473851.5,1.090762817840115e+17
40.03903428423004,6512935801892840.0,1.2493721974149675e+17,1213224181815750.5,1672022541074660.0,58291002487115.88,156258731927546.94,3727471586570038.5,1.1159701589572885e+17
40.93981496991464,6516896844944526.0,1.2760462369196915e+17,1213962041593657.2,1673039433362335.8,59633207637151.17,159860531212430.06,3813397553856856.5,1.1416783407936227e+17
41.85861126931294,6520782568446851.0,1.3032479873151547e+17,1214685870908998.8,1674036989361640.2,61002052265944.65,163533993608572.53,3901033438849892.0,1.1678972381807373e+17
42.7957834946992,6524595568994639.0,1.3309879123430397e+17,1215396153453273.2,1675015875679097.0,62398060595834.63,167280536447385.53,3990413071468626.0,1.194636919676652e+17
