t(s),Total solute volume 1,Total retention volume 1,Total 1 volume 1,Total 2 volume 1,Total 3 volume 1,Total 4 volume 1,Total 5 volume 1,Total 6 volume 1
0.1,1389665646485961.5,7115728075414663.0,1732020487244934.5,3994041941683769.0,0.0,0.0,0.0,0.004426733051481951
0.202,2039065390491773.8,1.0514991499275016e+16,2541405886480684.5,5860501269232212.0,24341664320.804836,143150494318.44846,7305088106267.487,66546372805442.09
0.30604000000000003,2534204547717734.5,1.3178143233911508e+16,3158526767592919.0,7283588628051279.0,61110830907.14303,359524046000.4095,18826743779098.246,182575911893567.06
0.41216080000000005,2946369130764725.0,1.54594247795606e+16,3672231546279396.0,8468196758505989.0,107644466250.94092,633385236442.6011,33547266553193.812,338339047754598.44
0.5204040160000001,3305321642708753.5,1.7505301156170606e+16,4119614999624727.0,9499867053543318.0,162632168848.00583,957013105591.987,51002893979316.48,528374921040039.0
0.6308120963200001,3626445053772264.0,1.9390806535787964e+16,4519849830000825.0,1.042281207766867e+16,225292519973.19455,1325804988174.4275,70926226302005.11,749222250536051.5
0.7434283382464002,3918860979677588.0,2.1160054862245732e+16,4884304842677278.0,1.126324845167119e+16,295109715065.78033,1736723086259.946,93142930067574.66,998465825350766.9
0.8582969050113283,4188499221975860.5,2.2841499349267148e+16,5220370696896364.0,1.20382191279106e+16,371723098526.5933,2187643461835.8389,117531725494529.61,1274319210429421.0
0.9754628431115548,4439472081044924.5,2.4454742563485156e+16,5533172793442359.0,1.275954334128144e+16,454871852537.86847,2677030187484.731,144005139166109.28,1575417306510287.2
1.094972099973786,4674770195980370.0,2.6013972035728292e+16,5826438540875413.0,1.3435816538834658e+16,544363811598.5,3203751658152.1113,172498852138734.88,1900699792429354.8
1.2168715419732616,4896648633109673.0,2.7529858119108028e+16,6102978560325425.0,1.4073520044757984e+16,640056335183.435,3766967936749.196,202965221180017.62,2249338635462999.5
1.3412089728127268,5106856746902823.0,2.9010677763909612e+16,6364973174625417.0,1.4677681707999856e+16,741843822444.8878,4366057221931.9478,235369063345956.9,2620689169991179.0
1.4680331522689813,5306782900067425.0,3.046301739992551e+16,6614152781444756.0,1.5252291844905992e+16,849649168940.254,5000565532942.719,269684773269595.9,3014254885535873.5
1.597393815314361,5497549813699066.0,3.189223248376452e+16,6851916693764568.0,1.5800577286749272e+16,963417705179.0483,5670171010988.557,305894276986009.2,3429660823849444.5
1.729341691620648,5680079790146857.0,3.330275915284883e+16,7079414430952779.0,1.6325188837883214e+16,1083112773169.09,6374657867528.958,343985538005063.5,3866632785220213.0
1.863928525453061,5855140745125253.0,3.4698332182645996e+16,7297603091279067.0,1.6828333577415986e+16,1208712425443.472,7113896943470.228,383951442617594.44,4324980716839165.5
2.001207095962122,6023379560224919.0,3.608214146575251e+16,7507288921101140.0,1.7311870718227168e+16,1340206916466.4338,7887830935218.895,425788953626417.56,4804585274721183.0
2.1412312378813647,6185346790792753.0,3.7456946924928696e+16,7709158109741638.0,1.7777382620305856e+16,1477596766629.8938,8696462993168.06,469498458478048.25,5305386885850587.0
2.284055862638992,6341515319082892.0,3.882516458403862e+16,7903800038002062.0,1.822622840209028e+16,1620891247835.2483,9539847803239.023,515083260675223.7,5827376825137083.0
2.4297369798917723,6492294667435513.0,4.018893216671628e+16,8091725117515296.0,1.865958507822014e+16,1770107184354.2363,10418084525333.98,562549178284368.8,6370589933551312.0
2.578331719489608,6638042138301612.0,4.155015987016381e+16,8273378675210577.0,1.9078479577272676e+16,1925267992734.511,11331311139661.479,611904223469705.5,6935098676776837.0
2.7298983538794,6779071594313627.0,4.291057021118781e+16,8449151896429440.0,1.948381397671429e+16,2086402905301.3538,12279699874322.33,663158344040862.1,7521008296909971.0
2.884496320956988,6915660457025692.0,4.4271729688125144e+16,8619390547865406.0,1.9876385618099424e+16,2253546336459.6235,13263453473853.926,716323213017495.5,8128452852306803.0
3.0421862473761276,7048055343450572.0,4.563507422522429e+16,8784402002709752.0,2.0256903307137076e+16,2426737361471.593,14282802130115.664,771412055824060.1,8757591976611233.0
3.2030299723236504,7176476648688987.0,4.700192983205342e+16,8944460952250722.0,2.0626000484703476e+16,2606019284941.9795,15338000941409.008,828439507343010.8,9408608218840904.0
3.3670905717701234,7301122304471907.0,4.837352953692579e+16,9099814090364670.0,2.0984246029331504e+16,2791439281735.5054,16429327798089.61,887421492957896.9,1.0081704852719986e+16
3.5344323832055258,7422170886969703.0,4.9751027387699384e+16,9250683986960446.0,2.1332153189416736e+16,2983048097076.4395,17557081616635.06,948375129109175.5,1.0777104065529606e+16
3.7051210308696363,7539784206029603.0,5.1135510121610024e+16,9397272315097490.0,2.1670187024987824e+16,3180899795551.664,18721580861638.41,1011318639908635.6,1.149504545492926e+16
3.879223451487029,7654109477591602.0,5.252800696556126e+16,9539762558594930.0,2.199877065148266e+16,3385051550954.5005,19923162308248.22,1076271287116719.8,1.2235784776916154e+16
4.0568079205167695,7765281158342203.0,5.3929497924424504e+16,9678322298667730.0,2.23182905127568e+16,3595563470576.1343,21162180007409.883,1143253311354819.5,1.2999592899824976e+16
4.237944078927105,7873422504569550.0,5.534092083707002e+16,9813105156819126.0,2.262910086141424e+16,3812498448823.7505,22439004423755.14,1212285882854610.0,1.3786754928539912e+16
4.422702960505647,7978646904186562.0,5.676317742090992e+16,9944252455018876.0,2.2931527587196804e+16,4035922046025.121,23754021721762.812,1283391060376127.8,1.4597569470363786e+16
4.61115701971576,8081059020921711.0,5.819713848065323e+16,1.0071894641775164e+16,2.322587150552108e+16,4265902389043.5005,25107633180311.652,1356591757181937.2,1.5432348019683968e+16
4.803380160110075,8180755781970332.0,5.9643648422175704e+16,1.0196152523102204e+16,2.3512411196103188e+16,4502510090927.827,26500254719288.332,1431911713155254.5,1.6291414443034536e+16
4.9994477633122765,8277827234393148.0,6.1103529185317304e+16,1.0317138329899734e+16,2.3791405464347212e+16,4745818187300.854,27932316524724.215,1509375472308712.2,1.717510454965651e+16
5.199436718578522,8372357290831337.0,6.2577583688157544e+16,1.043495664738134e+16,2.4063095484617124e+16,4995902087569.616,29404262761183.58,1589008365057368.5,1.808376573542158e+16
5.403425452950093,8464424381376232.0,6.406659885850828e+16,1.0549705227537806e+16,2.432770667378579e+16,5252839539350.713,30916551361939.758,1670836494731655.0,1.9017756690175516e+16
5.611493962009095,8554102025458905.0,6.55713483149755e+16,1.0661475701916496e+16,2.4585450334912052e+16,5516710604751.959,32469653888942.703,1754886727888787.5,1.997744716030555e+16
5.823723841249277,8641459335242065.0,6.709259474920939e+16,1.0770354209028168e+16,2.4836525104047444e+16,5787597647355.522,34064055455778.88,1841186688048479.5,2.096321775974009e+16
6.040198318074262,8726561460073387.0,6.8631092052306296e+16,1.0876421948295052e+16,2.508111822764675e+16,6065585328913.452,35700254707802.69,1929764752534025.8,2.197545982372035e+16
6.261002284435747,8809469979999177.0,7.0187587221301576e+16,1.0979755670510072e+16,2.531940669357213e+16,6350760614903.328,37378763854422.27,2020650052145135.5,2.3014575300605772e+16
6.486222330124463,8890243255063836.0,7.176282207596172e+16,1.108042811318911e+16,2.555155823502023e+16,6643212788203.912,39100108749183.58,2113872473426246.5,2.408097667772492e+16
6.715946776726952,8968936736075733.0,7.335753481138243e+16,1.1178508387896726e+16,2.577773222369973e+16,6943033470243.722,40864829013845.93,2209462663324991.5,2.517508693790122e+16
6.950265712261491,9045603241659092.0,7.49724614080267e+16,1.1274062325552126e+16,2.599808046611068e+16,7250316649052.159,42673478203091.54,2307452036061040.0,2.629733954379164e+16
7.18927102650672,9120293205698134.0,7.660833691762408e+16,1.1367152784833266e+16,2.6212747914728004e+16,7565158713706.875,44526624006889.875,2407872782046874.5,2.744817844759718e+16
7.433056447036854,9193054898686304.0,7.826589664068688e+16,1.1457839928057396e+16,2.642187330418504e+16,7887658494723.644,46424848487848.7,2510757878719704.5,2.862805812405583e+16
7.681717575977592,9263934625997776.0,7.994587720916467e+16,1.1546181468298418e+16,2.662558972112929e+16,8217917309979.602,48368748351143.1,2616141103158408.5,2.983744362491966e+16
7.935351927497144,9332976905682778.0,8.164901758588982e+16,1.163223289098364e+16,2.682402511522708e+16,8556039015797.124,50358935244831.4,2724057046371802.0,3.107681065336387e+16
8.194058966047088,9400224628038342.0,8.337605999088998e+16,1.1716047652776046e+16,2.701730275778852e+16,8902130062846.59,52396036088546.84,2834541129154612.5,3.2346645656981052e+16
8.45794014536803,9465719198910308.0,8.512775076331366e+16,1.1797677360180138e+16,2.720554165363491e+16,9256299556551.791,54480693428706.29,2947629619416203.5,3.3647445938186828e+16
8.72709894827539,9529500668432398.0,8.690484116658347e+16,1.1877171929996922e+16,2.738885691110988e+16,9618659321703.672,56613565818504.07,3063359650894247.5,3.49797197810098e+16
9.0016409272409,9591607846694706.0,8.870808814343304e+16,1.1954579733488326e+16,2.756736007452463e+16,9989323971006.162,58795328221066.82,3181769243171539.0,3.634398659336179e+16
9.281673745785717,9652078407652730.0,9.053825502666326e+16,1.2029947725885092e+16,2.7741159422804788e+16,10368410977293.42,61026672434237.18,3302897322919127.0,3.774077706398999e+16
9.567307220701432,9710948982432350.0,9.239611221074968e+16,1.210332156267839e+16,2.7910360237660452e+16,10756040749171.14,63308307535531.53,3426783746293456.5,3.917063333340027e+16
9.85865336511546,9768255243053572.0,9.428243778883376e+16,1.217474570396949e+16,2.8075065044218252e+16,11152336709846.445,65640960345886.766,3553469322418561.0,4.063410917811813e+16
10.155826432417769,9824031977480690.0,9.619801815910824e+16,1.2244263508009238e+16,2.8235373826724744e+16,11557425378920.584,68025375910869.76,3682995837887754.0,4.213177020771606e+16
10.458942961066125,9878313156808166.0,9.814364860416163e+16,1.2311917314935862e+16,2.8391384221647028e+16,11971436456928.418,70462317998078.12,3815406082221940.0,4.366419407409364e+16
10.768121820287448,9931131995306234.0,1.0012013384645758e+17,1.2377748521613266e+16,2.8543191690251228e+16,12394502912416.521,72952569609510.45,3950743874224112.0,4.52319706925408e+16
11.083484256693197,9982521003976050.0,1.0212828858279091e+17,1.2441797648379944e+16,2.869088967252656e+16,12826761071360.404,75496933507729.7,4089054089171852.0,4.683570247415746e+16
11.405153941827061,1.0032512038199896e+16,1.0416893800026736e+17,1.250410439843834e+16,2.8834569724138284e+16,13268350708727.979,78096232754689.67,4230382686791823.0,4.8476004569235576e+16
11.733257020663602,1.0081136340016378e+16,1.0624291827610043e+17,1.2564707710544852e+16,2.8974321637931948e+16,13719415142004.932,80751311262137.55,4374776739962107.5,5.0153505121240984e+16
12.067922161076874,1.0128424575501058e+16,1.0835107706329755e+17,1.2623645805599592e+16,2.9110233551370324e+16,14180101326504.19,83463034352548.02,4522284464090320.0,5.1868845531057256e+16
12.409280604298411,1.017440686769048e+16,1.1049427396411043e+17,1.2680956227681474e+16,2.9242392041160964e+16,14650559952289.826,86232289329592.31,4672955247117317.0,5.36226807311782e+16
12.75746621638438,1.021911282544953e+16,1.1267338099295493e+17,1.2736675880027406e+16,2.9370882206225412e+16,15130945542553.486,89059986057187.5,4826839680098328.0,5.54156794695546e+16
13.112615540712067,1.0262571568648898e+16,1.1488928303035698e+17,1.2790841056412416e+16,2.949578774006222e+16,15621416553289.07,91947057546221.66,4983989588315413.0,5.724852460281848e+16
13.474867851526309,1.0304811749989934e+16,1.1714287826934346e+17,1.2843487468351248e+16,2.9617190993474724e+16,16122135474120.63,94894460548098.64,5144458062877142.0,5.912191339862819e+16
13.844365208556836,1.0345861573787638e+16,1.1943507865558754e+17,1.289465026850882e+16,2.9735173028556148e+16,16633268930146.252,97903176154298.16,5308299492763941.0,6.103655784688661e+16
14.221252512727972,1.0385748811999428e+16,1.2176681032250675e+17,1.2944364070677728e+16,2.9849813664758428e+16,17154987784670.89,100974210401201.98,5475569597279499.0,6.299318497960585e+16
14.605677562982532,1.0424500817765884e+16,1.2413901402242434e+17,1.2992662966654992e+16,2.9961191517810372e+16,17687467242710.25,104108594879491.17,5646325458871446.0,6.499253719919945e+16
14.997791114242183,1.0462144536710686e+16,1.2655264555482202e+17,1.3039580540325768e+16,3.0069384032195456e+16,18230886955157.395,107307387347482.02,5820625556286851.0,6.703537261500061e+16
15.397746936527026,1.049870651622973e+16,1.2900867619263762e+17,1.3085149879241036e+16,3.0174467507850172e+16,18785431123515.566,110571672347825.02,5998529798031049.0,6.91224653878142e+16
15.805701875257567,1.053421291298343e+16,1.3150809310749669e+17,1.312940358395558e+16,3.0276517121698176e+16,19351288605109.82,113902561827058.61,6180099556100907.0,7.125460608232637e+16
16.221815912762718,1.0568689498791646e+16,1.3405189979470842e+17,1.31723737753754e+16,3.037560694459351e+16,19928653018702.293,117301195757572.39,6365397699966794.0,7.343260202720472e+16
16.64625223101797,1.0602161665117506e+16,1.366411164988022e+17,1.3214092100345938e+16,3.0471809954207604e+16,20517722850446.887,120768742761601.12,6554488630780449.0,7.565727768273864e+16
17.079177275638333,1.0634654426313216e+16,1.3927678064033592e+17,1.3254589735697746e+16,3.0565198044358784e+16,21118701560130.957,124306400736940.42,6747438315789164.0,7.792947501587992e+16
17.5207608211511,1.0666192421789976e+16,1.4195994724465888e+17,1.3293897390950914e+16,3.0655842031249116e+16,21731797687662.75,127915397484142.4,6944314322939898.0,8.025005388255717e+16
17.97117603757412,1.0696799917262568e+16,1.4469168937327987e+17,1.3332045309866264e+16,3.0743811657041464e+16,22357224959776.105,131596991335021.62,7145185855660185.0,8.261989241715461e+16
18.430599558325603,1.072650080520882e+16,1.474730985584484e+17,1.3369063271018066e+16,3.0829175591180724e+16,22995202396934.97,135352471782366.69,7350123787806182.0,8.503988742905525e+16
18.899211549492115,1.075531860467444e+16,1.5030528524152742e+17,1.3404980587550816e+16,3.091200142983282e+16,23645954420432.223,139183160110828.45,7559200698771288.0,8.751095480616683e+16
19.37719578048196,1.0783276460544064e+16,1.5318937921570752e+17,1.3439826106270624e+16,3.0992355693789764e+16,24309710959689.844,143090410029019.38,7772490908752399.0,9.003402992536184e+16
19.864739696091597,1.0810397142390262e+16,1.5612653007358003e+17,1.3473628206210722e+16,3.107030382516197e+16,24986707559777.426,147075608302929.6,7990070514174033.0,9.261006806978026e+16
20.36203449001343,1.083670304300372e+16,1.5911790766006576e+17,1.3506414796799646e+16,3.1145910183153876e+16,25677185489178.79,151140175390828.16,8212017423273893.0,9.524004485295466e+16
20.869275179813698,1.0862216176699518e+16,1.6216470253117104e+17,1.3538213315750116e+16,3.121923803919605e+16,26381391847846.434,155285566079886.7,8438411391856723.0,9.792495664974098e+16
21.38666068340997,1.0886958177486054e+16,1.652681264190178e+17,1.3569050726776922e+16,3.1290349571682476e+16,27099579675594.54,159513270124821.06,8669334059226407.0,1.0066582103404539e+17
21.91439389707817,1.0910950297175658e+16,1.6842941270357914e+17,1.3598953517242092e+16,3.1359305860540644e+16,27832008060890.992,163824812888906.34,8904868984309445.0,1.0346367722336152e+17
22.452681775019734,1.0934213403508736e+16,1.7164981689153232e+17,1.362794769581685e+16,3.1426166881839612e+16,28578942250118.926,168221755987778.22,9145101681985776.0,1.0631958653014346e+17
23.00173541052013,1.0956767978355356e+16,1.7493061710261792e+17,1.3656058790240258e+16,3.1490991502621932e+16,29340653757386.68,172705697936487.2,9390119659645786.0,1.0923463282006067e+17
23.561770118730532,1.0978634116052288e+16,1.7827311456388438e+17,1.3683311845246438e+16,3.1553837476123204e+16,30117420474974.457,177278274800319.62,9640012453995166.0,1.1220992297719208e+17
24.133005521105144,1.0999831521925902e+16,1.8167863411218243e+17,1.3709731420723658e+16,3.1614761437527556e+16,30909526784512.46,181941160849948.2,9894871668131518.0,1.1524658737623922e+17
24.715665631527248,1.1020379511045758e+16,1.8514852470525034e+17,1.373534159016083e+16,3.1673818900384564e+16,31717263668993.715,186696069221514.62,1.0154791008919424e+16,1.1834578036184933e+17
25.309978944157795,1.1040297007247174e+16,1.88684159941734e+17,1.3760165939429268e+16,3.173106425380044e+16,32540928825730.688,191544752582285.03,1.0419866324692156e+16,1.2150868073515701e+17
25.91617852304095,1.105960254245551e+16,1.9228693859045472e+17,1.378422756594054e+16,3.1786550760495616e+16,33380826780369.99,196489003802558.06,1.0690195643311308e+16,1.2473649224766885e+17
26.53450209350177,1.1078314256339418e+16,1.9595828512924637e+17,1.3807549078214208e+16,3.184033055580798e+16,34237269002086.05,201530656634524.25,1.0965879210616162e+16,1.2803044410263194e+17
27.165192135371807,1.109644989631493e+16,1.996996502936569e+17,1.383015259588299e+16,3.1892454647704668e+16,35110574020077.273,206671586398814.78,1.124701952929735e+16,1.31391791464038e+17
27.808495978079243,1.1114026817917596e+16,2.0351251163581014e+17,1.3852059750156552e+16,3.1942972917851464e+16,36001067541493.35,211913710679488.38,1.1533721398230026e+16,1.3482181597343363e+17
28.464665897640828,1.1131061985555328e+16,2.0739837409371296e+17,1.3873291684759778e+16,3.199193412377634e+16,36909082570923.85,217258990028230.97,1.1826091952303474e+16,1.3832182627471891e+17
29.133959215593645,1.1147571973649998e+16,2.1135877057128032e+17,1.389386905735563e+16,3.2039385902150364e+16,37834959531582.74,222709428678545.94,1.2124240702784776e+16,1.4189315854712946e+17
29.816638399905518,1.116357296817224e+16,2.1539526252935517e+17,1.391381204145811e+16,3.2085374773198932e+16,38779046388322.17,228267075270738.53,1.2428279578255518e+16,1.455371770466113e+17
30.51297116790363,1.1179080768570302e+16,2.1950944058798122e+17,1.3933140328836112e+16,3.2129946146244864e+16,39741698772613.34,233934023588489.3,1.273832296616048e+16,1.4925527465580832e+17
31.223230591261704,1.119411079008986e+16,2.237029251401923e+17,1.3951873132404948e+16,3.217314432637625e+16,40723280109629.56,239712413307822.25,1.3054487755008476e+16,1.530488734428952e+17
31.947695203086937,1.1208678066479554e+16,2.2797736697756957e+17,1.3970029189598248e+16,3.221501252222166e+16,41724161747569.375,245604430759273.4,1.337689337726543e+16,1.5691942522949782e+17
32.686649107148675,1.1222797253073538e+16,2.323344479278213e+17,1.398762676620994e+16,3.225559285480994e+16,42744723089354.76,251612309704060.1,1.3705661852980196e+16,1.6086841216795414e+17
33.44038208929165,1.1236482630240266e+16,2.3677588150463107e+17,1.4004683660692786e+16,3.229492636748209e+16,43785351726840.08,257738332125046.8,1.4040917834183368e+16,1.6489734732818067e+17
34.20918973107749,1.1249748107184614e+16,2.413034135700216e+17,1.402121720889696e+16,3.2333053036818692e+16,44846443577665.87,263984829033296.84,1.4382788650099836e+16,1.690077752944106e+17
34.993373525699035,1.1262607226088308e+16,2.4591882300947818e+17,1.4037244289230674e+16,3.2370011784539796e+16,45928403024888.75,270354181290985.3,1.4731404353214962e+16,1.7320127277208858e+17
35.793240996213015,1.1275073166572324e+16,2.5062392242007706e+17,1.4052781328221832e+16,3.240584049033026e+16,47031643059517.695,276848820451444.1,1.508689776623437e+16,1.7747944920520717e+17
36.60910581613728,1.1287158750463496e+16,2.5542055881185885e+17,1.406784430645893e+16,3.2440576005539104e+16,48156585426085.28,283471229617086.5,1.544940452997703e+16,1.8184394740437728e+17
37.44128793246003,1.1298876446846378e+16,2.603106143226967e+17,1.4082448764887446e+16,3.247425416769905e+16,49303660771377.71,290223944315954.8,1.5819063152240354e+16,1.8629644418593597e+17
