t(s),Total solute volume 1,Total retention volume 1,Total 1 volume 1,Total 2 volume 1,Total 3 volume 1,Total 4 volume 1,Total 5 volume 1,Total 6 volume 1
0.1,858476762157242.6,970941579421749.6,55300119698977.766,57164697565528.79,0.0,0.0,0.0,0.0
0.202,1278172799612722.8,1475598390743405.5,82335494714245.34,85111636201144.69,69222250857.23778,119100308182.05765,1463766248859.2585,28326371407393.215
0.30604000000000003,1586531774500924.2,1869537407188185.5,102198919109228.14,105644804309414.77,173549748549.7585,298611350514.5629,3670006450821.5933,71019741718731.94
0.41216080000000005,1838177503801755.5,2210916511683155.8,118409071315923.61,122401521254957.03,304618682435.3582,524148436789.44525,6441932151622.7295,124657716039670.92
0.5204040160000001,2053804688409130.0,2521368929478591.5,132299032779162.28,136759816578447.05,458335093830.7416,788672339567.9988,9693033312376.305,187565350966077.97
0.6308120963200001,2243850790102813.0,2811619607037796.5,144541148882067.0,149414705425869.34,632204553029.4899,1087895465548.5876,13370617936569.404,258722244671898.9
0.7434283382464002,2414456864637832.5,3087880403150267.5,155531005310907.84,160775111618031.8,824531978067.0756,1418905327306.8875,17438894267690.39,337435090010429.75
0.8582969050113283,2569604994055655.0,3354123419261856.0,165525114092172.66,171106196108659.16,1034088849703.3954,1779592082296.4316,21871935174873.2,423201498898496.56
0.9754628431115548,2712056768700571.0,3613070506099688.5,174701367375744.06,180591849114286.34,1259947130932.5032,2168362849664.04,26650167086776.773,515642043841715.6
1.094972099973786,2843824158620966.0,3866685440738136.5,183189369350775.84,189366044744582.84,1501386017443.2769,2583981313956.6265,31758398717498.28,614462101972908.0
1.2168715419732616,2966429385988697.0,4116443211227005.5,191087176332978.62,197530145522447.97,1757835053904.38,3025469885725.7866,37184618623027.12,719428579820225.9
1.3412089728127268,3081059017020327.5,4363488313318368.5,198471222836110.78,205163163137165.38,2028837225609.3428,3492046223409.9287,42919215060489.62,830354811815250.1
1.4680331522689813,3188660604889803.5,4608733177456603.0,205402546975946.8,212328193753021.9,2314023839518.5776,3983080034858.0356,48954445085424.05,947090282878028.1
1.597393815314361,3290006101646452.0,4852922198654777.0,211930875247901.0,219076640515145.9,2613096765512.8237,4498062539456.491,55284059248478.15,1069513362691832.1
1.729341691620648,3385735040880404.0,5096674968898410.0,218097404205775.78,225451089019325.38,2925815485273.9644,5036584200003.138,61903027927627.77,1197526007180001.0
1.863928525453061,3476384874522959.5,5340516392284563.0,223936754654086.16,231487327394678.7,3251987400593.6885,5598318061220.271,68807336566197.016,1331049793684831.5
2.001207095962122,3562412857028481.0,5584898227487151.0,229478381351768.62,237215803538958.03,3591460421543.6626,6183007009952.393,75993829108544.36,1470022889027889.5
2.1412312378813647,3644212196217992.5,5830214854954202.0,234747613393969.44,242662700579334.56,3944117192268.247,6790453852352.429,83460086056690.2,1614397687661606.0
2.284055862638992,3722124211831573.0,6076815050004045.0,239766437424160.53,247850746492420.62,4309870520331.243,7420513461443.333,91204327972012.25,1764138942302108.5
2.4297369798917723,3796447649684690.0,6325010929674806.0,244554097620048.97,252799834320162.16,4688659708436.052,8073086477024.481,99225338055439.45,1919222263809010.5
2.578331719489608,3867445927936654.0,6575084858971229.0,249127562473264.84,257527504688137.56,5080447574694.154,8748114190154.94,107522399286284.12,2079632902822045.8
2.7298983538794,3935352852800626.0,6827294857153823.0,253501892975737.38,262049326406233.47,5485218006537.67,9445574345791.719,116095242845420.98,2245364749773486.2
2.884496320956988,4000377183098254.5,7081878883704860.0,257690536652597.03,266379200415584.6,5902973934023.665,10165477667088.707,124944005407910.1,2416419506529403.0
3.0421862473761276,4062706316440446.0,7339058275409989.0,261705565013267.25,270529605245900.8,6333735636900.279,10907864954090.643,134069193495199.72,2592805994624190.5
3.2030299723236504,4122509296379834.5,7599040531823362.0,265557867261875.5,274511797257300.03,6777539320322.915,11672804644851.75,143471653510810.38,2774539573448362.5
3.3670905717701234,4179939288380853.0,7862021594612447.0,269257309790731.8,278335975511495.78,7234435909061.399,12460390752726.19,153152546399472.88,2961641647868106.5
3.5344323832055258,4235135635742258.5,8128187729546834.0,272812868615781.8,282011418672634.0,7704490021096.731,13270741112596.982,163113326103449.06,3154139249279017.5
3.7051210308696363,4288225580043869.5,8397717093441581.0,276232740201871.1,285546599569297.94,8187779089794.633,14103995883067.746,173355721164984.6,3352064677488695.5
3.879223451487029,4339325711205697.0,8670781049053194.0,279524434870561.44,288949281751801.75,8684392610132.821,14960316262459.777,183881718956791.72,3555455193395743.5
4.0568079205167695,4388543197775283.0,8947545276648534.0,282694856051012.75,292226601415202.06,9194431489286.537,15839883384760.39,194693552124528.66,3764352754408452.5
4.237944078927105,4435976837184882.0,9228170720289284.0,285750367933933.4,295385137334371.8,9718007485619.777,16742897368107.373,205793686904355.8,3978803786078018.5
4.422702960505647,4481717957460786.5,9512814398802404.0,288696853556599.6,298430970907491.6,10255242723061.254,17669576493436.824,217184813040632.66,4198858984620378.5
4.61115701971576,4525851195531876.0,9801630105244546.0,291539764938805.94,301369737982461.3,10806269270160.059,18620156494904.645,228869835077770.84,4424573145948544.5
4.803380160110075,4568455172379221.0,1.0094769013919968e+16,294284166573687.44,304206673814113.75,11371228774959.219,19594889946865.78,240851864839250.78,4656005017591878.0
4.9994477633122765,4609603081438475.0,1.0392380210320028e+16,296934773330576.4,306946652245065.7,11950272148307.943,20594045734741.496,253134214938127.25,4893217170484752.0
5.199436718578522,4649363203651318.0,1.069461115646079e+16,299495983632839.3,309594220002225.9,12543559289429.27,21617908599167.125,265720393188672.06,5136275888097127.0
5.403425452950093,4687799360170268.0,1.1001608101812282e+16,301971908619569.8,312153626841736.06,13151258848535.27,22666778744487.35,278614097809399.3,5385251070778306.0
5.611493962009095,4724971311810316.0,1.1313516448197718e+16,304366397876886.44,314628852147874.06,13773548022080.295,23740971504043.85,291819213324628.7,5640216153511886.0
5.823723841249277,4760935112804695.0,1.1630481075587554e+16,306683062225659.75,317023628489117.7,14410612376900.51,24840817055829.19,305339807085654.4,5901248035549726.0
6.040198318074262,4795743425177456.0,1.1952646634543892e+16,308925293972317.94,319341462551753.8,15062645700034.715,25966660183022.33,319180126344123.7,6168427020615190.0
6.261002284435747,4829445799034251.0,1.2280157810121578e+16,311096284964207.44,321585653804027.9,15729849871473.975,27118860074703.723,333344595819886.9,6441836766553001.0
6.486222330124463,4862088923242535.0,1.2613159561260352e+16,313199042737555.9,323759311188565.94,16412434757470.256,28297790162702.637,347837815713564.8,6721564243457956.0
6.715946776726952,4893716850291187.0,1.295179733906954e+16,315236405002152.7,325865368095443.3,17110618122352.82,29503837991082.28,362664560120959.2,7007699699446378.0
6.950265712261491,4924371198554227.0,1.3296217286884616e+16,317211052670479.25,327906595830628.56,17824625557073.016,30737405115233.54,377829775812077.0,7300336633344906.0
7.18927102650672,4954091334714726.0,1.3646566424545728e+16,319125521608834.9,329885615763321.5,18554690422927.066,31998907027946.695,393338581342485.44,7599571773665493.0
7.433056447036854,4982914538712656.0,1.4002992818988068e+16,320982213262706.75,331804910309585.94,19301053809102.656,33288773110165.723,409196266468813.3,7905505063315064.0
7.681717575977592,5010876153252393.0,1.4365645742936812e+16,322783404287527.44,333666832887831.25,20063964502862.69,34607446604422.7,425408291843811.8,8218239649557941.0
7.935351927497144,5038009719628084.0,1.4734675823246578e+16,324531255298082.2,335473616963224.7,20843678971322.527,35955384609194.2,441980288969423.5,8537881878807250.0
8.194058966047088,5064347101391798.0,1.5110235180217362e+16,326227818834780.8,337227384282573.4,21640461353903.348,37333058092640.01,458918060388956.25,8864541295872692.0
8.45794014536803,5089918597190299.0,1.5492477559037462e+16,327875046632218.94,338930152387949.06,22454583464647.117,38740951924369.19,476227580101741.94,9198330647336254.0
8.72709894827539,5114753043927118.0,1.5881558454356114e+16,329474796264521.0,340583841486111.56,23286324803677.324,40179564924037.58,493914994185645.0,9539365888764984.0
9.0016409272409,5138877911262283.0,1.6277635228857274e+16,331028837232688.06,342190280741091.9,24135972577164.867,41649409925725.61,511986621614505.5,9887766195503846.0
9.281673745785717,5162319388337618.0,1.6680867226599536e+16,332538856551142.6,343751214049113.0,25003821725232.652,43151013857163.31,530448955259139.2,1.0243653976820136e+16
9.567307220701432,5185102463509067.0,1.7091415881789308e+16,334006463883815.8,345268305347837.44,25890174957293.105,44684917832983.67,549308663061810.94,1.0607154893196512e+16
9.85865336511546,5207250997775345.0,1.750944482357859e+16,335433196274158.8,346743143505881.4,26795342794365.86,46251677261271.34,568572589375281.1,1.0978397876592302e+16
10.155826432417769,5228787792512420.0,1.7935119977404728e+16,336820522508376.4,348177246833149.06,27719643617972.746,47851861962767.08,588247756458575.4,1.1357515153511472e+16
10.458942961066125,5249734652054262.0,1.8368609663332844e+16,338169847146652.44,349572067247991.44,28663403725245.81,49486056302156.28,608341366122476.0,1.174464227073409e+16
10.768121820287448,5270112441599946.0,1.8810084691808148e+16,339482514253334.44,350928994133157.0,29626957389924.914,51154859330934.35,628860801518644.2,1.2139918123582192e+16
11.083484256693197,5289941140874634.0,1.9259718457180584e+16,340759810853587.25,352249357908994.56,30610646928950.59,52858884941407.64,649813629066865.5,1.254348498660613e+16
11.405153941827061,5309239893926091.0,1.971768702932546e+16,342002970141108.56,353534433349333.06,31614822774389.688,54598762031430.57,671207600515702.4,1.295548854658742e+16
11.733257020663602,5328027055398017.0,2.018416924364861e+16,343213174458908.8,354785442662754.25,32639843550454.934,56375134679535.38,693050655132266.6,1.3376077937766698e+16
12.067922161076874,5346320233585881.0,2.0659346789735656e+16,344391558072807.1,356003558359611.1,33686076155403.93,58188662330145.87,715350922017485.4,1.380540577921425e+16
12.409280604298411,5364136330549992.0,2.114340429887746e+16,345539209755384.2,357189905923103.06,34753895848123.023,60040019988608.28,738116722543548.1,1.424362821426872e+16
12.75746621638438,5381491579532447.0,2.1636529430683212e+16,346657175196254.44,358345566300816.9,35843686339218.836,61929898425804.05,761356572910769.6,1.4690904951977912e+16
13.112615540712067,5398401579901065.0,2.2138912958967732e+16,347746459253030.8,359471578231585.6,36955839886458.23,63859004392139.375,785079186821381.2,1.514739931048207e+16
13.474867851526309,5414881329820758.0,2.2650748857087556e+16,348808028055899.4,360568940421028.94,38090757394410.56,65828060840737.836,809293478268205.0,1.5613278262286528e+16
13.844365208556836,5430945256834127.0,2.317223438287921e+16,349842810977527.75,361638613577877.1,39248848518158.99,67837807159681.15,834008564436353.9,1.6088712481375514e+16
14.221252512727972,5446607246516141.0,2.3703570163342296e+16,350851702478886.7,362681522322030.06,40430531770960.48,69888999413172.055,859233768716499.1,1.6573876392124536e+16
14.605677562982532,5461880669351813.0,2.4244960279195764e+16,351835563840627.25,363698556974314.25,41636234635743.22,71982410591510.62,884978623828445.1,1.7068948219973334e+16
14.997791114242183,5476778405972812.0,2.479661234942661e+16,352795224788731.4,364690575236945.3,42866393680340.27,74118830869794.78,911252875053995.4,1.7574110043823958e+16
15.397746936527026,5491312870876387.0,2.5358737615936788e+16,353731485022404.7,365658403772934.44,44121454676364.89,76299067875275.86,938066483578308.9,1.808954785013512e+16
15.805701875257567,5505496034738954.0,2.5931551028389988e+16,354645115651447.3,366602839691926.94,45401872721644.34,78523946963310.0,965429629939180.2,1.861545158868356e+16
16.221815912762718,5519339445427425.0,2.651527132934774e+16,355536860549716.2,367524651949300.44,46708112366129.945,80794311501870.77,993352717583805.4,1.9152015229969496e+16
16.64625223101797,5532854247801570.0,2.71101211397795e+16,356407437630740.2,368424582664788.6,48040647741211.67,83111023164590.08,1021846376532833.8,1.969943682424379e+16
17.079177275638333,5546051202393741.0,2.771632704502501e+16,357257540051000.7,369303348366328.5,49399962692368.99,85474962232318.02,1050921467151580.2,2.0257918562137668e+16
17.5207608211511,5558940703044389.0,2.8334119681279788e+16,358087837345942.56,370161641164386.75,50786550915093.555,87887027903196.81,1080589084028518.0,2.0827666836878264e+16
17.97117603757412,5571532793565600.0,2.8963733822671264e+16,358898976503388.2,371000129861558.0,52200916094024.414,90348138611259.72,1110860559961229.9,2.140889230807421e+16
18.430599558325603,5583837183498990.0,2.960540846898729e+16,359691582978611.75,371819461001862.0,53643572045240.875,92859232353569.5,1141747470050184.5,2.2001809967058824e+16
18.899211549492115,5595863263028956.0,3.0259386934114612e+16,360466261654986.75,372620259863792.25,55115042861657.75,95421267025930.83,1173261635900751.2,2.2606639203778548e+16
19.37719578048196,5607620117107324.0,3.09259169352415e+16,361223597753859.25,373403131400856.44,56615863061474.766,98035220767208.0,1205415129934097.0,2.3223603875216668e+16
19.864739696091597,5619116538841228.0,3.160525068287418e+16,361964157696942.06,374168661133058.56,58146577739631.445,100702092312299.6,1238220279807594.0,2.38529323753434e+16
20.36203449001343,5630361042192033.0,3.2297644971714424e+16,362688489924340.1,374917415992496.4,59707742722219.664,103422901353816.45,1271689672945534.0,2.4494857706584024e+16
20.869275179813698,5641361874029277.0,3.3003361272442484e+16,363397125671019.2,375649945126018.1,61299924723812.06,106198688912532.3,1305836161181047.5,2.5149617552798732e+16
21.38666068340997,5652127025580562.0,3.372266582444578e+16,364090579704370.56,376366780657653.75,62923701507660.07,109030517716670.12,1340672865510217.5,2.581745435376864e+16
21.91439389707817,5662664243315093.0,3.4455829729532856e+16,364769351025295.7,377068438413334.06,64579662048720.44,111919472590099.53,1376213180959383.8,2.6498615381180916e+16
22.452681775019734,5672981039295956.0,3.52031290466684e+16,365433923535055.25,377755418610232.7,66268406699467.26,114866660849529.05,1412470781566867.2,2.7193352816111308e+16
23.00173541052013,5683084701033462.0,3.5964844887763452e+16,366084766669995.9,378428206512886.8,67990547358448.69,117873212710778.98,1449459625480297.0,2.7901923827997508e+16
23.561770118730532,5692982300869905.0,3.674126351455249e+16,366722336006080.1,379087273058113.44,69746707641545.58,120940281704228.7,1487193960170852.0,2.8624590655101756e+16
24.133005521105144,5702680704923511.0,3.75326764365887e+16,367347073835024.5,379733075450571.0,71537523055891.03,124069045099537.6,1525688327765789.8,2.936162068645834e+16
24.715665631527248,5712186581617880.0,3.833938051038344e+16,367959409713737.06,380366057730727.9,73363641176406.06,127260704339744.5,1564957570500767.0,3.011328654530418e+16
25.309978944157795,5721506409820921.0,3.916167803971841e+16,368559760988603.8,380986651316821.6,75225721824912.9,130516485484854.31,1605016836293408.2,3.087986617398881e+16
25.91617852304095,5730646486616304.0,3.999987687715356e+16,369148533296091.25,381595275522340.8,77124437251776.64,133837639665026.22,1645881584439730.5,3.16616429203623e+16
26.53450209350177,5739612934727957.0,4.085429052675657e+16,369726121041015.25,382192338050420.44,79060472320031.66,137225443543484.95,1687567591435141.2,3.2458905625638476e+16
27.165192135371807,5748411709617805.0,4.172523824807105e+16,370292907853745.1,382778235466463.94,81034524691949.39,140681199789275.28,1730090956921657.0,3.327194871373021e+16
27.808495978079243,5757048606274852.0,4.261304516134883e+16,370849267027537.9,383353353650222.0,83047305017993.27,144206237559993.28,1773468109763148.8,3.410107228205505e+16
28.464665897640828,5765529265712884.0,4.351804235406017e+16,371395561937096.7,383918068228462.56,85099537128115.61,147801912994623.44,1817715814250523.0,3.4946582193808524e+16
29.133959215593645,5773859181192926.0,4.444056698870378e+16,371932146439402.8,384472744989315.7,87191958225341.17,151469609716618.47,1862851176438633.2,3.5808790171701444e+16
29.816638399905518,5782043704185434.0,4.5380962411926984e+16,372459365257771.94,385017740279286.56,89325319081585.69,155210739347368.47,1908891650617004.8,3.668801389315858e+16
30.51297116790363,5790088050086406.0,4.633957826497716e+16,372977554350075.0,385553401383884.6,91500384235648.6,159026742030196.66,1955855045916313.0,3.758457708697464e+16
31.223230591261704,5797997303700642.0,4.731677059549001e+16,373487041261946.44,386080066892743.56,93717932193324.84,162919086965038.4,2003759533052755.8,3.8498809631423576e+16
31.947695203086937,5805776424504656.0,4.831290197063327e+16,373988145465800.9,386598067050072.1,95978755629569.62,166889272953951.38,2052623651212420.8,3.943104765381679e+16
32.686649107148675,5813430251700679.0,4.9328341591611096e+16,374481178686401.56,387107724091190.56,98283661592652.25,170938828957617.72,2102466315077861.8,4.038163363150477e+16
33.44038208929165,5820963509073060.0,5.036346540954084e+16,374966445213686.4,387609352565918.94,100633471710229.12,175069314662992.8,2153306821999156.2,4.135091649431582e+16
34.20918973107749,5828380809657227.0,5.141865624270772e+16,375444242203529.6,388103259649463.2,103029022397265.62,179282321062276.25,2205164859311677.0,4.233925172842631e+16
34.993373525699035,5835686660230819.0,5.2494303895205416e+16,375914859967042.44,388589745441483.5,105471165065726.9,183579471043354.9,2258060511803041.5,4.334700148165406e+16
35.793240996213015,5842885465636370.0,5.359080527696557e+16,376378582249029.25,389069103253933.7,107960766335960.8,187962419991905.6,2312014269331527.0,4.437453467016689e+16
36.60910581613728,5849981532943980.0,5.470856452517939e+16,376835686496132.0,389541619888243.2,110498708249685.92,192432856405322.6,2367047034598601.0,4.542222708659737e+16
37.44128793246003,5856979075462339.0,5.584799312711372e+16,377286444115200.8,390007575902407.9,113085888484499.48,196992502518651.22,2423180131077800.0,4.649046150955281e+16
38.29011369110923,5863882216605457.0,5.7009510044321176e+16,377731120722382.56,390467245868473.0,115723220569805.47,201643114942705.16,2480435311102848.0,4.757962781450952e+16
39.15591596493141,5870694993622776.0,5.819354183824209e+16,378169976383399.0,390920898620907.56,118411634104072.58,206386485314552.72,2538834764117390.0,4.869012308607902e+16
40.03903428423004,5877421361199054.0,5.9400522797195944e+16,378603265845437.75,391368797496325.06,121152074973309.88,211224440960560.56,2598401125089187.5,4.982235173163208e+16
40.93981496991464,5884065194931021.0,6.063089506475594e+16,379031238761109.5,391811200564978.4,123945505570659.47,216158845572182.88,2659157483091277.5,5.097672559626472e+16
41.85861126931294,5890630294686458.0,6.188510876950236e+16,379454139904826.44,392248360854451.8,126792905016985.73,221191599894687.34,2721127390053171.5,5.2153664079091816e+16
42.7957834946992,5897120387851949.0,6.316362215614319e+16,379872209382006.75,392680526565901.5,129695269382342.23,226324642429016.1,2784334869684606.5,5.335359425084731e+16
43.751699164593184,5903539132474405.0,6.446690171799339e+16,380285682831453.2,393107941283265.2,132653611908192.25,231559950146980.3,2848804426574945.5,5.457695097277413e+16
