t(s),Total solute volume 1,Total retention volume 1,Total 1 volume 1,Total 2 volume 1,Total 3 volume 1,Total 4 volume 1,Total 5 volume 1,Total 6 volume 1
0.1,1198922522623410.5,1797285705327306.5,247551059597552.8,350812123106343.5,0.0,0.0,0.0,0.0
0.202,1793965864202464.2,2716410974081021.0,370414390660298.3,524925501874329.6,11863299156.578197,33159835154.36784,843046087753.8331,26217148121864.793
0.30604000000000003,2239670997881464.8,3425866059517171.0,462442672711231.06,655341583030769.9,29917222588.760067,83623702450.48782,2126193510118.983,66171071458545.11
0.41216080000000005,2610081900962770.0,4033559247441999.0,538924356266004.56,763726105185759.0,52821679062.05528,147645770738.19247,3754124587038.3584,116872292990627.52
0.5204040160000001,2933191857969889.0,4580001823566467.0,605639437462681.5,858270077668958.0,79943119367.03142,223455177070.22247,5681801182439.561,176915250986065.56
0.6308120963200001,3223023389350133.0,5085364265071623.0,665483257596523.4,943076576946192.0,110910321981.72966,310014315016.30524,7882836647552.689,245477279894223.78
0.7434283382464002,3487762794054904.0,5561365540439585.0,720146106893367.0,1020540964798528.9,145481788393.30505,406648177724.2498,10340066206310.324,322023478520360.9
0.8582969050113283,3732674661257505.0,6015516412892075.0,770715006929871.4,1092203692604666.2,183490933532.12848,512891155097.89014,13041650285147.982,406185019726261.0
0.9754628431115548,3961378885861507.5,6452971484815687.0,817937386181120.0,1159123964010166.5,224818912527.43445,628411079817.8657,15979142812285.234,497698875958265.06
1.094972099973786,4176489775564647.5,6877452544131288.0,862353041537751.8,1222066741617921.5,269379468219.42673,752966873574.8324,19146414103322.66,596374224965856.5
1.2168715419732616,4379967797103436.5,7291754832420439.0,904366766149604.5,1281605670118883.0,317109753397.48816,886382893722.0989,22538998479175.598,702072107922218.6
1.3412089728127268,4573327535750595.0,7698045251797966.0,944291288476373.8,1338183926528822.2,367964419560.1532,1028532410424.6824,26153674086393.81,814692330125794.0
1.4680331522689813,4757767726001175.0,8098048146821083.0,982374120757062.2,1392152267972068.8,421911624435.4681,1179326447072.8223,29988179110170.11,934164614909095.9
1.597393815314361,4934256302477374.0,8493166389319707.0,1018815120146368.1,1443793918102597.8,478930231671.45715,1338705953013.5718,34041012729782.23,1060442399678895.2
1.729341691620648,5103588130935142.0,8884563283710070.0,1053778408894536.5,1493341459553763.8,539007785496.8938,1506636142455.468,38311291160141.68,1193498349238534.8
1.863928525453061,5266425430723388.0,9273219723017478.0,1087400720693814.5,1540988661799938.8,602139008254.8873,1683102294890.9998,42798640859592.195,1333321027637610.8
2.001207095962122,5423326835025765.0,9659975145607466.0,1119797400977561.0,1586898984363013.8,668324661905.5747,1868106572874.459,47503117608746.055,1479912376397609.5
2.1412312378813647,5574768762756060.0,1.0045557562317562e+16,1151066819745376.8,1631211830361176.5,737570669712.1581,2061665567056.7124,52425144083122.4,1633285769135046.8
2.284055862638992,5721161449955189.0,1.0430606013556432e+16,1181293681693053.2,1674047237394819.8,809887428235.099,2263808373164.285,57565460952805.414,1793464487759163.8
2.4297369798917723,5862861185715958.0,1.0815687661879698e+16,1210551552661229.8,1715509457853785.2,885289261339.6537,2474575065930.9814,62925088076319.84,1960480513245129.2
2.578331719489608,6000179795770453.0,1.1201311005570004e+16,1238904817787050.5,1755689733873699.2,963793982064.306,2694015474520.432,68505293361171.375,2134373555321049.0
2.7298983538794,6133392094154164.0,1.1587936236745166e+16,1266410220108488.0,1794668477738939.8,1045422537706.334,2922188190556.3867,74307567539394.02,2315190266475925.0
2.884496320956988,6262741810613230.0,1.19759834635703e+16,1293118084443233.2,1832517006278676.5,1130198720020.831,3159159758158.2705,80333603571311.0,2502983600185652.0
3.0421862473761276,6388446358019013.0,1.2365839311690328e+16,1319073301754671.2,1869298935841843.8,1218148927019.3074,3405004008208.4194,86585279716964.8,2697812283422616.5
3.2030299723236504,6510700705446748.0,1.27578622796906e+16,1344316128857218.5,1905071315583875.5,1309301966133.803,3659801508245.6553,93064645547795.5,2899740380780581.5
3.3670905717701234,6629680553537730.0,1.3152387125355284e+16,1368882844058587.2,1939885556597368.8,1403688890894.9153,3923639106038.4907,99773910340493.12,3108836932824166.0
3.5344323832055258,6745544959634216.0,1.3549728489865668e+16,1392806289192254.0,1973788200042718.2,1501342865028.0725,4196609549799.9653,106715433419761.1,3325175655161880.5
3.7051210308696363,6858438524686973.0,1.3950183916882698e+16,1416116321165658.8,2006821557050839.5,1602299049184.4722,4478811171673.446,113891716109987.11,3548834687648400.5
3.879223451487029,6968493227949474.0,1.435403638677554e+16,1438840190784074.8,2039024245566009.8,1706594506515.4268,4770347623892.069,121305395026349.52,3779896385319220.0
4.0568079205167695,7075829976203599.0,1.4761556459109504e+16,1461002862631553.5,2070431643658873.2,1814268124057.7505,5071327659136.504,128959236489836.77,4018447144342442.0
4.237944078927105,7180559919808850.0,1.5173004096185328e+16,1482627286806094.8,2101076274610615.8,1925360547484.6924,5381864948255.148,136856131892358.14,4264577257571672.5
4.422702960505647,7282785576909104.0,1.5588630225041014e+16,1503734631043520.5,2130988135862764.0,2039914127234.5312,5702077929790.99,144999093870663.72,4518380795297928.0
4.61115701971576,7382601798740247.0,1.6008678083576328e+16,1524344480032221.8,2160194981472206.0,2157972874389.559,6032089686766.372,153391253173408.8,4779955507597089.0
4.803380160110075,7480096602497824.0,1.6433384387393906e+16,1544475007381981.8,2188722565813395.5,2279582424964.2715,6372027846977.36,162035856126054.38,5049402745302722.0
4.9994477633122765,7575351893169252.0,1.6862980346898186e+16,1564143124666375.5,2216594854790923.8,2404790011490.59,6722024503688.938,170936262614537.66,5326827397141909.0
5.199436718578522,7668444091763284.0,1.7297692558661492e+16,1583364611138323.8,2243834209663337.0,2533644440972.4014,7082216154138.486,180095944521807.7,5612337840979629.0
5.403425452950093,7759444684224815.0,1.7737743790696104e+16,1602154227068906.0,2270461547659021.5,2666196078431.6245,7452743653673.185,189518484561919.4,5906045907449327.0
5.611493962009095,7848420702815747.0,1.81833536777909e+16,1620525813141850.5,2296496482831188.0,2802496835389.9478,7833752183688.79,199207575465098.34,6208066854517953.0
5.823723841249277,7935435149729390.0,1.863473934028511e+16,1638492377920620.8,2321957450010104.0,2942600162731.1616,8225391231818.341,209167019474321.88,6518519351756121.0
6.040198318074262,8020547371080892.0,1.9092115937403372e+16,1656066175069154.5,2346861814234972.0,3086561047471.9146,8627814583051.004,219400728119854.12,6837525473267961.0
6.261002284435747,8103813388094004.0,1.9555697164454556e+16,1673258771734639.5,2371225967661248.5,3234436013037.507,9041180320654.098,229912722243088.72,7165210698387879.0
6.486222330124463,8185286191225628.0,2.0025695701709412e+16,1690081109277744.2,2395065415623288.0,3386283122697.222,9465650835932.775,240707132245131.56,7501703919379004.0
6.715946776726952,8265016002082722.0,2.0502323621554264e+16,1706543557352695.5,2418394853272859.0,3542161985861.81,9901392845995.973,251788198539004.66,7847137455475117.0
6.950265712261491,8343050507253119.0,2.0985792759511944e+16,1722655962188166.8,2441228233999476.5,3702133766986.5776,10348577418812.338,263160272187238.12,8201647072698136.0
7.18927102650672,8419435067565214.0,2.1476315053891444e+16,1738427689794798.0,2463578830661092.5,3866261196857.9956,10807380004935.51,274827815709077.25,8565372008959499.0
7.433056447036854,8494212905784422.0,2.1974102858134064e+16,1753867664720386.0,2485459290505246.0,4034608586071.2407,11277980475360.188,286795404043618.25,8938455004018951.0
7.681717575977592,8567425275330895.0,2.247936922934659e+16,1768984404886339.2,2506881684536863.0,4207241840530.953,11760563165041.547,299067725656970.75,9321042333929926.0
7.935351927497144,8639111612246082.0,2.2992328196027828e+16,1783786052965463.5,2527857551984685.0,4384228478829.2417,12255316921669.146,311649583783064.1,9713283849648006.0
8.194058966047088,8709309672336034.0,2.3513195007585144e+16,1798280404699012.2,2548397940430192.0,4565637651373.337,12762435159339.826,324545897789055.1,1.0115333019520182e+16
8.45794014536803,8778055655163499.0,2.404218636789383e+16,1812474934498296.8,2568513442088474.0,4751540161151.363,13282115916817.969,337761704657411.8,1.0527346975408198e+16
8.72709894827539,8845384316345061.0,2.4579520654857676e+16,1826376818631623.8,2588214226667083.0,4942008486038.75,13814561920110.383,351302160577736.8,1.0949486562230078e+16
9.0016409272409,8911329069424786.0,2.5125418127682556e+16,1839992956258881.8,2607510071174838.5,5137116802559.463,14359980649117.775,365172542642282.06,1.1381916390730098e+16
9.281673745785717,8975922078436765.0,2.5680101123357844e+16,1853329988543738.0,2626410387006278.5,5336941011027.564,14918584408153.02,379378250639825.3,1.1824804893312024e+16
9.567307220701432,9039194342134666.0,2.6243794243663004e+16,1866394316045142.5,2644924244587692.5,5541558762003.084,15490590400143.676,393924808943251.7,1.227832438279011e+16
9.85865336511546,9101175770747698.0,2.681672453385563e+16,1879192114565759.0,2663060395836409.5,5751049484004.936,16076220804358.438,408817868486783.75,1.2742651113930568e+16
10.155826432417769,9161895256022750.0,2.739912165406444e+16,1891729349614087.0,2680827294655520.0,5965494412430.605,16675702857517.39,424063208829275.44,1.3217965347672876e+16
10.458942961066125,9221380735223256.0,2.7991218044294064e+16,1904011789618896.8,2698233115660435.0,6184976619638.745,17289268938163.838,439666740300492.3,1.3704451417933136e+16
10.768121820287448,9279659249681364.0,2.8593249083845892e+16,1916045018018841.0,2715285771311501.5,6409581046156.521,17917156654191.85,455634506227659.9,1.4202297800906172e+16
11.083484256693197,9336756998430892.0,2.9205453245873404e+16,1927834444336598.0,2731992927607429.5,6639394532978.614,18559608933437.594,471972685239939.7,1.4711697186792158e+16
11.405153941827061,9392699387393436.0,2.982807224771204e+16,1939385314334646.8,2748362018477366.5,6874505854929.436,19216874117254.184,488687593648841.44,1.5232846553885512e+16
11.733257020663602,9447511074536964.0,3.046135119755777e+16,1950702719339527.2,2764400258994660.0,7115005755063.984,19889206057003.996,505785687902819.6,1.5765947244971744e+16
12.067922161076874,9501216011382994.0,3.110553873801145e+16,1961791604812185.0,2780114657522065.0,7360986980086.715,20576864213409.176,523273567114610.3,1.6311205045986172e+16
12.409280604298411,9553837481198940.0,3.1760887186951916e+16,1972656778233837.8,2795512026887081.5,7612544316770.777,21280113758713.297,541157975660074.44,1.6868830266896494e+16
12.75746621638438,9605398134177460.0,3.2427652676158444e+16,1983302916369707.2,2810598994675622.0,7869774629363.428,21999225681613.766,559445805847547.56,1.7439037824777116e+16
13.112615540712067,9655920019873922.0,3.3106095288063096e+16,1993734571966670.0,2825382012723455.5,8132776897965.815,22734476894933.562,578144100656866.0,1.8022047329049276e+16
13.474867851526309,9705424617146944.0,3.379647919097783e+16,2003956179935330.0,2839867365876965.5,8401652257877.895,23486150346006.043,597260056547450.1,1.861808316886724e+16
13.844365208556836,9753932861821824.0,3.4499072773111348e+16,2013972063061865.5,2854061180087636.0,8676504039901.76,24254535129756.215,616801026334969.6,1.9227374602635404e+16
14.221252512727972,9801465172275826.0,3.5214148775662876e+16,2023786437290865.2,2867969429898514.0,8957437811598.375,25039926604463.668,636774522136249.8,1.9850155849645424e+16
14.605677562982532,9848041473125754.0,3.594198442525663e+16,2033403416616261.5,2881597945375251.5,9244561419495.123,25842626510200.926,657188218382265.4,2.0486666183827348e+16
14.997791114242183,9893681217179952.0,3.6682861565958616e+16,2042827017613955.5,2894952418529483.5,9537985032243.062,26662943089945.676,678049954899142.6,2.113715002961393e+16
15.397746936527026,9938403405803102.0,3.743706679109942e+16,2052061163646675.5,2908038409277626.5,9837821184724.191,27501191213367.668,699367740057256.0,2.1801857059916644e+16
15.805701875257567,9982226607827718.0,3.820489157510795e+16,2061109688768821.0,2920861350974547.5,10144184823111.15,28357692503298.438,721149753988556.2,2.24810422962219e+16
16.221815912762718,1.0025168977134138e+16,3.898663240554907e+16,2069976341356315.0,2933426555557582.0,10457193350883.236,29232775464894.195,743404351872454.6,2.3174966210812788e+16
16.64625223101797,1.0067248269010292e+16,3.978259091554146e+16,2078664787484523.0,2945739218333439.0,10776966675802.87,30126775617506.137,766140067290596.4,2.388389483112925e+16
17.079177275638333,1.0108481855391714e+16,4.05930740167216e+16,2087178614075007.0,2957804422437549.5,11103627257859.41,31040035629277.457,789365615650999.4,2.4608099846279156e+16
17.5207608211511,1.0148886739074442e+16,4.14183940329105e+16,2095521331830170.8,2969627142992928.0,11437300158187.217,31972905454486.688,813089897682122.8,2.5347858715718292e+16
17.97117603757412,1.0188479566984518e+16,4.225886883462724e+16,2103696377973121.2,2981212250992815.0,11778113088966.885,32925742473664.08,837322002997463.5,2.610345478011672e+16
18.430599558325603,1.0227276642581438e+16,4.311482197458667e+16,2111707118808669.8,2992564516929979.0,12126196464318.531,33898911636506.977,862071213731393.6,2.687517737443432e+16
18.899211549492115,1.0265293937464634e+16,4.398658282431198e+16,2119556852119868.5,3003688614192964.5,12481683452198.227,34892785607625.203,887347008247038.5,2.7663321943227516e+16
19.37719578048196,1.0302547102248452e+16,4.48744867119839e+16,2127248809413430.5,3014589122248104.5,12844710027308.94,35907744915149.74,913159064916998.4,2.8468190158214456e+16
19.864739696091597,1.0339051476763726e+16,4.577887506164406e+16,2134786158026123.8,3025270529624530.0,13215415025037.576,36944178102240.055,939517265977836.6,2.9290090038124636e+16
20.36203449001343,1.0374822099639784e+16,4.670009553386175e+16,2142172003103253.5,3035737236718010.0,13593940196432.734,38002481881527.83,966431701459324.8,3.012933607086346e+16
20.869275179813698,1.0409873717316588e+16,4.763850216797319e+16,2149409389459451.2,3045993558427870.5,13980430264235.447,39083061292537.414,993912673189424.6,3.098624933802313e+16
21.38666068340997,1.0444220792531798e+16,4.859445552599398e+16,2156501303331097.8,3056043726640429.0,14375032979979.398,40186329862126.56,1021970698876143.4,3.1861157641772416e+16
21.91439389707817,1.0477877512324766e+16,4.956832283830212e+16,2163450674028969.8,3065891892571003.5,14777899182174.764,41312709767990.586,1050616516267362.9,3.2754395634159836e+16
22.452681775019734,1.051085779559544e+16,5.056047815118825e+16,2170260375498917.5,3075542128975629.5,15189182855592.463,42462632005277.805,1079861087389832.5,3.3666304948867596e+16
23.00173541052013,1.0543175300252728e+16,5.157130247636276e+16,2176933227797952.0,3084998432242778.5,15609041191665.898,43636536556363.93,1109715602868612.4,3.4597234335452572e+16
23.561770118730532,1.0574843429985232e+16,5.260118394250978e+16,2183471998492184.2,3094264724374559.0,16037634650027.475,44834872563837.016,1140191486328172.5,3.5547539796115716e+16
24.133005521105144,1.0605875340683472e+16,5.365051794897496e+16,2189879403982881.2,3103344854865760.0,16475127021198.193,46058098506745.22,1171300398876572.2,3.65175847250383e+16
24.715665631527248,1.0636283946540658e+16,5.4719707321669176e+16,2196158110766147.8,3112242602489096.5,16921685490448.973,47306682380160.08,1203054243674041.2,3.750774005032857e+16
25.309978944157795,1.0666081925857278e+16,5.5809162471273576e+16,2202310736631437.8,3120961676993616.0,17377480702853.527,48581101878113.195,1235465170587400.0,3.85183843786228e+16
25.91617852304095,1.0695281726572176e+16,5.691930155382366e+16,2208339851803633.5,3129505720723160.0,17842686829552.36,49881844579963.3,1268545580931808.0,3.9549904142383384e+16
26.53450209350177,1.0723895571541632e+16,5.805055063375452e+16,2214247980033013.2,3137878310160989.5,18317481635248.637,51209408140251.67,1302308132301300.2,4.0602693749942104e+16
27.165192135371807,1.075193546358535e+16,5.920334384948246e+16,2220037599637144.2,3146082957406329.0,18802046546956.89,52564300482108.58,1336765743489744.2,4.167715573833475e+16
27.808495978079243,1.077941319031738e+16,6.037812358160217e+16,2225711144498409.0,3154123111587941.5,19296566724026.613,53947039994271.97,1371931599503698.2,4.277370092897641e+16
28.464665897640828,1.0806340328778964e+16,6.157534062377416e+16,2231271005020515.2,3162002160219630.0,19801231129462.2,55358155731782.29,1407819156668900.0,4.389274858622497e+16
29.133959215593645,1.0832728249887244e+16,6.279545435637791e+16,2236719529047104.0,3169723430502083.5,20316232602562.273,56798187620419.555,1444442147831971.2,4.503472657888663e+16
29.816638399905518,1.0858588122714892e+16,6.403893292300525e+16,2242059022745392.8,3177290190575016.5,20841767932901.625,58267686664948.5,1481814587659113.8,4.620007154471298e+16
30.51297116790363,1.0883930918612752e+16,6.530625340986714e+16,2247291751457389.2,3184705650723547.0,21378037935679.3,59767215161240.49,1519950778033463.5,4.738922905794318e+16
31.223230591261704,1.090876741518738e+16,6.65979020281899e+16,2252419940521195.5,3191972964542025.5,21925247528456.688,61297346912342.2,1558865313552939.0,4.860265379994568e+16
31.947695203086937,1.0933108200144336e+16,6.791437429967011e+16,2257445776064540.5,3199095230058598.0,22483605809310.062,62858667448561.59,1598573087130340.0,4.984080973301433e+16
32.686649107148675,1.0956963675007268e+16,6.925617524506391e+16,2262371405772684.5,3206075490823416.5,23053326136423.61,64451774251643.49,1639089295697605.5,5.110417027737483e+16
33.44038208929165,1.098034405872144e+16,7.0623819575983816e+16,2267198939632485.0,3212916736963132.5,23634626209146.797,66077276983108.12,1680429446016033.5,5.239321849145837e+16
34.20918973107749,1.1003259391150678e+16,7.201783188997238e+16,2271930450654452.0,3219621906204005.5,24227728150543.086,67735797716829.88,1722609360594448.0,5.370844725550152e+16
34.993373525699035,1.102571953647497e+16,7.343874686892986e+16,2276567975574217.5,3226193884866173.0,24832858591455.895,69427971175928.62,1765645183717188.2,5.505035945853002e+16
35.793240996213015,1.1047734186495952e+16,7.488710948096435e+16,2281113515535132.0,3232635508830779.5,25450248756118.85,71154444974054.64,1809553387583973.0,5.641946818878861e+16
36.60910581613728,1.1069312863856772e+16,7.636347518574085e+16,2285569036753008.0,3238949564482178.0,26080134549336.26,72915879861144.47,1854350778563575.5,5.7816296927674824e+16
37.44128793246003,1.1090464925182234e+16,7.786841014339747e+16,2289936471164564.0,3245138789626709.0,26722756645263.5,74712949973728.31,1900054503563420.5,5.924137974724154e+16
38.29011369110923,1.111119956414468e+16,7.940249142710978e+16,2294217717060409.0,3251205874389836.0,27378360577812.934,76546343089869.58,1946682056517096.0,6.069526151133019e+16
39.15591596493141,1.1131525814460424e+16,8.096630723936667e+16,2298414639703768.0,3257153462092909.5,28047196832714.996,78416760888819.05,1994251284992002.8,6.21784980803961e+16
40.03903428423004,1.1151452552821724e+16,8.256045713203987e+16,2302529071935875.0,3262984150111066.0,28729520941263.207,80324919215468.94,2042780396919118.0,6.3691656520095256e+16
40.93981496991464,1.1170988501768092e+16,8.41855522303166e+16,2306562814768788.5,3268700490713404.0,29425593575771.26,82271548349691.06,2092287967447212.2,6.523531531369354e+16
41.85861126931294,1.1190142232500884e+16,8.584221546057203e+16,2310517637966605.0,3274304991886544.0,30135680646772.555,84257393280642.02,2142792945923562.2,6.681006457836692e+16
