t(s),Total solute volume 1,Total retention volume 1,Total 1 volume 1,Total 2 volume 1,Total 3 volume 1,Total 4 volume 1,Total 5 volume 1,Total 6 volume 1
0.1,1277535415264620.8,2216485712870468.2,368078767489456.25,570871530116391.1,0.0,0.0,0.0,3.710125213445117e-74
0.202,1920045225505444.2,3334692484555862.5,553196323558428.8,857979558512445.5,967974572.4384673,3108405744.776609,97080494147.58704,3370220105077.537
0.30604000000000003,2409373755737897.5,4189015456394259.5,694179849927348.8,1076637896452202.9,2453600557.7979445,7879162108.70886,246139282674.85712,8567482231470.016
0.41216080000000005,2822646601284604.0,4912887279851573.0,813250493192987.2,1261310454761641.2,4354904403.501002,13984784822.84109,436917968693.219,15224472954419.697
0.5204040160000001,3189015547600762.5,5556718972643083.0,918807358396198.4,1425023824401857.5,6626172300.0391035,21278471426.05351,664825791862.7971,23179511808673.668
0.6308120963200001,3523035174278891.0,6145672163333013.0,1015043857267526.0,1574281775994476.8,9242562403.760994,29680446935.21013,927368762513.3043,32345064020265.562
0.7434283382464002,3833171705849820.5,6694382929680324.0,1104399247128885.5,1712867474743703.0,12189568323.788532,39144126913.80862,1223090666770.9102,42670077595906.12
0.8582969050113283,4124850277937517.5,7212232907755400.0,1188436597996569.8,1843205163431866.5,15458683535.051865,49642194394.23772,1551137618201.3188,54124629893323.87
0.9754628431115548,4401788239193033.5,7705654759089124.0,1268226938615292.2,1966955953616424.0,19045262518.767696,61159731298.287636,1911043299535.9133,66692379371018.4
1.094972099973786,4666661294470349.0,8179283606174968.0,1344541183169906.2,2085315494301151.5,22947334563.416954,73690409175.27673,2302609876082.0347,80366386613740.06
1.2168715419732616,4921469464775930.0,8636589374214954.0,1417955570313745.8,2199177502558088.8,27164889670.71523,87234196023.83408,2725836311544.955,95146601169962.05
1.3412089728127268,5167753045276517.0,9080249817750714.0,1488913884191568.2,2309230265198106.0,31699421828.422207,101795889600.74681,3180872522185.967,111038255250897.03
1.4680331522689813,5406727381099692.0,9512383245092378.0,1557766285544838.2,2416016863857320.5,36553623042.18397,117384134864.38214,3667988665286.936,128050788167332.1
1.597393815314361,5639370853851904.0,9934700403197326.0,1624794662061948.2,2519974492111764.0,41731170791.7429,134010741432.72806,4187553805747.26,146197099453735.75
1.729341691620648,5866484491296141.0,1.0348607348956166e+16,1690229802898045.8,2621461092291208.5,47236576069.412704,151690195589.72107,4740020663818.061,165493015035282.78
1.863928525453061,6088733625732406.0,1.0755277323150312e+16,1754263401133559.8,2720773970686800.0,53075072202.722084,170439303261.99817,5325914456555.538,185956896765524.66
2.001207095962122,6306677785923222.0,1.1155702312502006e+16,1817056666125147.8,2818163154872797.0,59252532011.31914,190276923985.58344,5945824583265.934,207609351541573.62
2.1412312378813647,6520792639120344.0,1.1550730892053686e+16,1878746645361295.5,2913841198585570.5,65775405185.62507,211223769810.74448,6600398340628.711,230473011470841.94
2.284055862638992,6731486419223577.0,1.1941096554592142e+16,1939450957682649.0,3007990522709455.5,72650670438.02258,233302251645.9269,7290336120533.224,254572365933847.2
2.4297369798917723,6939112442148036.0,1.2327439291338392e+16,1999271399163311.8,3100769007816644.5,79885798668.98479,256536360974.00177,8016387713467.939,279933632337280.0
2.578331719489608,7143978788040889.0,1.2710322287455324e+16,2058296732715317.8,3192314320702946.0,87488724496.99031,280951578427.1585,8779349451362.356,306584656241898.2
2.7298983538794,7346355895052098.0,1.3090245017508812e+16,2116604875977762.5,3282747307693349.0,95467824243.57065,306574803091.19745,9580061998310.982,334554834159954.8
2.884496320956988,7546482588794832.0,1.346765364518114e+16,2174264638502622.0,3372174688929563.5,103831898974.57425,333434298046.86743,10419408648771.719,363875054108335.44
3.0421862473761276,7744570923112933.0,1.3842949375154504e+16,2231337116458772.2,3460691221485546.5,112590161555.76541,361559648802.46875,11298314028668.361,394577650258239.44
3.2030299723236504,7940810105755399.0,1.421649522900476e+16,2287876823682768.5,3548381453570167.5,121752226935.56288,390981732089.80176,12217743120389.049,426696368917009.1
3.3670905717701234,8135369711207261.0,1.4588621593823808e+16,2343932617347831.0,3635321160193047.5,131328105052.34102,421732693088.404,13178700551203.23,460266343726321.2
3.5344323832055258,8328402332203599.0,1.4959630804777386e+16,2399548461908206.5,3721578528003751.5,141328195899.56668,453845929579.2855,14182230098253.912,495324078438096.7
3.7051210308696363,8520045784851957.0,1.5329800959669022e+16,2454764064430916.5,3807215140659202.5,151763286383.3354,487356081854.6271,15229414373449.242,531907435985248.25
3.879223451487029,8710424955515726.0,1.5699389117407592e+16,2509615406712952.5,3892286804110584.0,162644548683.3323,522299027455.4836,16321374659251.174,570055632832935.4
4.0568079205167695,8899653357780132.0,1.6068633998081336e+16,2564135193868539.5,3976844242339593.0,173983539886.62692,558711879996.9713,17459270872218.436,609809237800966.2
4.237944078927105,9087834452962302.0,1.6437758276721284e+16,2618353234789609.0,4060933687433411.5,185792202708.72656,596632991485.0237,18644301635679.64,651210174706096.4
4.422702960505647,9275062776373104.0,1.6806970543439748e+16,2672296766640237.0,4144597382859095.5,198082867151.3828,636101957641.3948,19877704446431.848,694301728296077.9
4.61115701971576,9461424902929210.0,1.7176466987791438e+16,2725990733065144.0,4227874014951116.0,210868252974.1858,677159625842.0321,21160755923123.87,739128553044011.5
4.803380160110075,9647000279067988.0,1.754643285375418e+16,2779458023878010.0,4310799084655602.0,224161472878.80435,719848105344.0243,22494772126174.047,785736684448175.1
4.9994477633122765,9831861942742708.0,1.79170437028098e+16,2832719682503773.5,4393405229263046.5,237976036322.13342,764210779532.2375,23881108940818.977,834173552543587.4
5.199436718578522,1.0016077149212584e+16,1.8288466515607416e+16,2885795086278981.5,4475722502044968.5,252325853888.61975,810292319961.6757,25321162516295.184,884487997380726.8
5.403425452950093,1.0199707917129824e+16,1.8660860657159156e+16,2938702103788336.0,4557778616274953.0,267225242163.33273,858138702007.9863,26816369755290.324,936730286266546.5
5.611493962009095,1.0382811506865404e+16,1.9034378726109024e+16,2991457232678170.5,4639599158970459.0,282688929056.5996,907797221968.1074,28368208848728.027,990952132595269.9
5.823723841249277,1.0565440840963924e+16,1.940916730508444e+16,3044075720796328.5,4721207778774547.0,298732059538.52747,959316515477.294,29978199851704.277,1047206716122939.4
6.040198318074262,1.0747644874960994e+16,1.9785367626286336e+16,3096571673030730.5,4802626351657170.0,315370201747.97565,1012746577128.6775,31647905297019.98,1105548704561476.8
6.261002284435747,1.092946892545301e+16,2.0163116164162896e+16,3148958145831569.0,4883875127514353.0,332619353445.66113,1068138781198.0214,33378930843266.562,1166034276386057.8
6.486222330124463,1.1110954961211056e+16,2.05425451651222e+16,3201247231086016.0,4964972860253555.0,350495948785.35583,1125545903390.05,35172925954852.03,1228721144764517.5
6.715946776726952,1.1292141862230784e+16,2.0923783122687348e+16,3253450130754710.5,5045936923551126.0,369016865380.68677,1185022143534.1455,37031584611711.125,1293668582530105.2
6.950265712261491,1.1473065650867326e+16,2.130695520522536e+16,3305577223465443.5,5126783414135805.0,388199431648.041,1246623149166.7766,38956646046743.35,1360937448129227.0
7.18927102650672,1.165375969858795e+16,2.1692183642315496e+16,3357638124082056.5,5207527244176969.0,408061434408.5948,1310406039946.1772,40949895509274.484,1430590212484865.0
7.433056447036854,1.1834254911364306e+16,2.207958807494711e+16,3409641737118882.0,5288182224127787.0,428621126734.5933,1376429432851.4468,43013165053050.0,1502690986723483.5
7.681717575977592,1.2014579896295782e+16,2.24692858739965e+16,3461596304747693.0,5368761137181603.0,449897236026.81226,1444753468124.1902,45148334347449.33,1577305550719814.2
7.935351927497144,1.219476111169726e+16,2.2861392430815016e+16,3513509450040429.5,5449275806339196.0,471908972311.6573,1515439835915.574,47357331510762.14,1654501382419160.8
8.194058966047088,1.2374823002580576e+16,2.32560214232395e+16,3565388216003627.5,5529737154949115.0,494676036747.6651,1588551803605.9397,49642133964501.04,1734347687901331.0
8.45794014536803,1.2554788123202704e+16,2.3653285059894588e+16,3617239100886509.5,5610155261468966.0,518218630332.276,1664154243767.6804,52004769307832.93,1816915432154430.0
8.72709894827539,1.2734677248135838e+16,2.4053294305281996e+16,3669068090182100.5,5690539409097301.0,542557462800.6946,1742313662745.0972,54447316211311.25,1902277370529867.5
9.0016409272409,1.2914509473128524e+16,2.4456159087833136e+16,3720880685686979.0,5770898130843937.0,567713761709.5237,1823098229827.7417,56971905329172.11,1990508080852981.8
9.281673745785717,1.3094302306869252e+16,2.486198849282834e+16,3772681931939885.5,5851239250534886.0,593709281698.4921,1906577806995.794,59580720229526.164,2081683996166077.5
9.567307220701432,1.3274071754626952e+16,2.527089094185194e+16,3824476440319830.5,5931569920187275.0,620566313924.2888,1992823979218.2825,62275998341846.336,2175883438082888.0
9.85865336511546,1.3453832394626034e+16,2.5682974360252576e+16,3876268411051054.5,6011896654138033.0,648307695660.998,2081910085286.4614,65060031921197.19,2273186650735301.5
10.155826432417769,1.363359744791286e+16,2.6098346333902124e+16,3928061653332718.5,6092225360263823.0,676956820062.1244,2173911249166.2144,67935169028706.32,2373675835294830.5
10.458942961066125,1.3813378842383106e+16,2.6517114256399788e+16,3979859603786156.0,6172561368591990.0,706537646079.5997,2268904411854.7993,70903814527812.83,2477435185052800.5
10.768121820287448,1.3993187271563354e+16,2.6939385467734028e+16,4031665343390858.5,6252909457567329.0,737074708535.5366,2366968363728.1753,73968431095870.19,2584550921044362.5
11.083484256693197,1.417303224867468e+16,2.7365267385305524e+16,4083481613061057.5,6333273878210593.0,768593128342.7834,2468183777366.4766,77131540250707.31,2695111328202780.0
11.405153941827061,1.4352922156448382e+16,2.7794867628112356e+16,4135310827998472.5,6413658376378881.0,801118622870.6724,2572633240845.7686,80395723391785.44,2809206792031120.5
11.733257020663602,1.4532864293113864e+16,2.822829413481473e+16,4187155090942126.5,6494066213315431.0,834677516452.5673,2680401291485.5176,83763622855613.4,2926929835779751.0
12.067922161076874,1.4712864914934208e+16,2.8665655276319324e+16,4239016204423574.5,6574500184656846.0,869296751032.1019,2791574450041.4175,87237942985102.34,3048375158118556.0
12.409280604298411,1.4892929275626942e+16,2.9107059963458628e+16,4290895682124673.0,6654962638048454.0,905003896945.1322,2906241255334.5054,90821451212574.92,3173639671293702.5
12.75746621638438,1.507306166297317e+16,2.955261775028022e+16,4342794759425216.0,6735455489503087.0,941827163834.7638,3024492299307.5405,94516979156146.25,3302822539759433.5
13.112615540712067,1.525326543288755e+16,3.0002438933411772e+16,4394714403219120.0,6815980238625602.0,979795411696.8456,3146420262500.8125,98327423729233.72,3436025219276086.5
13.474867851526309,1.5433543041196454e+16,3.0456634647920424e+16,4446655321070161.0,6896537982812899.0,1018938162053.6603,3272119949939.6484,102255748262952.89,3573351496465983.5
13.844365208556836,1.5613896073346642e+16,3.09153169600453e+16,4498617969771607.0,6977129430529427.0,1059285609253.5801,3401688327426.841,106304983641185.44,3714907528819716.5
14.221252512727972,1.5794325272246796e+16,3.1378598957146616e+16,4550602563367714.0,7057754913748216.0,1100868631894.7253,3535224558233.3696,110478229448120.66,3860801885145696.0
14.605677562982532,1.5974830564425048e+16,3.1846594835183988e+16,4602609080690250.0,7138414399639560.0,1143718804370.8054,3672830040181.8433,114778655128080.3,4011145586456490.5
14.997791114242183,1.6155411084669766e+16,3.2319419984004724e+16,4654637272457823.0,7219107501581802.0,1187868408537.4375,3814608443117.0527,119209501157469.53,4166052147286185.0
15.397746936527026,1.6336065199305266e+16,3.2797191070703692e+16,4706686667982040.0,7299833489562132.0,1233350445497.5042,3960665746759.089,123774080228697.69,4325637617433316.0
15.805701875257567,1.6516790528241038e+16,3.328002612128791e+16,4758756581520185.0,7380591300029446.0,1280198647504.233,4111110278934.709,128475778445942.97,4490020624124913.5
16.221815912762718,1.669758396592149e+16,3.3768044600862564e+16,4810846118311304.0,7461379545255740.0,1328447489980.8428,4266052754183.3774,133318056532642.72,4659322414597272.0
16.64625223101797,1.6878441701292338e+16,3.4261367492536524e+16,4862954180328639.0,7542196522258240.0,1378132203655.8176,4425606312735.014,138304451050616.31,4833666899090335.0
17.079177275638333,1.7059359236889234e+16,3.4760117375228244e+16,4915079471779689.0,7623040221329179.0,1429288786813.087,4589886559856.824,143438575630750.4,5013180694252718.0
17.5207608211511,1.7240331407147238e+16,3.5264418500539492e+16,4967220504381128.0,7703908334217430.0,1481954017656.5452,4759011605567.8,148724122215180.1,5197993166955287.0
17.97117603757412,1.742135239601994e+16,3.5774396868851372e+16,5019375602435334.0,7784798262001743.0,1536165466788.5046,4933102104719.505,154164862310942.53,5388236478511966.0
18.430599558325603,1.760241575399071e+16,3.629018030478436e+16,5071542907731678.0,7865707122692281.0,1591961509802.1196,5112281297442.9375,159764648255088.78,5584045629307280.0
18.899211549492115,1.7783514414552746e+16,3.68118985321536e+16,5123720384294492.0,7946631758594678.0,1649381339987.7173,5296675049961.81,165527414491256.2,5785558503830504.0
19.37719578048196,1.7964640710226472e+16,3.733968324854471e+16,5175905822998126.0,8027568743467644.0,1708464981153.4902,5486411895773.343,171457178857750.34,5992915916117782.0
19.864739696091597,1.814578638817971e+16,3.787366819961852e+16,5228096846067270.0,8108514389502777.0,1769253300561.1936,5681623077198.676,177558043887189.03,6206261655603822.0
20.36203449001343,1.832694262550936e+16,3.841398925325588e+16,5280290911479935.0,8189464754153278.0,1831788021977.5784,5882442587305.562,183834198117796.12,6425742533386220.0
20.869275179813698,1.8508100044239736e+16,3.896078447363768e+16,5332485317288571.0,8270415646835992.0,1896111738842.8882,6089007212207.263,190289917416465.66,6651508428905865.0
21.38666068340997,1.8689248726087056e+16,3.951419419535392e+16,5384677205874151.0,8351362635528992.0,1962267927557.7546,6301456573741.972,196929566313738.16,6883712337048593.0
21.91439389707817,1.887037822703749e+16,4.007436109762758e+16,5436863568146199.0,8432301053285856.0,2030300960890.2954,6519933172539.074,203757599350866.0,7122510415673679.0
22.452681775019734,1.905147759178085e+16,4.0641430278735784e+16,5489041247701432.0,8513226004685380.0,2100256121505.4893,6744582431478.173,210778562439176.94,7368062033576077.0
23.00173541052013,1.9232535368039344e+16,4.121554933070362e+16,5541206944952105.0,8594132372234447.0,2172179615619.2449,6975552739549.1455,217997094231978.1,7620529818890709.0
23.561770118730532,1.941353962082724e+16,4.179686841434189e+16,5593357221234412.0,8675014822740021.0,2246118586779.9146,7212995496122.134,225417927509276.66,7880079707948011.0
24.133005521105144,1.9594477946674776e+16,4.238554033469897e+16,5645488502906716.0,8755867813665090.0,2322121129780.3716,7457065155637.102,233045890575627.6,8146880994591326.0
24.715665631527248,1.9775337487846024e+16,4.2981720616990824e+16,5697597085445818.0,8836685599482092.0,2400236304704.24,7707919272724.836,240885908671469.72,8421106379967965.0
25.309978944157795,1.995610494657846e+16,4.358556758306845e+16,5749679137549718.0,8917462238035812.0,2480514151110.0093,7965718547771.324,248943005398328.03,8702932022807214.0
25.91617852304095,2.013676659936893e+16,4.419724242848326e+16,5801730705253590.0,8998191596927156.0,2563005702357.5166,8230626872939.951,257222304158324.44,8992537590199962.0
26.53450209350177,2.0317308311328676e+16,4.4816909300205464e+16,5853747716065717.0,9078867359927750.0,2647763000081.3696,8502811378666.013,265729029608461.94,9290106308896068.0
27.165192135371807,2.0497715550627236e+16,4.544473537504712e+16,5905725983128980.0,9159483033434276.0,2734839108816.538,8782442480640.703,274468509130198.34,9595825017136820.0
27.808495978079243,2.067797340304361e+16,4.6080890938842424e+16,5957661209413288.0,9240031952970684.0,2824288130781.707,9069693927302.262,283446174314887.3,9909884217041894.0
28.464665897640828,2.085806658663969e+16,4.672554946643366e+16,6009548991943350.0,9320507289745086.0,2916165220826.381,9364742847853.68,292667562465660.94,1.0232478127571226e+16
29.133959215593645,2.1037979466571316e+16,4.7378887702508456e+16,6061384826065713.0,9400902057267976.0,3010526601548.2847,9667769800827.982,302138318116439.56,1.056380473808471e+16
29.816638399905518,2.1217696070046416e+16,4.804108574333499e+16,6113164109758807.0,9481209118036668.0,3107429578588.088,9978958823223.79,311864194568749.75,1.0904065862522636e+16
30.51297116790363,2.1397200101442548e+16,4.871232711943848e+16,6164882147988165.0,9561421190290284.0,3206932556108.8726,10298497480234.676,321851055447106.1,1.1253467194233898e+16
31.223230591261704,2.1576474957590104e+16,4.939279887925987e+16,6216534157110168.0,9641530854839416.0,3309095052468.2607,10626576915598.264,332104876273760.2,1.161221836147822e+16
31.947695203086937,2.1755503743229224e+16,5.008269167384142e+16,6268115269325036.0,9721530561972728.0,3413977716091.866,10963391902592.45,342631746063653.9,1.1980532983632142e+16
32.686649107148675,2.1934269286642732e+16,5.078219984257458e+16,6319620537181251.0,9801412638442996.0,3521642341556.827,11309140895707.256,353437868940498.9,1.2358628728129816e+16
33.44038208929165,2.211275415547093e+16,5.1491521500051176e+16,6371044938131887.0,9881169294533756.0,3632151885895.0073,11664026083022.914,364529565774907.06,1.2746727368170836e+16
34.20918973107749,2.229094067270714e+16,5.221085862405778e+16,6422383379143233.0,9960792631207002.0,3745570485125.9424,12028253439326.682,375913275845607.06,1.3145054841230324e+16
34.993373525699035,2.2468810932875256e+16,5.294041714474616e+16,6473630701355722.0,1.0040274647332176e+16,3861963471029.9893,12402032780001.846,387595558524777.2,1.355384130840726e+16
35.793240996213015,2.2646346818386836e+16,5.368040703502087e+16,6524781684796898.0,1.0119607246995586e+16,3981397388172.674,12785577815724.674,399583094988623.56,1.3973321214649054e+16
36.60910581613728,2.2823530016075184e+16,5.443104240217569e+16,6575831053144972.0,1.0198782246888536e+16,4103940011192.016,13179106208006.672,411882689954352.3,1.440373334989344e+16
37.44128793246003,2.3000342033901908e+16,5.51925415808177e+16,6626773478542150.0,1.0277791383772602e+16,4229660362360.7495,13582839625620.79,424501273444765.0,1.4845320911168368e+16
38.29011369110923,2.317676421782828e+16,5.596512722711114e+16,6677603586455918.0,1.0356626322018988e+16,4358628729436.2095,13997003801952.102,437445902581728.8,1.5298331565694958e+16
39.15591596493141,2.3352777768847516e+16,5.67490264143773e+16,6728315960585941.0,1.043527866121919e+16,4490916683810.913,14421828593316.07,450723763409863.2,1.5763017515037666e+16
40.03903428423004,2.3528363760165668e+16,5.754447073008243e+16,6778905147814343.0,1.0513739943862562e+16,4626597098977.571,14857548038287.33,464342172751786.2,1.623963556035084e+16
40.93981496991464,2.3703503154524104e+16,5.835169637425039e+16,6829365663196594.0,1.059200166307664e+16,4765744169322.828,15304400418084.736,478308580096372.94,1.6728447168769278e+16
41.85861126931294,2.3878176821651252e+16,5.9170944259330184e+16,6879691994989546.0,1.0670055270425746e+16,4908433429264.037,15762628318060.49,492630569521471.8,1.722971854099493e+16
