t(s),Total solute volume 1,Total retention volume 1,Total 1 volume 1,Total 2 volume 1,Total 3 volume 1,Total 4 volume 1,Total 5 volume 1,Total 6 volume 1
0.1,1038034012882719.0,1307672365282961.0,121693262551923.95,147945089848319.12,0.0,0.0,0.0,0.0
0.202,1555396517047853.0,1976980251564022.8,182345930036494.56,221681831513752.25,17189324958.932713,37953688300.61425,678086657363.7158,16822743295297.385
0.30604000000000003,1943412271236392.2,2492543546981392.5,227834712443691.38,276983513653612.56,43383534329.15061,95790287416.37149,1711423954434.7202,42462451871517.66
0.41216080000000005,2266478773634003.0,2933514748876956.0,265709210220877.22,323028347605551.56,76653006233.69012,169249359936.0208,3023884838258.834,75028630212090.78
0.5204040160000001,2548838455328114.5,3329507103290356.0,298811469525535.4,363271469544196.2,116091085034.92209,256329151382.3622,4579703961388.753,113633584694705.33
0.6308120963200001,2802616956145012.5,3695256966884304.0,328563032105800.4,399441078083483.7,161170146535.38962,355864795197.1171,6358069003136.563,157760796605141.44
0.7434283382464002,3034885521558726.0,4039324719896019.5,355792890969311.25,432544997691999.1,211549834253.21,467104906162.6292,8345555330993.481,207077099604574.56
0.8582969050113283,3250187185567978.5,4367196228275517.0,381033645843770.56,463230721208323.2,266997870407.6102,589536734938.713,10533001996093.125,261355139054007.97
0.9754628431115548,3451642688119378.5,4682635947497447.0,404651154709796.0,491943029974964.2,327350823468.89624,722799545056.352,12913964039014.398,320434960285768.56
1.094972099973786,3641503621747668.0,4988361416047851.0,426909381598888.4,519002830688978.0,392492244418.643,866636339233.7307,15483849989026.207,384202603439635.1
1.2168715419732616,3821456721608243.0,5286413065381642.0,448006069843678.4,544650524132693.56,462339431218.5128,1020864636354.6061,18239399741653.426,452577145987796.7
1.3412089728127268,3992803693385204.5,5578372054837209.0,468093824089416.0,569071635024393.4,536834908203.8097,1185357658756.9219,21178348436375.457,525502361334860.3
1.4680331522689813,4156573612254990.5,5865495990594964.0,487293287315633.94,592412831604368.0,615940673750.5955,1360031631721.2578,24299199540109.39,602941087574389.2
1.597393815314361,4313596415938058.5,6148807389018132.0,505701756747742.56,614792400182217.9,699634167177.168,1544836878935.1978,27601065752678.13,684871279351320.5
1.729341691620648,4464552774464527.0,6429153521632225.0,523399030307570.75,636307352791359.8,787905352763.59,1739751384493.9536,31083553981339.164,771283153350179.5
1.863928525453061,4610008997795211.0,6707248181116645.0,540451498986316.56,657038402374021.4,880754557189.0782,1944776018408.5217,34746680036795.707,862177071348707.1
2.001207095962122,4750442124269409.0,6983701613086723.0,556915088072909.5,677053538495215.5,978190831221.1473,2159930919636.6318,38590804010364.84,957561936487964.8
2.1412312378813647,4886258366600916.0,7259042462711061.0,572837419658720.0,696410656345797.9,1080230686033.9706,2385252706279.7397,42616580429894.8,1057453956283423.4
2.284055862638992,5017806945069836.0,7533734190154667.0,588259434363085.1,715159528308735.8,1186897103456.8606,2620792290609.4297,46824919221998.91,1161875673796940.5
2.4297369798917723,5145390643233101.0,7808187565955566.0,603216628825382.9,733343308404578.4,1298218750579.1953,2866613145309.6987,51216954736033.734,1270855198860580.5
2.578331719489608,5269273987503655.0,8082770331574238.0,617740014632826.8,750999698080425.0,1414229349529.5496,3122789912344.651,55794020889670.08,1384425591205785.0
2.7298983538794,5389689672956865.0,8357814772895584.0,631856871645842.5,768161862043618.0,1534967166953.3206,3389407276124.2954,60557631036602.34,1502624360769573.2
2.884496320956988,5506843673837863.0,8633623732441257.0,645591347125166.8,784859156633324.8,1660474597137.7026,3666559043450.0713,65509461528738.1,1625493059675569.8
3.0421862473761276,5620919353320360.0,8910475436691714.0,658964937536839.4,801117715561127.1,1790797819345.0786,3954347387320.838,70651338206041.86,1753076946860678.5
3.2030299723236504,5732080801869692.0,9188627412414618.0,671996879923080.6,816960925708945.0,1925986514639.691,4252882222110.2573,75985225233561.28,1885424710942591.5
3.3670905717701234,5840475573925329.0,9468319694271350.0,684704472735539.1,832409817172845.4,2066093630922.4944,4562280685199.461,81513215840472.69,2022588240281042.0
3.5344323832055258,5946236950183574.0,9749777475098614.0,697103341052592.2,847483385693354.5,2211175187416.862,4882666705730.229,87237524615694.7,2164622431660252.5
3.7051210308696363,6049485822115942.0,1.003321331358489e+16,709207657509657.0,862198861245160.2,2361290111735.585,5214170645311.994,93160481089094.84,2311585030867992.0
3.879223451487029,6150332272921267.0,1.0318828987254096e+16,721030327641113.1,876571933361225.4,2516500104087.0186,5556928998667.594,99284524383622.8,2463536499844086.0
4.0568079205167695,6248876912476546.0,1.0606817058830044e+16,732583146382429.6,890616941395759.2,2676869524269.819,5911084144612.822,105612198766761.28,2620539906139690.0
4.237944078927105,6345212011376827.0,1.0897362209202544e+16,743876931018620.0,904347036152482.6,2842465297948.9717,6276784139626.715,112146149962952.4,2782660831254110.5
4.422702960505647,6439422469698862.0,1.1190642378974304e+16,754921634756624.9,917774317957003.1,3013356839363.6733,6654182547722.2,118889122114613.56,2949967295060077.0
4.61115701971576,6531586648882929.0,1.148682975197815e+16,765726444250463.5,930909955220213.5,3189615988135.3413,7043438301469.694,125843955299781.34,3122529694035172.0
4.803380160110075,6621777089534515.0,1.1786091607527296e+16,776299863752257.9,943764286742477.8,3371316958255.1567,7444715589933.865,133013583530622.97,3300420751419247.5
4.9994477633122765,6710061133587434.0,1.2088591063002828e+16,786649788051134.2,956346910387022.4,3558536297658.7656,7858183770008.774,140401033170036.17,3483715477739549.5
5.199436718578522,6796501465845174.0,1.2394487724341842e+16,796783565960486.4,968666760262738.1,3751352857060.7617,8284017298221.833,148009421713976.12,3672491140404182.0
5.403425452950093,6881156587205902.0,1.2703938258790176e+16,806708055796196.8,980732174170250.1,3949847766936.1274,8722395680550.091,155841956895644.16,3866827241274688.0
5.611493962009095,6964081229714869.0,1.3017096901741564e+16,816429674035058.4,992550952756986.0,4154104421710.867,9173503438179.73,163901936074552.66,4066805501300198.5
5.823723841249277,7045326721853587.0,1.333411590744579e+16,825954438139219.6,1004130411579776.4,4364208470368.199,9637530087457.48,172192745879187.62,4272509851436169.0
6.040198318074262,7124941311074012.0,1.3655145951725182e+16,835288004368258.8,1015477427073792.5,4580247812794.968,10114670132544.086,180717862076652.47,4484026429187094.0
6.261002284435747,7202970449447310.0,1.3980336493505388e+16,844435701267061.0,1026598477264469.0,4802312601292.121,10605123069498.479,189480849646573.84,4701443580209183.0
6.486222330124463,7279457047367769.0,1.4309836100879448e+16,853402559408623.1,1037499677926474.4,5030495246754.772,11109093400702.617,198485363039801.7,4924851864489356.0
6.715946776726952,7354441699487888.0,1.4643792746531672e+16,862193337881412.9,1048186814784953.5,5264890429096.77,11626790658689.654,207735146605148.4,5154344066684475.0
6.950265712261491,7427962886430655.0,1.498235407661376e+16,870812547936982.9,1058665372264426.8,5505595111552.694,12158429438565.361,217234035169715.2,5390015210261865.0
7.18927102650672,7500057155301667.0,1.5325667656556946e+16,879264474152189.5,1068940559216169.1,5752708558538.977,12704229438323.121,226985954760277.34,5631962575129797.0
7.433056447036854,7570759281588383.0,1.5673881196796664e+16,887553193409356.5,1079017331992792.5,6006332356798.363,13264415506442.96,236994923454874.88,5880285718488019.0
7.681717575977592,7640102414669056.0,1.6027142760964778e+16,895682591954924.5,1088900415186785.1,6266570439586.899,13839217696246.164,247265052355131.6,6135086498663047.0
7.935351927497144,7708118208846914.0,1.6385600958748226e+16,903656380761147.2,1098594320306100.4,6533529113693.465,14428871326542.047,257800546671055.94,6396469101722776.0
8.194058966047088,7774836941567468.0,1.6749405125315096e+16,911478109385245.1,1108103362622975.5,6807317089108.137,15033617048163.605,268605706911103.1,6664540070691059.0
8.45794014536803,7840287620257056.0,1.7118705488955504e+16,919151178494529.8,1117431676401032.9,7088045511178.282,15653700916037.645,279684930171173.25,6939408337204476.0
8.72709894827539,7904498079035099.0,1.7493653328370814e+16,926678851204423.1,1126583228679124.0,7375827995110.846,16289374466479.07,291042711517001.1,7221185255473605.0
9.0016409272409,7967495066393431.0,1.787440112086261e+16,934064263357479.5,1135561831767767.5,7670780662696.727,16940894799435.996,302683645455068.7,7509984638426726.0
9.281673745785717,8029304324800608.0,1.8261102682515416e+16,941310432855749.8,1144371154594705.2,7973022181147.607,17608524665446.902,314612427487745.4,7805922795930036.0
9.567307220701432,8089950663072012.0,1.865391330133577e+16,948420268145046.0,1153014733019394.5,8282673803948.903,18292532557097.73,326833855748916.1,8109118574989380.0
9.85865336511546,8149458022246444.0,1.90529898641931e+16,955396575937938.2,1161495979222017.8,8599859413643.978,18993192804795.027,339352832716763.06,8419693401851508.0
10.155826432417769,8207849535622821.0,1.9458490978310916e+16,962242068252118.9,1169818190260198.2,8924705566475.129,19710785676690.49,352174367000806.94,8737771325931796.0
10.458942961066125,8265147583535753.0,1.987057708796988e+16,968959368831983.5,1177984555875823.5,9257341538815.17,20445597482615.64,365303575200647.06,9063479065504246.0
10.768121820287448,8321373843382988.0,2.0289410587011104e+16,975551019013582.1,1185998165625189.5,9597899375332.033,21197920681899.523,378745683834176.1,9396946055097914.0
11.083484256693197,8376549335361592.0,2.0715155927662788e+16,982019483086438.8,1193862015397512.8,9946513938835.873,21968053994961.734,392506031333293.2,9738304494550150.0
11.405153941827061,8430694464318846.0,2.1147979726158412e+16,988367153199946.6,1201579013379698.8,10303322961764.115,22756302518583.668,406590070105435.44,1.0087689399674126e+16
11.733257020663602,8483829058081812.0,2.158805086556423e+16,994596353856895.4,1209151985519239.0,10668467099266.01,23562977844776.07,421003368659443.06,1.0445238654502796e+16
12.067922161076874,8535972402590000.0,2.2035540596192656e+16,1000709346032219.2,1216583680531488.0,11042089983852.928,24388398183171.848,435751613794482.5,1.0811093065077484e+16
12.409280604298411,8587143274122773.0,2.2490622633938824e+16,1006708330951180.2,1223876774492816.8,11424338281586.256,25232888486882.715,450840612850963.0,1.1185396414752666e+16
12.75746621638438,8637359968883389.0,2.295347325684634e+16,1012595453557621.0,1231033875057090.2,11815361749777.447,26096780581768.29,466276296022498.9,1.1568295520994198e+16
13.112615540712067,8686640330175084.0,2.342427140017778e+16,1018372805699926.8,1238057525328904.8,12215313296180.299,26980413299075.297,482064718728188.4,1.1959940293650418e+16
13.474867851526309,8735001773381738.0,2.3903198750241108e+16,1024042429059632.1,1244950207423933.2,12624349039657.494,27884132611411.266,498212064044565.44,1.2360483794680138e+16
13.844365208556836,8782461308944821.0,2.4390439837199084e+16,1029606317845106.1,1251714345743729.0,13042628372307.986,28808291772025.008,514724645196746.75,1.2770082299324288e+16
14.221252512727972,8829035563510437.0,2.4886182127070236e+16,1035066421270707.6,1258352309989652.0,13470314023043.95,29753251457373.14,531608908108377.56,1.3188895358710652e+16
14.605677562982532,8874740799403255.0,2.539061611311187e+16,1040424645839803.0,1264866417938423.5,13907572122608.809,30719379912957.594,548871434010146.9,1.3617085863884686e+16
14.997791114242183,8919592932570328.0,2.5903935406757996e+16,1045682857448398.8,1271258937999510.0,14354572270030.57,31707053102424.086,566518942106682.6,1.4054820111260638e+16
15.397746936527026,8963607549124146.0,2.6426336828274496e+16,1050842883324551.9,1277532091572943.5,14811487600507.564,32716654859919.047,584558292301772.5,1.4502267869490644e+16
15.805701875257567,9006799920602880.0,2.695802049727793e+16,1055906513817399.6,1283688055224272.2,15278494854724.375,33748577045704.617,602996487981931.4,1.4959602447751052e+16
16.221815912762718,9049185018055232.0,2.749918992325587e+16,1060875504048389.2,1289728962691978.0,15755774449599.475,34803219705037.984,621840678858424.8,1.5427000765447216e+16
16.64625223101797,9090777525047832.0,2.8050052096214624e+16,1065751575436184.2,1295656906741364.2,16243510550466.89,35880991230325.48,641098163867932.2,1.590464342334057e+16
17.079177275638333,9131591849684628.0,2.861081757757331e+16,1070536417105754.8,1301473940877612.0,16741891144696.496,36982308526565.02,660776394132101.2,1.6392714776101926e+16
17.5207608211511,9171642135719818.0,2.918170059141335e+16,1075231687191200.2,1307182080929617.0,17251108116758.938,38107597180094.65,680882975976324.0,1.6891403006299554e+16
17.97117603757412,9210942272839428.0,2.976291911618773e+16,1079839014041096.9,1312783306515406.2,17771357324743.207,39257291630670.5,701425674008147.0,1.7400900199828258e+16
18.430599558325603,9249505906179818.0,3.0354694976984908e+16,1084359997334391.2,1318279562398708.2,18302838678335.46,40431835346896.82,722412414255741.0,1.7921402422791044e+16
18.899211549492115,9287346445145902.0,3.0957253938439868e+16,1088796209114200.9,1323672759745813.8,18845756218270.816,41631681005039.59,743851287366970.1,1.845310979984367e+16
19.37719578048196,9324477071586656.0,3.1570825798376736e+16,1093149194746279.4,1328964777290749.5,19400318197269.152,42857290671252.61,765750551869625.8,1.8996226594014936e+16
19.864739696091597,9360910747381034.0,3.219564448226558e+16,1097420473808320.5,1334157462416463.2,19966737162468.312,44109135987253.586,788118637493444.0,1.9550961288016548e+16
20.36203449001343,9396660221482388.0,3.2831948138568716e+16,1101611540915827.5,1339252632158834.5,20545230039370.03,45387698359485.24,810964148554629.2,2.011752666705821e+16
20.869275179813698,9431738036466438.0,3.347997923505181e+16,1105723866489753.2,1344252074139909.5,21136018217313.484,46693469151803.94,834295867403533.5,2.0696139903183028e+16
21.38666068340997,9466156534623860.0,3.41399846561276e+16,1109758897470749.6,1349157547436244.8,21739327636493.152,48026949881738.37,858122757936369.2,2.12870226411421e+16
21.91439389707817,9499927863634688.0,3.4812215801301116e+16,1113718057984425.2,1353970783387659.2,22355388876539.785,49388652420363.09,882453969171688.6,2.18904010858258e+16
22.452681775019734,9533063981860130.0,3.549692868477986e+16,1117602749961714.6,1358693486351424.0,22984437246681.92,50779099195836.99,907298838892571.6,2.250650609127155e+16
23.00173541052013,9565576663283316.0,3.619438403631053e+16,1121414353718094.4,1363327334406457.0,23626712877509.34,52198823400655.69,932666897355392.5,2.3135573251269056e+16
23.561770118730532,9597477502128434.0,3.6904847403301976e+16,1125154228495123.0,1367873980011657.2,24282460814358.168,53648369202671.34,958567871066127.4,2.3777842991583644e+16
24.133005521105144,9628777917185638.0,3.762858925429363e+16,1128823712967468.2,1372335050622308.2,24951931112339.28,55128291959935.25,985011686625220.0,2.443356066382079e+16
24.715665631527248,9659489155866814.0,3.8365885083822776e+16,1132424125718357.0,1376712149268125.0,25635378933033.203,56639158439421.24,1012008474642001.0,2.510297664095497e+16
25.309978944157795,9689622298014986.0,3.91170155187466e+16,1135956765686202.0,1381006855096191.0,26333064642874.395,58181547039687.1,1039568573719781.6,2.5786346414546788e+16
25.91617852304095,9719188259488798.0,3.988226642607205e+16,1139422912584809.2,1385220723881816.8,27045253913248.74,59756048017537.98,1067702534512683.2,2.648393069367325e+16
26.53450209350177,9748197795541836.0,4.066192902234602e+16,1142823827299537.5,1389355288510195.5,27772217822329.883,61363263718754.195,1096421123855382.0,2.719599550559792e+16
27.165192135371807,9776661504014382.0,4.145629998465102e+16,1146160752261519.5,1393412059431300.8,28514232958679.113,63003808812948.93,1125735328966933.0,2.792281229820537e+16
27.808495978079243,9804589828354792.0,4.226568156326595e+16,1149434911801830.2,1397392525090502.8,29271581526635.773,64678310532622.81,1155656361729891.0,2.86646580442297e+16
28.464665897640828,9831993060485440.0,4.309038169602879e+16,1152647512487497.2,1401298152337021.2,30044551453524.97,66387408916485.086,1186195663045981.8,2.9421815347302828e+16
29.133959215593645,9858881343527238.0,4.393071412445892e+16,1155799743440912.0,1405130386812273.5,30833436498709.207,68131757057111.984,1217364907269566.2,3.019457254985314e+16
29.816638399905518,9885264674396308.0,4.4786998511679864e+16,1158892776644216.8,1408890653319918.5,31638536364514.324,69912021353014.73,1249176006720296.0,3.098322384288162e+16
30.51297116790363,9911152906283990.0,4.565956056219143e+16,1161927767230093.2,1412580356179349.8,32460156809055.61,71728881765191.56,1281641116276165.5,3.178806937764753e+16
31.223230591261704,9936555751031742.0,4.654873214353642e+16,1164905853760159.8,1416200879564175.0,33298609760995.83,73583032078239.56,1314772638048489.0,3.2609415379292652e+16
31.947695203086937,9961482781410768.0,4.745485140990811e+16,1167828158492201.8,1419753587827101.8,34154213436263.48,75475180166104.2,1348583226140031.8,3.3447574262435628e+16
32.686649107148675,9985943433315784.0,4.837826292774108e+16,1170695787637386.2,1423239825812589.0,35027292456762.426,77406048262545.03,1383085791487892.5,3.4302864748768104e+16
33.44038208929165,1.0009947007880968e+16,4.931931780333318e+16,1173509831608318.2,1426660919158484.8,35918177971103.195,79376373236398.56,1418293506792445.8,3.517561198668545e+16
34.20918973107749,1.0033502673526962e+16,5.027837381253936e+16,1176271365259007.0,1430018174587700.2,36827207777386.984,81386906871719.4,1454219811533932.8,3.6066147672982664e+16
34.993373525699035,1.005661946794465e+16,5.125579553258418e+16,1178981448117449.2,1433312880190991.2,37754726448075.1,83438416152885.4,1490878417078134.8,3.697481017665205e+16
35.793240996213015,1.007930630002356e+16,5.2251954476033816e+16,1181641124611690.8,1436546305701775.5,38701085456974.2,85531683554746.77,1528283311872699.8,3.790194466481219e+16
36.60910581613728,1.0101571951729852e+16,5.326722922697274e+16,1184251424290001.0,1439719702763840.5,39666643308371.56,87667507337912.66,1566448766735696.2,3.884790323080719e+16
37.44128793246003,1.012342507994036e+16,5.430200557942889e+16,1186813362035866.5,1442834305192639.8,40651765668351.24,89846701849254.78,1605389340237891.5,3.981304502450457e+16
38.29011369110923,1.0144874218236248e+16,5.535667667808592e+16,1189327938278320.8,1445891329231076.0,41656825498325.445,92070097827722.44,1645119884180486.2,4.079773638483384e+16
39.15591596493141,1.0165927778662842e+16,5.643164316133162e+16,1191796139198169.8,1448891973800167.2,42682203190814.26,94338542715556.75,1685655549169816.8,4.180235097459411e+16
40.03903428423004,1.0186594053457376e+16,5.7527313306679704e+16,1194218936930633.5,1451837420745413.0,43728286707507.34,96652900974994.8,1727011790290759.8,4.2827269917572936e+16
40.93981496991464,1.020688121675057e+16,5.8644103178610456e+16,1196597289764771.0,1454728835079238.2,44795471719640.05,99014054410557.55,1769204372880441.0,4.387288193800514e+16
41.85861126931294,1.0226797326243856e+16,5.978243677887154e+16,1198932142340126.5,1457567365220080.0,45884161750720.59,101422902497012.61,1812249378403983.2,4.49395835024157e+16
42.7957834946992,1.0246350324866282e+16,6.094274619928193e+16,1201224425840995.8,1460354143228512.8,46994768321639.9,103880362713109.67,1856163210434033.2,4.602777896387729e+16
43.751699164593184,1.0265548042413502e+16,6.2125471777079656e+16,1203475058188520.5,1463090285040847.2,48127711098200.555,106387370881180.97,1900962600735716.8,4.7137880708721704e+16
