t(s),Total solute volume 1,Total retention volume 1,Total 1 volume 1,Total 2 volume 1,Total 3 volume 1,Total 4 volume 1,Total 5 volume 1,Total 6 volume 1
0.1,1392571168361754.5,6037270240607699.0,1452613831222594.2,3192085241023349.0,0.0,0.0,0.0,-0.09582846306271511
0.202,2064418572336471.2,8953386754234167.0,2153429461038740.2,4732119191522131.0,836388186.1628691,4576691168.306576,247328418593.91013,3166787838876.514
0.30604000000000003,2583536631957654.5,1.1209807808291038e+16,2694930243019352.5,5922057553278736.0,2114360778.9835773,11572338279.925743,635668687308.1975,8634024648927.878
0.41216080000000005,3023728365403070.5,1.3126022998544064e+16,3154101623759993.5,6931078212759435.0,3749159988.3009925,20521797563.400723,1135167905210.0835,15955357758798.54
0.5204040160000001,3414799612096293.0,1.4831015521548052e+16,3562034593465185.0,7827503307294568.0,5702218335.368912,31213783838.333565,1733188562856.18,24907904126978.086
0.6308120963200001,3771899606008379.5,1.6390332878646864e+16,3934531577049769.0,8646058440336619.0,7952637283.694652,43533833588.90741,2423049851170.6025,35368718930057.055
0.7434283382464002,4103903762777570.0,1.7842376687082036e+16,4280850671042033.5,9407088130283184.0,10488317084.12583,57415679840.37063,3200913164916.3955,47265305817418.09
0.8582969050113283,4416521584040767.5,1.921185398334329e+16,4606947552988811.0,1.012367987732397e+16,13302281761.324064,72821117130.40244,4064566777400.054,60554278813440.01
0.9754628431115548,4713675196030036.0,2.0515742584149892e+16,4916913458813095.0,1.0804824100652656e+16,16390861959.675919,89730047854.27748,5012840016647.657,75210867727641.6
1.094972099973786,4998192987960087.0,2.17662921413574e+16,5213698728861116.0,1.1457004120429268e+16,19752686122.135452,108134957023.04892,6045282005839.676,91223134457939.5
1.2168715419732616,5272192334460929.0,2.2972679711549464e+16,5499512032173052.0,1.2085073446869012e+16,23388073010.685505,128037585387.25708,7161969557156.653,108588502830911.7
1.3412089728127268,5537306109040980.0,2.414198943036858e+16,5776056646510754.0,1.269277500172745e+16,27298643298.039303,149446802412.33368,8363384888570.142,127311542755123.03
1.4680331522689813,5794824346303850.0,2.527982510179857e+16,6044678228608473.0,1.3283065840925424e+16,31487059608.398655,172377182722.0732,9650334028799.594,147402487689690.53
1.597393815314361,6045786871227098.0,2.6390710692495612e+16,6306461437335160.0,1.3858329482276726e+16,35956846220.23654,196848018801.24683,11023890348861.447,168876206442735.0
1.729341691620648,6291046131776036.0,2.747836195847303e+16,6562295475451817.0,1.4420519932347928e+16,40712260465.07474,222882616795.08768,12485354348322.766,191751469671666.25
1.863928525453061,6531311152873075.0,2.8545876435870228e+16,6812919938736316.0,1.4971262439094424e+16,45758198954.94837,250507783032.04285,14036224366489.512,216050414817935.44
2.001207095962122,6767179100779185.0,2.959586986412749e+16,7058957741320174.0,1.5511925844696888e+16,51100128027.89319,279753443162.55334,15678174875824.334,241798148884213.62
2.1412312378813647,6999158468135717.0,3.0630576385656956e+16,7300939300395174.0,1.6043675731016546e+16,56744031495.857315,310652356042.9378,17413040184085.855,269022449537885.6
2.284055862638992,7227686442442017.0,3.1651923604489628e+16,7539320653564020.0,1.6567514232143612e+16,62696371049.29779,343239896924.07605,19242802087838.668,297753537984174.7
2.4297369798917723,7453142144050847.0,3.2661589794312624e+16,7774497267615437.0,1.708431037892811e+16,68964056114.93317,377553892402.5604,21169580473959.86,328023905295743.75
2.578331719489608,7675856871610216.0,3.3661048175577852e+16,8006814725716474.0,1.7594823583888838e+16,75554420906.70561,413634494759.115,23195626162222.14,359868179284450.7
2.7298983538794,7896122140429868.0,3.465160165719673e+16,8236577112367430.0,1.8099722066997336e+16,82475207043.3754,451524086777.4872,25323315480712.12,393323022627571.0
2.884496320956988,8114196066948528.0,3.563441043385436e+16,8464053673146692.0,1.859959749034412e+16,89734550541.06012,491267210518.4332,27555146202078.527,428427055451911.6
3.0421862473761276,8330308495944168.0,3.661051415319255e+16,8689484162989681.0,1.909497671088277e+16,97340972293.72945,532910515191.91235,29893734563945.65,465220797324522.75
3.2030299723236504,8544665159536579.0,3.758084990197005e+16,8913083184514208.0,1.958633131381931e+16,105303371372.0232,576502720460.8276,32341813164774.773,503746624843303.06
3.3670905717701234,8757451081740012.0,3.8546266934846424e+16,9135043739366324.0,2.0074085416628836e+16,113631020628.37889,622094592372.7285,34902229575682.41,544048741922548.2
3.5344323832055258,8968833388771347.0,3.950753883796875e+16,9355540159699926.0,2.0558622110927212e+16,122333564212.43773,669738929750.9648,37577945544922.664,586173160531367.2
3.7051210308696363,9178963646660486.0,4.046537365246018e+16,9574730546577312.0,2.1040288820811052e+16,131421016687.20288,719490559350.5,40372036698719.24,630167690136550.8
3.879223451487029,9387979819419854.0,4.142042236065795e+16,9792758812568532.0,2.1519401791431468e+16,140903763501.74524,771406338441.1896,43287692662492.914,676081934473666.2
4.0568079205167695,9596007920068044.0,4.2373286047371896e+16,1.0009756403961912e+16,2.1996249873519732e+16,150792562626.11932,825545163754.4941,46328217542065.33,723967294553753.2
4.237944078927105,9803163411090992.0,4.3324521980545816e+16,1.022584376160849e+16,2.24710977335654e+16,161098547192.64786,881967985940.2671,49497030716406.58,773876977031421.4
4.422702960505647,1.0009552399020176e+16,4.4274648804281464e+16,1.0441131567006592e+16,2.2944188592064092e+16,171833229017.6979,940737828844.4332,52797667902820.28,825866007229941.4
4.61115701971576,1.0215272658700704e+16,4.52241509978391e+16,1.0655721810732952e+16,2.341574657137466e+16,183008502901.64713,1001919813047.3647,56233782462793.9,879991246252029.8
4.803380160110075,1.0420414515788396e+16,4.61734827238518e+16,1.0869708712990306e+16,2.3885978718605464e+16,194636651623.39044,1065581183205.002,59809146922546.695,936311411710295.4
4.9994477633122765,1.0625061610538554e+16,4.712307116533245e+16,1.108317952032817e+16,2.4355076756393184e+16,206730351560.6655,1131791338816.3853,63527654686943.18,994887101695229.6
5.199436718578522,1.0829291561647388e+16,4.807331943247625e+16,1.129621519810696e+16,2.482321860457992e+16,219302678879.44638,1200621868106.9146,67393321929168.61,1055780821665860.6
5.403425452950093,1.1033176545505714e+16,4.902460910557376e+16,1.15088910347273e+16,2.529056970799553e+16,232367116245.37167,1272146584769.7615,71410289641575.66,1119057014002620.0
5.611493962009095,1.1236783803513784e+16,4.9977302468640984e+16,1.1721277170818508e+16,2.5757284199339656e+16,245937560018.06976,1346441567351.2112,75582825835572.64,1184782090006161.0
5.823723841249277,1.1440176087932272e+16,5.093174447899131e+16,1.1933439064313248e+16,2.6223505921174384e+16,260028327895.7226,1423585201101.0823,79915327880430.73,1253024464162019.8
6.040198318074262,1.164341205499022e+16,5.1888264510395944e+16,1.2145437900505108e+16,2.6689369327018156e+16,274654166982.54535,1503658222138.5867,84412324972547.52,1323854590520784.5
6.261002284435747,1.1846546612546678e+16,5.284717790133454e+16,1.2357330954700136e+16,2.7155000278265588e+16,289830262256.2588,1586743763808.241,89078480728075.73,1397345001067968.0
6.486222330124463,1.2049631228439256e+16,5.380878733481536e+16,1.2569171913860514e+16,2.7620516750993732e+16,305572245416.31616,1672927405120.356,93918595892962.81,1473570345978315.2
6.715946776726952,1.225271420469984e+16,5.477338407212677e+16,1.2781011162643406e+16,2.808602946452661e+16,321896204096.6955,1762297221187.5786,98937611165401.55,1552607435666214.5
6.950265712261491,1.2455840922028718e+16,5.574124905948372e+16,1.2992896038416268e+16,2.8551642441826916e+16,338818691429.6347,1854943835582.8445,104140610126489.08,1634535284558306.8
7.18927102650672,1.2659054058267926e+16,5.671265392371642e+16,1.3204871059149734e+16,2.901745351028635e+16,356356735948.8459,1950960474556.0098,109532822275560.22,1719435156526370.2
7.433056447036854,1.2862393784069452e+16,5.7687861870805176e+16,1.3416978127522576e+16,2.9483554750242344e+16,374527851822.55963,2050443023056.3179,115119626167229.61,1807390611928730.8
7.681717575977592,1.3065897938501114e+16,5.866712849910421e+16,1.3629256714099244e+16,2.9950032897507068e+16,393350049408.2844,2153490082516.2744,120906552647651.72,1898487556217179.2
7.935351927497144,1.3269602186950872e+16,5.965070253745151e+16,1.3841744022042244e+16,3.0416969705320324e+16,412841846122.46387,2260203030359.6416,126899288187917.55,1992814290073603.5
8.194058966047088,1.3473540163368758e+16,6.0638826516975176e+16,1.4054475135487194e+16,3.0884442270400692e+16,433022277619.3154,2370686081202.2285,133103678312844.16,2090461561046933.0
8.45794014536803,1.367774359861378e+16,6.1631737384232696e+16,1.4267483153423766e+16,3.1352523327146116e+16,453910909274.0707,2485046349719.3174,139525731123712.75,2191522616666341.2
8.72709894827539,1.3882242436442196e+16,6.2629667062320664e+16,1.4480799310684744e+16,3.18212815135056e+16,475527847966.6179,2603393915157.8794,146171620913752.0,2296093259011217.0
9.0016409272409,1.4087064938476304e+16,6.363284296574841e+16,1.4694453087440876e+16,3.229078161159173e+16,497893754162.2338,2725841887475.3726,153047691875379.3,2404271900722479.0
9.281673745785717,1.429223777932485e+16,6.464148847413732e+16,1.4908472308422678e+16,3.2761084765718904e+16,521029854286.6364,2852506475090.0547,160160461898385.0,2516159622443140.5
9.567307220701432,1.4497786132882298e+16,6.565582336918827e+16,1.5122883232940346e+16,3.323224868022047e+16,544957953393.0795,2983507054230.312,167516626458404.3,2631860231679077.5
9.85865336511546,1.47037337507089e+16,6.6676064238823496e+16,1.5337710636643588e+16,3.3704327799114436e+16,569700448119.6124,3118966239872.705,175123062595138.56,2751480323073437.0
10.155826432417769,1.491010303328769e+16,6.77024248519473e+16,1.555297788585083e+16,3.417737346944033e+16,595280339934.9376,3259009958260.2427,182986832979902.0,2875129340090359.0
10.458942961066125,1.511691509486096e+16,6.8735116506869576e+16,1.5768707005181386e+16,3.465143408987983e+16,621721248671.6016,3403767520993.8955,191115190072151.53,3002919638105600.5
10.768121820287448,1.532418982246899e+16,6.977434835609053e+16,1.5984918739139584e+16,3.512655524608681e+16,649047426345.441,3553371700691.514,199515580364737.84,3134966548903333.0
11.083484256693197,1.5531945929743554e+16,7.0820327709842696e+16,1.6201632608227778e+16,3.5602779833994444e+16,677283771260.4164,3707958808209.369,208195648717663.28,3271388446579757.5
11.405153941827061,1.5740201005948112e+16,7.187326032052518e+16,1.6418866960100944e+16,3.6080148172226664e+16,706455842398.0643,3867668771422.21,217163242780189.84,3412306814855426.0
11.733257020663602,1.5948971560703072e+16,7.293335064993246e+16,1.6636639016220382e+16,3.655869810461893e+16,736589874090.9277,4032645215558.215,226426417501164.9,3557846315799285.5
12.067922161076874,1.6158273064788324e+16,7.400080212098224e+16,1.6854964914415574e+16,3.703846509374663e+16,767712790979.3577,4203035545085.6743,235993439727465.97,3708134859968279.0
12.409280604298411,1.636811998737383e+16,7.507581735546834e+16,1.707385974771987e+16,3.7519482306266584e+16,799852223251.1658,4378991027148.437,245872792890475.25,3863303677967210.5
12.75746621638438,1.6578525829993566e+16,7.61585983992094e+16,1.7293337599809512e+16,3.800178069079296e+16,833036522163.5356,4560666876547.081,256073181780508.75,4023487393434095.5
13.112615540712067,1.6789503157546178e+16,7.724934693582894e+16,1.7513411577340724e+16,3.8485389048957896e+16,867294775846.6964,4748222342262.86,266603537409118.4,4188824097456982.0
13.474867851526309,1.7001063626577562e+16,7.834826449027998e+16,1.7734093839451866e+16,3.89703341002419e+16,902656825388.7084,4941820795521.17,277473021959189.47,4359455424428431.0
13.844365208556836,1.7213218011076442e+16,7.945555262311853e+16,1.7955395624671224e+16,3.945664054110298e+16,939153281200.7496,5141629819390.985,288691033822733.25,4535526629344499.0
14.221252512727972,1.742597622599126e+16,8.05714131164431e+16,1.8177327275447864e+16,3.9944331098883144e+16,976815539662.1626,5347821299916.361,300267212726270.56,4717186666555061.0
14.605677562982532,1.7639347348657946e+16,8.169604815232216e+16,1.8399898260503356e+16,4.0433426580925576e+16,1015675800044.4541,5560571518775.599,312211444943655.9,4904588269972808.0
14.997791114242183,1.785333963831058e+16,8.282966048446534e+16,1.862311719518345e+16,4.09239459192976e+16,1055767081713.3114,5780061247462.865,324533868596204.44,5097888034748306.0
15.397746936527026,1.8067960553831236e+16,8.397245360382523e+16,1.8846991859973588e+16,4.141590621147749e+16,1097123241607.6055,6006475842986.88,337244879039903.75,5297246500418488.0
15.805701875257567,1.8283216769882316e+16,8.512463189875557e+16,1.907152921732655e+16,4.190932275733379e+16,1139778991994.1829,6240005345079.876,350355134339495.2,5502828235536279.0
16.221815912762718,1.8499114191551744e+16,8.628640081029726e+16,1.929673542693919e+16,4.2404209092694936e+16,1183769918497.1313,6480844574909.872,363875560829155.94,5714801923788862.0
16.64625223101797,1.8715657967630596e+16,8.745796698312357e+16,1.952261585960254e+16,4.2900577019785224e+16,1229132498400.0122,6729193235287.984,377817358759459.3,5933340451612076.0
17.079177275638333,1.893285250263347e+16,8.863953841262242e+16,1.9749175109740484e+16,4.339843663477817e+16,1275904119219.4094,6985256012361.688,392192008030268.4,6158620997308428.0
17.5207608211511,1.9150701467662284e+16,8.983132458856459e+16,1.997641700674213e+16,4.389779635269861e+16,1324123097547.9482,7249242678784.036,407011274009148.25,6390825121676185.0
17.97117603757412,1.9369207810207044e+16,9.103353663576824e+16,2.0204344625184652e+16,4.439866292988873e+16,1373828698164.7275,7521368198347.762,422287213434830.6,6630138860156461.0
18.430599558325603,1.9588373762969484e+16,9.224638745213731e+16,2.043296029403802e+16,4.490104148423352e+16,1425061153410.9812,7801852832071.8955,438032180405233.5,6876752816505608.0
18.899211549492115,1.9808200851789716e+16,9.347009184443158e+16,2.066226560493306e+16,4.54049355133312e+16,1477861682828.4553,8090922245727.765,454258832449441.06,7130862257999663.0
19.37719578048196,2.0028689902749876e+16,9.470486666208915e+16,2.0892261419571376e+16,4.591034691077569e+16,1532272513057.9067,8388807618789.734,470980136683031.25,7392667212177294.0
19.864739696091597,2.0249841048523796e+16,9.595093092941163e+16,2.1122947876348924e+16,4.641727598071229e+16,1588336897994.8003,8695745754795.061,488209376046048.06,7662372565127810.0
20.36203449001343,2.0471653734037092e+16,9.720850597639363e+16,2.135432439626017e+16,4.692572145081121e+16,1646099139199.1418,9011979193095.773,505960155622862.3,7940188161330086.0
20.869275179813698,2.069412672149792e+16,9.847781556846314e+16,2.15863896881456e+16,4.743568048379973e+16,1705604606556.0417,9337756321984.516,524246409043100.6,8226328905048314.0
21.38666068340997,2.0917258094854908e+16,9.975908603538312e+16,2.181914175334206e+16,4.794714868768108e+16,1766899759183.5254,9673331493174.674,543082404962761.44,8521014863289977.0
21.91439389707817,2.1141045263735364e+16,1.0105254639954682e+17,2.2052577889790532e+16,4.846012012476116e+16,1830032166583.6978,10018965137614.229,562482753624551.06,8824471370331040.0
22.452681775019734,2.136548496691374e+16,1.0235842850389051e+17,2.22866946956545e+16,4.897458731959973e+16,1895050530033.2524,10374923882610.709,582462413496426.8,9136929133813386.0
23.00173541052013,2.1590573275357988e+16,1.0367696713962843e+17,2.2521488072497276e+16,4.949054126599281e+16,1962004704209.041,10741480670244.455,603036697987253.4,9458624342418578.0
23.561770118730532,2.1816305594898132e+16,1.0500840017401134e+17,2.275695322806592e+16,5.000797143309042e+16,2030945719044.1064,11118914877044.748,624221282238414.5,9789798775122318.0
24.133005521105144,2.204267666856031e+16,1.0635296867829179e+17,2.2993084678725776e+16,5.052686577074611e+16,2101925801809.476,11507512434903.227,646032209990148.1,1.0130699912032732e+16
24.715665631527248,2.2269680578606296e+16,1.0771091705607715e+17,2.32298762515879e+16,5.104721071419246e+16,2174998399416.6465,11907565953196.805,668485900521307.1,1.0481581046816574e+16
25.309978944157795,2.249731074831785e+16,1.0908249317223869e+17,2.3467321086370508e+16,5.156899118813101e+16,2250218200935.505,12319374842091.434,691599155661183.1,1.0842701400715146e+16
25.91617852304095,2.272555994356232e+16,1.1046794848253872e+17,2.370541163703213e+16,5.209219061032161e+16,2327641160322.2383,12743245436996.953,715389166871965.0,1.1214326238153424e+16
26.53450209350177,2.295442027417633e+16,1.1186753816413182e+17,2.39441396732145e+16,5.261679089475363e+16,2407324519351.457,13179491124141.58,739873522400325.0,1.1596726983943666e+16
27.165192135371807,2.318388319520056e+16,1.1328152124708818e+17,2.4183496281531228e+16,5.314277245447629e+16,2489326830746.6475,13628432467233.484,765070214496569.6,1.199018134208567e+16
27.808495978079243,2.3413939507999756e+16,1.1471016074708336e+17,2.442347186673555e+16,5.367011420416673e+16,2573707981502.773,14090397335176.254,790997646699759.1,1.2394973416164816e+16
28.464665897640828,2.364457936129975e+16,1.1615372379939171e+17,2.4664056152802544e+16,5.419879356250658e+16,2660529216394.699,14565721030803.115,817674641187056.6,1.2811393831348588e+16
29.133959215593645,2.3875792252172372e+16,1.1761248179431842e+17,2.4905238183955984e+16,5.472878645443968e+16,2749853161664.8457,15054746420594.424,845120446185632.2,1.3239739857982432e+16
29.816638399905518,2.4107567026998896e+16,1.1908671051419789e+17,2.514700632567384e+16,5.526006731338084e+16,2841743848883.449,15557824065341.572,873354743445271.4,1.3680315536784864e+16
30.51297116790363,2.4339891882441084e+16,1.2057669027208592e+17,2.5389348265700824e+16,5.579260908344169e+16,2936266738974.443,16075312351719.71,902397655769889.9,1.4133431805641702e+16
31.223230591261704,2.4572754366448788e+16,1.2208270605226478e+17,2.5632251015099784e+16,5.63263832217401e+16,3033488746400.002,16607577624731.111,932269754606035.8,1.4599406627998992e+16
31.947695203086937,2.4806141379332132e+16,1.2360504765268432e+17,2.587570090936967e+16,5.686135970085803e+16,3133478263496.538,17154994320979.438,962992067686461.6,1.507856512285347e+16
32.686649107148675,2.504003917492574e+16,1.2514400982945104e+17,2.6119683609660276e+16,5.739750701151049e+16,3236305184954.9575,17717945102736.086,994586086726816.5,1.5571239696340022e+16
33.44038208929165,2.5274433361871816e+16,1.2669989244348168e+17,2.6364184104110692e+16,5.793479216548642e+16,3342040932437.7383,18296820992757.543,1027073775173438.2,1.6077770174914146e+16
34.20918973107749,2.550930890504906e+16,1.282730006094303e+17,2.6609186709339564e+16,5.847318069892397e+16,3450758479325.5127,18892021509813.902,1060477576000258.4,1.6598503940128292e+16
34.993373525699035,2.574465012717271e+16,1.2986364484699917e+17,2.6854675072114452e+16,5.9012636675978824e+16,3562532375585.629,19503954804887.625,1094820419552777.8,1.7133796064999902e+16
35.793240996213015,2.5980440710592092e+16,1.3147214123474011e+17,2.7100632171226536e+16,5.955312269294391e+16,3677438772755.296,20133037798001.434,1130125731437074.2,1.768400945196979e+16
36.60910581613728,2.621666369931037e+16,1.3309881156645192e+17,2.7347040319597644e+16,6.009459988287938e+16,3795555449031.8755,20779696315636.0,1166417440451810.2,1.8249514972448224e+16
37.44128793246003,2.645330150125153e+16,1.3474398351027734e+17,2.7593881166645004e+16,6.063702792080924e+16,3916961834462.9824,21444365228695.242,1203719986561230.2,1.8830691607947204e+16
38.29011369110923,2.6690335890799244e+16,1.3640799077060072e+17,2.7841135700929656e+16,6.118036502954092e+16,4041739036229.072,22127488590981.566,1242058328907099.2,1.94279265927965e+16
