t(s),Total solute volume 1,Total retention volume 1,Total 1 volume 1,Total 2 volume 1,Total 3 volume 1,Total 4 volume 1,Total 5 volume 1,Total 6 volume 1
0.1,964857416365797.9,1154672529873703.2,88762465329957.31,101052648177948.16,0.0,0.0,0.0,0.0
0.202,1450650969373248.2,1741978852378061.2,133453248658550.48,151931384831336.4,8238028684.341301,16441784315.456953,252472857400.81906,5666096844524.991
0.30604000000000003,1818458485931617.2,2191250895988552.8,167289856543795.9,190453060126401.78,20859569605.20481,41632451403.55342,639292858971.0543,14347708506758.514
0.41216080000000005,2127680522183900.5,2572933981810322.5,195736868400716.62,222838887807932.7,36976449344.196434,73799395311.26143,1133239167587.951,25433688405529.54
0.5204040160000001,2400594997517612.0,2913397055664657.5,220843750848917.88,251422106753684.7,56184430725.43129,112135865900.09334,1721923432747.3472,38645956815070.65
0.6308120963200001,2648311819340521.0,3225773084257886.5,243632564516880.25,277366293645465.25,78258184065.67563,156192182030.2485,2398440467378.029,53829515921541.84
0.7434283382464002,2877291582252264.0,3517694831530747.5,264697654535005.2,301348087532492.56,103060748318.33864,205695031966.99207,3158593394674.656,70890158036026.02
0.8582969050113283,3091673461685406.5,3794053815675534.5,284419806096124.06,323800997696067.06,130506251822.06378,260473070786.21606,3999751124840.998,89768819750490.34
0.9754628431115548,3294292864097097.5,4058204872040591.5,303059863615188.25,345021985459420.1,160541496109.51328,320420165128.9003,4920283946090.268,110428913261555.39
1.094972099973786,3487189733439413.0,4312567074267918.0,320805492597874.6,365224700775004.5,193135722491.5038,385474969314.30133,5919249898903.547,132849286864930.36
1.2168715419732616,3671887805503452.5,4558953469388418.0,337796869761986.0,384568729438685.5,228274435452.47775,455608598116.59705,6996205481657.934,157019976169066.16
1.3412089728127268,3849559427165505.5,4798765461565443.0,354141845653651.5,403176855144527.3,265955438548.25314,530816715294.1469,8151084163860.224,182939477284058.28
1.4680331522689813,4021128443532150.5,5033114015380524.0,369925409793712.56,421145835189525.6,306186166796.82526,611114209682.8043,9384114633552.105,210612911855103.12
1.597393815314361,4187337387441970.5,5262898718558566.0,385215871804319.5,438553437448259.1,348981822687.4695,696531475165.5582,10695763673529.63,240050744892639.75
1.729341691620648,4348793015681584.5,5488861307607147.0,400069050532365.9,455463209528621.2,394364033338.9902,787111730762.4121,12086695009437.0,271267861091028.34
1.863928525453061,4505998144571075.0,5711623050613334.0,414531202777615.75,471927813016030.25,442359858437.68677,882909040815.0897,13557738908369.04,304282882440998.94
2.001207095962122,4659374503253176.0,5931711556421922.0,428641125690702.44,487991416972597.3,493001041761.773,983986821329.1794,15109869242803.65,339117653399552.0
2.1412312378813647,4809279516711486.0,6149580444673942.0,442431700733972.06,503691455677105.94,546323436405.8015,1090416692993.8783,16744185878040.799,375796845543927.0
2.284055862638992,4956018877525559.0,6365624067545153.0,455931050225413.4,519059945305731.3,602366556736.2194,1202277587138.6775,18461900943688.13,414347649400893.75
2.4297369798917723,5099856128428479.0,6580188722283799.0,469163418890079.4,534124487544404.94,661173224672.0673,1319655039951.1804,20264327996045.5,454799531160166.44
2.578331719489608,5241020079903537.0,6793581324429219.0,482149856245032.06,548909046457790.5,722789287414.313,1442640629299.1992,22152873370293.46,497184038535850.2
2.7298983538794,5379710631478791.0,7006076210352801.0,494908752131798.9,563434558172360.6,787263390145.4119,1571331521269.8025,24129029217475.367,541534644440964.9
2.884496320956988,5516103397041773.0,7217920539479234.0,507456262224142.56,577719415300626.6,854646791615.0574,1705830102308.2375,26194367855937.492,587886620162840.2
3.0421862473761276,5650353421128752.0,7429338633098140.0,519806649909673.44,591779856160163.2,924993213607.8716,1846243678986.3176,28350537161278.66,636276931845680.6
3.2030299723236504,5782598195255555.0,7640535495051759.0,531972563778467.25,605630280683743.0,998358717486.6786,1992684231816.4558,30599256786219.785,686744155598473.5
3.3670905717701234,5912960128872476.0,7851699695531651.0,543965264939610.25,619283509210452.1,1074801602599.35,2145268212709.6553,32942315050667.223,739328407643148.1
3.5344323832055258,6041548590784987.0,8063005753701950.0,555794814822565.1,632750996290315.1,1154382322511.144,2304116378018.482,35381566378219.8,794071286725331.2
3.7051210308696363,6168461608921390.0,8274616122037463.0,567470231548001.9,646043008706479.1,1237163415900.3357,2469353650854.3076,37918929182213.945,851015826612621.0
3.879223451487029,6293787295871129.0,8486682851260879.0,578999621070807.6,659168774776459.0,1323209449616.7864,2641109007689.0825,40556384124686.0,910206456960487.2
4.0568079205167695,6417605052461984.0,8699348996990545.0,590390287903676.0,672136610406697.4,1412586971908.8503,2819515385261.1777,43295972687128.23,971688971173889.9
4.237944078927105,6539986590284773.0,8912749815898257.0,601648829184694.4,684954026184890.9,1505364474214.5305,3004709604584.139,46139796003884.85,1035510500161193.0
4.422702960505647,6660996805469229.0,9127013789097954.0,612781215060732.2,697627818893362.6,1601612360217.278,3196832309465.228,49090013918368.66,1101719491086563.6
4.61115701971576,6780694529430614.0,9342263502780464.0,623792857752687.6,710164150137215.1,1701402921106.5376,3396027917418.7837,52148844229618.875,1170365690391793.2
4.803380160110075,6899133177223391.0,9558616410162180.0,634688671201061.4,722568614248490.8,1804810316173.172,3602444581238.724,55318562102553.23,1241500130489274.2
4.9994477633122765,7016361310177222.0,9776185494186226.0,645473122825888.2,734846297212887.2,1911910558022.0771,3816234159798.3438,58601499619922.99,1315175119632486.8
5.199436718578522,7132423126382644.0,9995079846782892.0,656150278649176.5,747001828039900.0,2022781501806.8047,4037552196890.1113,62000045457742.93,1391444234554731.5
5.403425452950093,7247358890132745.0,1.0215405177623126e+16,666723842801574.2,759039423739640.6,2137502837990.4485,4266557907116.378,65516644669007.414,1470362315535062.0
5.611493962009095,7361205309468148.0,1.0437264263013012e+16,677197192254792.6,770962928864370.2,2256156088218.325,4503414168004.645,69153798563001.445,1551985463606480.8
5.823723841249277,7473995869400268.0,1.0660757343743308e+16,687573407476595.2,782775850408026.2,2378824603954.737,4748287517653.607,72914064669560.47,1636371039667253.5
6.040198318074262,7585761127118390.0,1.0885982479229622e+16,697855299588517.8,794481388724233.9,2505593567591.4146,5001348157327.326,76800056779322.89,1723577665294228.0
6.261002284435747,7696528974456597.0,1.1113035864078992e+16,708045434511619.4,806082465015318.4,2636549995781.0156,5262769958505.61,80814445052432.28,1813665225088715.8
6.486222330124463,7806324872054738.0,1.1342012112239556e+16,718146154508215.6,817581745856730.5,2771782744787.665,5532730473976.31,84959956189320.23,1906694870411797.2
6.715946776726952,7915172058956659.0,1.1573004513086392e+16,728159597463964.9,828981665148974.6,2911382517678.749,5811410952619.188,89239373658195.36,2002729024388299.0
6.950265712261491,8023091740820153.0,1.180610526313467e+16,738087714202308.9,840284443829417.4,3055441873209.424,6098996357585.632,93655537974694.7,2101831388077312.0
7.18927102650672,8130103259438906.0,1.2041405676522436e+16,747932284079730.0,851492107626899.1,3204055236274.5635,6395675387624.858,98211347029873.53,2204066947723163.0
7.433056447036854,8236224245885069.0,1.2278996376948932e+16,757694929074154.9,862606503100828.1,3357318909822.6094,6701640501346.656,102909756463305.95,2309501983014371.5
7.681717575977592,8341470759250444.0,1.2518967473371646e+16,767377126548515.2,873629312172014.2,3515331088142.6577,7017087944244.677,107753780078598.3,2418204076289681.5
7.935351927497144,8445857412688645.0,1.2761408721447388e+16,776980220846052.1,884562065323468.9,3678191871450.874,7342217778333.157,112746490299051.92,2530242122640367.0
8.194058966047088,8549397488227183.0,1.3006409672429016e+16,786505433852493.8,895406153625036.4,3846003281714.6504,7677233914275.412,117891018661615.31,2645686340866691.0
8.45794014536803,8652103041620932.0,1.325405981100505e+16,795953874642099.6,906162839715052.8,4018869279664.1875,8022344145904.02,123190556347585.48,2764608285253814.0
8.72709894827539,8753984998350997.0,1.3504448683372682e+16,805326548309116.5,916833267854609.0,4196895782950.3203,8377760187051.979,128648354748816.33,2887080858139148.0
9.0016409272409,8855053241729843.0,1.3757666016671134e+16,814624364073046.8,927418473155094.8,4380190685415.9697,8743697710630.111,134267726068448.97,3013178323248663.5
9.281673745785717,8955316693951457.0,1.4013801830760928e+16,823848142734896.5,937919390066837.6,4568863877455.936,9120376389901.373,140052043955402.9,3142976319784968.5
9.567307220701432,9054783390820414.0,1.427294654321344e+16,832998623551896.0,948336860205721.9,4763027267445.701,9508019941914.71,146004744172054.5,3276551877253984.5
9.85865336511546,9153460550802928.0,1.4535191068271324e+16,842076470589894.0,958671639585141.0,4962794804226.194,9906856173073.168,152129325294717.0,3413983431021347.5
10.155826432417769,9251354638966220.0,1.4800626910451106e+16,851082278605469.8,968924405312544.8,5168282500636.045,10317117026820.193,158429349446678.7,3555350838592745.0
10.458942961066125,9348471426303394.0,1.5069346253380648e+16,860016578503574.9,979095761802770.5,5379608458087.078,10739038633437.457,164908443063693.78,3700735396615674.0
10.768121820287448,9444816044884448.0,1.5341442044398552e+16,868879842411150.4,989186246554150.8,5596892892183.302,11172861361955.22,171570297691944.2,3850219858602697.0
11.083484256693197,9540393039221156.0,1.5617008075382526e+16,877672488402474.5,999196335528136.4,5820258159386.624,11618829874183.195,178418670818598.38,4003888453378606.5
11.405153941827061,9635206414190712.0,1.5896139060224132e+16,886394884907911.5,1009126448168505.9,6049828784735.775,12077193180875.783,185457386735178.7,4161826904256203.0
11.733257020663602,9729259679823484.0,1.6178930709321674e+16,895047354834183.8,1018976952092109.0,6285731490627.707,12548204700051.69,192690337434046.84,4324122448947185.0
12.067922161076874,9822555893226058.0,1.6465479801425488e+16,903630179421098.1,1028748167479626.4,6528095226672.846,13032122317492.555,200121483538385.47,4490863860216161.5
12.409280604298411,9915097697881650.0,1.6755884253134154e+16,912143601857003.9,1038440371191613.5,6777051200638.497,13529208449448.918,207754855266119.22,4662141467287717.0
12.75746621638438,1.000688736054283e+16,1.705024318631167e+16,920587830672760.0,1048053800632412.9,7032732910495.628,14039730107587.135,215594553428278.84,4838047178017297.0
13.112615540712067,1.0097926805909342e+16,1.7348656993667694e+16,928963042931921.8,1057588657382046.8,7295276177586.611,14563958966213.098,223644750462378.28,5018674501838231.0
13.474867851526309,1.0188217649262132e+16,1.7651227402721346e+16,937269387232944.9,1067045110614112.4,7564819180933.029,15102171431811.762,231909691501391.03,5204118573498017.0
13.844365208556836,1.0277761227208312e+16,1.795805753834625e+16,945506986537548.2,1076423300315782.1,7841502492703.361,15654648714945.057,240393695478989.94,5394476177597963.0
14.221252512727972,1.036655862667401e+16,1.8269251984078652e+16,953675940837965.4,1085723340324345.2,8125469114862.167,16221676904552.164,249101156271718.56,5589845773951190.0
14.605677562982532,1.0454610712269712e+16,1.8584916842352308e+16,961776329674391.4,1094945321193227.5,8416864517023.073,16803547044698.268,258036543878819.72,5790327523774438.0
14.997791114242183,1.0541918152138418e+16,1.8905159793810324e+16,969808214512916.6,1104089312899194.9,8715836675528.669,17400555213820.375,267204405640450.3,5996023316729998.0
15.397746936527026,1.0628481442387248e+16,1.923009015583124e+16,977771640993124.1,1113155367401129.1,9022536113781.201,18013002606519.562,276609367495057.72,6207036798834364.0
15.805701875257567,1.0714300930192334e+16,1.9559818940394956e+16,985666641053615.0,1122143521059880.9,9337115943848.723,18641195617950.355,286256135276688.1,6423473401250683.0
16.221815912762718,1.0799376835658002e+16,1.9894458911404704e+16,993493234942980.4,1131053796927668.8,9659731909371.443,19285445930859.652,296149496053041.75,6645440369982755.0
16.64625223101797,1.0883709272504406e+16,2.0234124641569988e+16,1001251433122942.1,1139886206914743.0,9990542429793.863,19946070605327.32,306294319505071.9,6873046796487700.0
17.079177275638333,1.0967298267649132e+16,2.0578932568951256e+16,1008941238069791.0,1148640753840237.0,10329708645948.24,20623392171262.664,316695559348971.4,7106403649225940.0
17.5207608211511,1.1050143779743572e+16,2.0929001053254828e+16,1016562645979630.8,1157317433373546.5,10677394467015.207,21317738723710.055,327358254801342.7,7345623806165988.0
17.97117603757412,1.1132245716718462e+16,2.1284450431963964e+16,1024115648382508.1,1165916235871926.2,11033766618887.705,22029444021018.348,338287532088437.94,7590822088262737.0
18.430599558325603,1.1213603952388272e+16,2.1645403076384704e+16,1031600233669928.6,1174437148119527.5,11398994693963.895,22758847585927.965,349488606000250.5,7842115293926835.0
18.899211549492115,1.1294218342159916e+16,2.2011983447679096e+16,1039016388539975.6,1182880154972615.5,11773251202395.457,23506294809631.637,360966781490345.9,8099622234504160.0
19.37719578048196,1.1374088737886672e+16,2.238431815295439e+16,1046364099363819.2,1191245240915262.0,12156711624816.906,24272137058860.406,372727455322241.8,8363463770782749.0
19.864739696091597,1.145321500190554e+16,2.276253600147377e+16,1053643353477092.0,1199532391529545.8,12549554466581.512,25056731786052.574,384776117763177.7,8633762850545822.0
20.36203449001343,1.1531597020292872e+16,2.3146768061046864e+16,1060854140399325.1,1207741594883834.0,12951961313529.93,25860442642656.27,397118354326109.4,8910644547188545.0
20.869275179813698,1.1609234715369718e+16,2.353714771465885e+16,1067996452984412.1,1215872842842533.0,13364116889315.904,26683639595621.234,409759847560759.0,9194236099416422.0
21.38666068340997,1.1686128057487032e+16,2.3933810717390964e+16,1075070288504760.4,1223926132300357.8,13786209114315.0,27526699047131.707,422706378894510.0,9484666952042850.0
21.91439389707817,1.1762277076117608e+16,2.4336895253684164e+16,1082075649671722.2,1231901466344053.2,14218429166140.09,28390003957633.195,435963830523994.06,9782068797903078.0
22.452681775019734,1.1837681870280278e+16,2.4746541994993108e+16,1089012545594573.1,1239798855344149.8,14660971541788.383,29273943972205.297,449538187358132.25,1.0086575620901986e+16
23.00173541052013,1.1912342618320556e+16,2.5162894157877444e+16,1095880992680271.1,1247618317979311.2,15114034121443.654,30178915550330.414,463435539013451.1,1.0398323740212044e+16
23.561770118730532,1.198625958706914e+16,2.558609756257477e+16,1102681015476012.0,1255359882195550.5,15577818233956.66,31105322099109.926,477662081862414.2,1.071745185563858e+16
24.133005521105144,1.2059433140399952e+16,2.6016300692096388e+16,1109412647456523.9,1263023586102523.2,16052528724027.383,32053574109976.918,492224121135569.1,1.104410109416779e+16
24.715665631527248,1.2131863747207044e+16,2.645365475188658e+16,1116075931757900.4,1270609478808989.2,16538374021110.66,33024089298953.836,507128073078239.7,1.1378415057714366e+16
25.309978944157795,1.2203551988819214e+16,2.689831373008478e+16,1122670921859724.8,1278117621199357.5,17035566210067.477,34017292750502.867,522380467162504.44,1.1720539872083364e+16
25.91617852304095,1.2274498565870394e+16,2.735043445842708e+16,1129197682217098.0,1285548086653262.0,17544321103583.535,35033617065016.992,537987948355197.25,1.207062423716255e+16
26.53450209350177,1.2344704304642566e+16,2.7810176673824348e+16,1135656288844170.8,1292900961709853.2,18064858316375.16,36073502509995.8,553957279442621.94,1.2428819478358754e+16
27.165192135371807,1.2414170162898066e+16,2.8277703080650716e+16,1142046829850689.5,1300176346678654.2,18597401341203.504,37137397174953.0,570295343412704.2,1.2795279599294456e+16
27.808495978079243,1.2482897235216848e+16,2.8753179413777704e+16,1148369405932990.5,1307374356198536.8,19142177626716.527,38225757130099.23,587009145895246.4,1.3170161335777244e+16
28.464665897640828,1.2550886757854362e+16,2.9236774502385692e+16,1154624130820896.2,1314495119746501.5,19699418657137.582,39339046588842.6,604105817660944.1,1.355362421105702e+16
29.133959215593645,1.2618140113134628e+16,2.9728660334586012e+16,1160811131681891.2,1321538782097803.8,20269360033819.87,40477738074150.58,621592617179866.5,1.394583059238382e+16
29.816638399905518,1.2684658833393708e+16,3.0229012122883624e+16,1166930549483862.5,1328505503738918.0,20852241558684.473,41642312588814.484,639476933239990.9,1.434694574887968e+16
30.51297116790363,1.2750444604487284e+16,3.073800837051301e+16,1172982539317812.2,1335395461234956.8,21448307319559.145,42833259789656.07,657766287626444.8,1.4757137910737282e+16
31.223230591261704,1.2815499268877074e+16,3.1255830938674824e+16,1178967270681768.2,1342208847552874.8,22057805777435.812,44051078165717.36,676468337862094.1,1.5176578329757878e+16
31.947695203086937,1.2879824828309218e+16,3.1782665114704816e+16,1184884927727208.8,1348945872341992.8,22680989855662.332,45296275220473.26,695590880010036.1,1.5605441341240258e+16
32.686649107148675,1.294342344609883e+16,3.2318699681202464e+16,1190735709469206.0,1355606762173298.8,23318117031085.16,46569367658102.66,715141851538632.2,1.6043904427233294e+16
33.44038208929165,1.3006297449034204e+16,3.2864126986148224e+16,1196519829961634.8,1362191760738842.2,23969449427157.977,47870881573857.9,735129334249659.5,1.6492148281162884e+16
34.20918973107749,1.3068449328913926e+16,3.3419143014037612e+16,1202237518438528.0,1368701129012732.2,24635253909031.844,49201352648569.29,755561557270115.6,1.6950356873844732e+16
34.993373525699035,1.3129881743729832e+16,3.398394745805845e+16,1207889019422980.0,1375135145375056.0,25315802180641.04,50561326347319.34,776446900108298.2,1.7418717520894368e+16
35.793240996213015,1.319059751851028e+16,3.455874379334008e+16,1213474592804648.8,1381494105700147.8,26011370883798.9,51951358122323.99,797793895774676.9,1.7897420951544224e+16
36.60910581613728,1.3250599645834902e+16,3.5143739351299144e+16,1218994513887153.8,1387778323410567.8,26722241699317.66,53372013620055.61,819611233968102.1,1.8386661378879064e+16
37.44128793246003,1.3309891286036014e+16,3.5739145395110844e+16,1224449073406596.0,1393988129498123.2,27448701450165.055,54823868892640.68,841907764327925.2,1.8886636571499372e+16
38.29011369110923,1.3368475767097694e+16,3.6345177196329384e+16,1229838577522257.0,1400123872513360.8,28191042206671.844,56307510613569.99,864692499752532.5,1.939754792662327e+16
39.15591596493141,1.3426356584266984e+16,3.696205411268503e+16,1235163347780867.0,1406185918524814.2,28949561393801.438,57823536297750.87,887974619784813.8,1.9919600544636036e+16
40.03903428423004,1.348353739938912e+16,3.758999966708301e+16,1240423721055409.2,1412174651049379.0,29724561900495.26,59372554525938.45,911763474065145.1,2.0453003305097436e+16
40.93981496991464,1.3540022039979974e+16,3.822924162782859e+16,1245620049459820.5,1418090470955184.8,30516352191105.31,60955185173577.766,936068585852334.2,2.0997968944216716e+16
41.85861126931294,1.359581449804807e+16,3.888001209010576e+16,1250752700240599.8,1423933796338206.8,31325246418925.75,62572059644088.805,960899655613105.9,2.1554714133802788e+16
42.7957834946992,1.3650918928679236e+16,3.954254755873059e+16,1255822055646618.8,1429705062374035.8,32151564541835.055,64223821106630.23,986266564680603.4,2.2123459561701476e+16
43.751699164593184,1.370533964839614e+16,4.0217089032207976e+16,1260828512778190.8,1435404721146066.2,32995632440060.31,65911124738371.08,1012179378982440.9,2.2704430013726664e+16
