t(s),Total solute volume 1,Total retention volume 1,Total 1 volume 1,Total 2 volume 1,Total 3 volume 1,Total 4 volume 1,Total 5 volume 1,Total 6 volume 1
0.1,1360095892163908.8,3176178273173015.0,653029631800972.5,1163052749208134.2,0.0,0.0,0.0,-4.1755110825714755e-98
0.202,2039828168130671.8,4765464178951566.0,979392937500917.2,1744309743617811.5,320755558.96328384,1273931345.7236788,53807746538.88815,1877927268719.7046
0.30604000000000003,2559319124458253.5,5981655748927175.0,1228818744602066.2,2188539943871462.8,812931429.2248163,3228762752.1827564,136567822025.56726,4837326479181.451
0.41216080000000005,2998777217206465.0,7011824289865847.0,1439817967793587.0,2564331940785492.5,1443103513.4348083,5731705910.749208,242574573204.46085,8647414697672.871
0.5204040160000001,3388882430928352.5,7927516019188802.0,1627121144380254.2,2897921005354509.0,2196317155.7783604,8723358607.618113,369299937360.2021,13211218912558.473
0.6308120963200001,3744992731661196.0,8764543400970938.0,1798102172287239.0,3202440137138024.0,3064503603.6670027,12171671349.376724,515382196856.366,18477741512672.04
0.7434283382464002,4076051477098499.5,9543761537969168.0,1957055070954986.8,3485537034512227.5,4043009298.1375117,16058160123.64839,680036409405.8402,24417817824626.66
0.8582969050113283,4387793478603849.5,1.0278545559119944e+16,2106733324248569.8,3752115683787524.5,5129166740.583748,20372229599.858196,862812672241.763,31014758411420.625
0.9754628431115548,4684150510487552.0,1.0978068232313354e+16,2249024714754810.5,4005538247240185.5,6321589509.179775,25108372868.792095,1063477069317.2078,38259852799111.82
1.094972099973786,4967954230537894.0,1.1648938938280872e+16,2385288820571015.0,4248226148875654.5,7619781464.324708,30264619191.18969,1281945731420.8691,46149908164225.13
1.2168715419732616,5241322570392661.0,1.2296104482239342e+16,2516542534864158.5,4481990486922483.5,9023901690.78585,35841600346.18901,1518245193784.1262,54685779364221.234
1.3412089728127268,5505887833665574.0,1.2923380801800058e+16,2643569583774172.0,4708227086481236.0,10534614352.475763,41841954256.55173,1772487082358.8523,63871434228103.27
1.4680331522689813,5762939082361309.0,1.3533784835935924e+16,2766988891120640.5,4928038257850733.0,12152988295.004353,48269926212.86275,2044851191158.883,73713330497571.47
1.597393815314361,6013515106715356.0,1.4129751191041188e+16,2887299216480013.5,5142312297452933.0,13880427483.641367,55131092575.86835,2335573759077.014,84219985113742.2
1.729341691620648,6258467417719741.0,1.4713278929991332e+16,3004909400103967.5,5351777354376602.0,15718621443.883589,62432163928.79369,2644939118781.9688,95401667886871.88
1.863928525453061,6498504272729030.0,1.5286034154412956e+16,3120159501155117.0,5557039077814852.0,17669509174.940147,70180841743.69107,2973273616512.9185,107270178746518.6
2.001207095962122,6734222267443598.0,1.5849423610827718e+16,3233335966124799.0,5758607632189114.0,19735252430.581924,78385712254.59943,3320941110553.1616,119838682994964.75
2.1412312378813647,6966129526539143.0,1.6404648719983488e+16,3344682763466650.0,5956917528057301.0,21918215692.66993,87056166913.71805,3688339597494.439,133121587940315.62
2.284055862638992,7194663066984829.0,1.6952746028979978e+16,3454409720333828.5,6152342469937024.0,24220951041.25216,96202342296.5005,4075898663553.1074,147134449767413.72
2.4297369798917723,7420202025993883.0,1.7494618029435822e+16,3562698873781422.0,6345206667868714.0,26646186683.14014,105835074538.02295,4484077552278.951,161893902978299.4
2.578331719489608,7643077894599701.0,1.8031057000662224e+16,3669709384264816.5,6535793588411571.0,29196818265.845875,115965864832.63847,4913363701521.818,177417607001524.2
2.7298983538794,7863582543919396.0,1.85627637118472e+16,3775581389329906.0,6724352818109291.0,31875902348.683258,126606853501.75145,5364271643803.078,193724206088934.8
2.884496320956988,8081974598069678.0,1.909036227398342e+16,3880439063473256.0,6911105513135434.0,34686651570.96939,137770800802.3623,5837342192575.651,210833299660104.62
3.0421862473761276,8298484550737081.0,1.9614412066473144e+16,3984393074786696.0,7096248774605003.0,37632431175.03658,149471073116.82935,6333141856703.838,228765420983382.53
3.2030299723236504,8513318914580807.0,2.013541741207954e+16,4087542577230867.5,7279959196836252.0,40716756625.773254,161721633497.96707,6852262439650.222,247542022601838.78
3.3670905717701234,8726663617232800.0,2.0653835498171548e+16,4189976841173925.5,7462395771358199.0,43943292129.31933,174537035785.52585,7395320790119.699,267185467288584.53
3.5344323832055258,8938686804047120.0,2.117008291729346e+16,4291776599089585.0,7643702283614157.0,47315849898.359535,187932421688.1048,7962958678462.162,287719023592551.25
3.7051210308696363,9149541169063090.0,2.1684541109957056e+16,4393015164734212.0,7824009306228628.0,50838390044.88212,201923520357.31555,8555842778766.511,309166865241979.25
3.879223451487029,9359365907348252.0,2.2197560926629948e+16,4493759370535047.5,8003435868506267.0,54515021006.51012,216526650081.262,9174664740831.088,331554073828436.7
4.0568079205167695,9568288360925348.0,2.270946647706393e+16,4594070357857384.0,8182090863906613.0,58350000431.78512,231758721800.94547,9820141339442.06,354906644312927.4
4.237944078927105,9776425414780616.0,2.322055839852352e+16,4694004247277108.0,8360074243806959.0,62347736464.65426,247637244212.28442,10493014690896.93,379251492987244.8
4.422702960505647,9983884687555452.0,2.3731116646765604e+16,4793612710273313.0,8537478035693475.0,66512789379.99905,264180330262.44934,11194052528662.182,404616467595049.06
4.61115701971576,1.0190765552423108e+16,2.4241402892432896e+16,4892943459387153.0,8714387216139429.0,70849873531.15501,281406704885.40826,11924048531588.43,431030359373194.56
4.803380160110075,1.0397160016628406e+16,2.4751662589161268e+16,4992040670519545.0,8890880462922266.0,75363859577.58862,299335713850.244,12683822699322.9,458522916818276.4
4.9994477633122765,1.0603153482697698e+16,2.5262126766966292e+16,5090945348414758.0,9067030805953910.0,80059776966.66887,317987333618.7236,13474221770530.379,487124861018804.56
5.199436718578522,1.0808825410032512e+16,2.577301359447494e+16,5189695644314675.0,9242906193026652.0,84942816648.11078,337382182127.0283,14296119680316.021,516867902422007.4
5.403425452950093,1.1014249892204358e+16,2.6284529745661164e+16,5288327133138299.0,9418569983472900.0,90018334003.42667,357541530421.4974,15150418053875.824,547784758927322.1
5.611493962009095,1.1219496162563118e+16,2.679687160044751e+16,5386873056242003.0,9594081380523878.0,95291851975.7886,378487315090.3838,16038046733918.072,579909175217523.0
5.823723841249277,1.1424629038601994e+16,2.731022630348393e+16,5485364534774712.0,9769495811297700.0,100769064388.21506,400242151443.64996,16959964339821.098,613275943253871.8
6.040198318074262,1.162970931377174e+16,2.7824772701341296e+16,5583830757801659.0,9944865261849802.0,106455839440.07234,422829347401.00934,17917158856842.867,647920923874412.9
6.261002284435747,1.1834794104016366e+16,2.834068217504982e+16,5682299148688283.0,1.012023857350463e+16,112358223373.59264,446272918055.287,18910648253986.254,683881069445113.9
6.486222330124463,1.2039937155142376e+16,2.885811938221323e+16,5780795512679028.0,1.0295661705694944e+16,118482444303.54729,470597600883.8274,19941481129366.062,721194447522328.9
6.715946776726952,1.2245189116182094e+16,2.937724292071495e+16,5879344168148534.0,1.0471177969721934e+16,124834916204.40642,495828871585.4391,21010737382123.87,759900265492465.8
6.950265712261491,1.24505977831266e+16,2.9898205924205204e+16,5977968063626479.0,1.0646828237177552e+16,131422243050.32182,521992960524.3678,22119528910108.074,800038896160893.6
7.18927102650672,1.2656208316753072e+16,3.0421156598044336e+16,6076688882384069.0,1.082265112621436e+16,138251223104.12177,549116869766.12994,23269000332676.797,841651904267335.6
7.433056447036854,1.286206343773037e+16,3.0946238703118236e+16,6175527136111043.0,1.099868316838516e+16,145328853352.2148,577228390692.9224,24460329738105.08,884782073909482.8
7.681717575977592,1.3068203601733028e+16,3.1473591993886404e+16,6274502248993974.0,1.1174958958387742e+16,152662334082.9168,606356122188.7068,25694729455177.17,929473436860232.2
7.935351927497144,1.3274667156913882e+16,3.2003352616141028e+16,6373632633324630.0,1.135151128872371e+16,160259073606.23,636529489386.1443,26973446848635.09,975771301767202.9
8.194058966047088,1.3481490485766318e+16,3.253565346920772e+16,6472935757612707.0,1.1528371271008456e+16,168126693113.53976,667778762969.3054,28297765138225.754,1023722284225920.6
8.45794014536803,1.3688708133133564e+16,3.3070624536688908e+16,6572428208047739.0,1.1705568445435404e+16,176273031676.0777,700135079027.5637,29669004241155.64,1073374337720357.0
8.72709894827539,1.3896352921894742e+16,3.3608393189315924e+16,6672125744044008.0,1.1883130879701978e+16,184706151381.3204,733630459457.3757,31088521637813.777,1124776785426540.5
9.0016409272409,1.4104456057659608e+16,3.414908446301767e+16,6772043348508202.0,1.206108525853701e+16,193434342606.76508,768297832909.748,32557713260671.656,1177980352876674.8
9.281673745785717,1.4313047223637286e+16,3.4692821314926108e+16,6872195273389018.0,1.2239456964825082e+16,202466129430.76422,804171056282.0972,34078014406307.863,1233037201482650.8
9.567307220701432,1.452215466669932e+16,3.5239724859701816e+16,6972595080999320.0,1.2418270153201598e+16,211810275180.29523,841284936754.0626,35650900670539.71,1290000962919117.5
9.85865336511546,1.4731805275535108e+16,3.5789914588278124e+16,7073255681541110.0,1.2597547816885408e+16,221475788115.72592,879675254367.436,37277888906671.86,1348926774367348.5
10.155826432417769,1.4942024651690194e+16,3.6343508570870616e+16,7174189367213542.0,1.2777311848425506e+16,231471927252.7601,919378785151.0354,38960538206898.75,1409871314622056.2
10.458942961066125,1.5152837174185778e+16,3.690062364588771e+16,7275407843239059.0,1.2957583094958732e+16,241808208321.8967,960433324791.7721,40700450906914.61,1472892841064125.2
10.768121820287448,1.5364266058337792e+16,3.746137559618936e+16,7376922256104488.0,1.3138381408507708e+16,252494409865.8166,1002877712853.6012,42499273613807.53,1538051227502809.8
11.083484256693197,1.5576333409324906e+16,3.802587931397966e+16,7478743219280782.0,1.3319725691787996e+16,263540579475.21094,1046751857546.3713,44358698257323.48,1605408002891618.0
11.405153941827061,1.5789060270992842e+16,3.859424895547907e+16,7580880836655909.0,1.3501633939942074e+16,274957040163.62714,1092096761046.8837,46280463164600.48,1675026390922471.5
11.733257020663602,1.6002466670330922e+16,3.9166598086396536e+16,7683344723889417.0,1.3684123278572372e+16,286754396881.96655,1138954545374.6743,48266354158482.49,1746971350503107.5
12.067922161076874,1.6216571658009404e+16,3.974303981911556e+16,7786144027875880.0,1.3867209998405682e+16,298943543173.3163,1187368478825.2288,50318205679531.14,1821309617123073.0
12.409280604298411,1.643139334532551e+16,4.03236869424128e+16,7889287444483990.0,1.405090958688678e+16,311535667968.82306,1237383002963.4146,52437901931854.4,1898109745113768.2
12.75746621638438,1.6646948937870788e+16,4.090865204444455e+16,7992783234721522.0,1.4235236756968388e+16,324542262525.3318,1289043760180.1052,54627378052880.77,1977442150808265.5
13.112615540712067,1.6863254766200656e+16,4.1498047629661624e+16,8096639239460632.0,1.442020547333707e+16,337975127505.5577,1342397621814.8762,56888621307207.05,2059379156606703.5
13.474867851526309,1.7080326313758472e+16,4.209198623025094e+16,8200862892845430.0,1.460582897629227e+16,351846380201.5177,1397492716847.8682,59223672304647.125,2143995035953068.8
13.844365208556836,1.72981782422832e+16,4.26905805126419e+16,8305461234490919.0,1.4792119803472826e+16,366168461901.9791,1454378461163.617,61634626242611.9,2231366059229284.0
14.221252512727972,1.7516824414906694e+16,4.329394337956588e+16,8410440920572926.0,1.4979089809608158e+16,380954145404.6562,1513105587389.9436,64123634172946.77,2321570540572397.0
14.605677562982532,1.7736277917128074e+16,4.390218806811259e+16,8515808233898544.0,1.516675018445391e+16,396216542673.8792,1573726175314.651,66692904293349.28,2414688885620673.5
14.997791114242183,1.7956551075834928e+16,4.451542824418453e+16,8621569093038899.0,1.5355111469057588e+16,411969112644.4199,1636293682882.8088,69344703263488.95,2510803640194137.5
15.397746936527026,1.817765547652621e+16,4.513377809371903e+16,8727729060598537.0,1.5544183570486174e+16,428225669172.14716,1700862977777.273,72081357545942.78,2609999539915208.0
15.805701875257567,1.8399601978877948e+16,4.5757352411009096e+16,8834293350688941.0,1.573397577513688e+16,445000389132.1333,1767490369584.9802,74905254772056.33,2712363560774537.0
16.221815912762718,1.8622400730780484e+16,4.638626668443302e+16,8941266835668423.0,1.592449676074067e+16,462307820664.8114,1836233642551.2524,77818845132832.2,2817984970647406.0
16.64625223101797,1.88460611809655e+16,4.702063717987087e+16,9048654052204722.0,1.6115754607160028e+16,480162891570.7162,1907152088924.4124,80824642794942.77,2926955381765207.0
17.079177275638333,1.9070592090330876e+16,4.7660581022066e+16,9156459206712486.0,1.6307756806073086e+16,498580917854.31757,1980306542892.5874,83925227341950.98,3039368804146907.5
17.5207608211511,1.9296001542063484e+16,4.830621627416998e+16,9264686180213638.0,1.6500510269629934e+16,517577612417.37,2055759415114.4956,87123245240820.3,3155321699994489.5
17.97117603757412,1.9522296950651372e+16,4.895766201568688e+16,9373338532664330.0,1.669402133815909e+16,537169093902.1847,2133574727845.7117,90421411333779.42,3274913039056540.0
18.430599558325603,1.974948506987012e+16,4.9615038419022104e+16,9482419506789584.0,1.6888295786996986e+16,557371895685.1263,2213818150661.7666,93822510355601.9,3398244354963416.5
18.899211549492115,1.9977571999822684e+16,5.0278466824819064e+16,9591932031463210.0,1.7083338832507682e+16,578202975020.6094,2296557036779.003,97329398476345.6,3525419802537293.5
19.37719578048196,2.0206563193104544e+16,5.094806981625961e+16,9701878724668148.0,1.7279155137355134e+16,599679722335.7698,2381860459974.06,100945004869589.6,3656546216079915.5
19.864739696091597,2.0436463460163244e+16,5.162397129248832e+16,9812261896069574.0,1.7475748815086034e+16,621819970675.9574,2469799252102.401,104672333306191.4,3791733168640473.5
20.36203449001343,2.0667276973914772e+16,5.230629654130947e+16,9923083549231464.0,1.7673123434077626e+16,644642005301.0481,2560446041216.0737,108514463773576.53,3931093032265531.0
20.869275179813698,2.0899007273676812e+16,5.299517231129953e+16,1.0034345383504986e+16,1.787128202090073e+16,668164573432.6171,2653875290280.623,112474554120559.3,4074741039232624.0
21.38666068340997,2.113165726847333e+16,5.369072688346176e+16,1.0146048795615416e+16,1.8070227063146164e+16,692406894151.789,2750163336490.7134,116555841727680.4,4222795344268567.0
21.91439389707817,2.1365229239764544e+16,5.439309014255124e+16,1.0258194880972514e+16,1.8269960511758584e+16,717388668447.6484,2849388431183.7256,120761645203034.05,4375377087752998.0
22.452681775019734,2.1599724843649356e+16,5.5102393648178776e+16,1.0370784434728342e+16,1.8470483782920504e+16,743130089415.884,2951630780350.236,125095366103541.3,4532610459907401.0
23.00173541052013,2.183514511258922e+16,5.58187707058085e+16,1.0483817952604618e+16,1.8671797759525656e+16,769651852607.3604,3056972585740.1064,129560490681619.17,4694622765969064.0
23.561770118730532,2.207149045669538e+16,5.654235643774634e+16,1.0597295631511112e+16,1.8873902792280444e+16,796975166526.1597,3165498086562.3037,134160591657171.69,4861544492349179.0
24.133005521105144,2.2308760664623148e+16,5.7273287854219784e+16,1.071121736997483e+16,1.907679870046836e+16,825121763276.5927,3277293601776.493,138899330014818.55,5033509373773563.0
24.715665631527248,2.2546954904113124e+16,5.801170392463797e+16,1.0825582768399716e+16,1.92804847724124e+16,854113909358.5359,3392447572974.002,143780456826270.66,5210654461404147.0
25.309978944157795,2.2786071722215996e+16,5.875774564911994e+16,1.094039112917494e+16,1.9484959765668184e+16,883974416610.4784,3511050607845.4385,148807815097732.94,5393120191938640.0
25.91617852304095,2.3026109045240224e+16,5.951155613037356e+16,1.1055641456649564e+16,1.969022190697856e+16,914726653299.4441,3633195524231.8794,153985341642212.9,5581050457685518.0
26.53450209350177,2.3267064178456148e+16,6.0273280646004504e+16,1.1171332456990432e+16,1.989626889202052e+16,946394555356.9595,3758977394756.239,159317068976591.88,5774592677610689.0
27.165192135371807,2.35089338055906e+16,6.10430667213288e+16,1.1287462537939734e+16,2.0103097884973636e+16,979002637760.1499,3888493592031.1963,164807127243310.72,5973897869351782.0
27.808495978079243,2.375171398814615e+16,6.182106420276368e+16,1.1404029808487858e+16,2.031070551793714e+16,1012576006056.9171,4021843834439.5356,170459746156492.75,6179120722195618.0
28.464665897640828,2.3995400164574964e+16,6.260742533186256e+16,1.152103207847703e+16,2.0519087890224136e+16,1047140368034.133,4159130232482.592,176279256972335.66,6390419671013647.0
29.133959215593645,2.4239987149340268e+16,6.340230482006385e+16,1.1638466858150334e+16,2.0728240567558604e+16,1082722045527.667,4300457335692.326,182270094483569.2,6607956971149809.0
29.816638399905518,2.4485469131893412e+16,6.420585992421449e+16,1.1756331357660966e+16,2.0938158581200892e+16,1119347986373.0146,4445932180101.783,188436799037776.66,6831898774254969.0
30.51297116790363,2.473183967559734e+16,6.501825052293237e+16,1.1874622486555134e+16,2.1148836427026948e+16,1157045776495.2222,4595664336269.224,194784018579366.53,7062415205060841.0
31.223230591261704,2.4979091716624316e+16,6.5839639193865304e+16,1.1993336853242744e+16,2.136026806458606e+16,1195843652136.7324,4749765957849.923,201316510714961.8,7299680439087244.0
31.947695203086937,2.5227217562856468e+16,6.667019129190588e+16,1.2112470764469698e+16,2.157244691616015e+16,1235770512221.7336,4908351830710.471,208039144801968.38,7543872781274609.0
32.686649107148675,2.5476208892815576e+16,6.7510075028416344e+16,1.2232020224803898e+16,2.1785365865849184e+16,1276855930855.4778,5071539422579.389,214956904060081.8,7795174745534181.0
33.44038208929165,2.572605675465005e+16,6.835946155152013e+16,1.2351980936149018e+16,2.199901725870442e+16,1319130169957.163,5239448933228.061,222074887705471.4,8053773135207929.0
34.20918973107749,2.5976751565204996e+16,6.921852502751042e+16,1.2472348297297856e+16,2.2213392899933784e+16,1362624192024.6226,5412203345175.824,229398313107378.38,8319859124429262.0
34.993373525699035,2.6228283109201708e+16,7.008744272343033e+16,1.2593117403538356e+16,2.242848405419922e+16,1407369673029.3958,5589928474912.654,236932517966865.16,8593628340376289.0
35.793240996213015,2.648064053855098e+16,7.09663950908711e+16,1.2714283046324066e+16,2.264428144503055e+16,1453399015440.4321,5772753024633.222,244682962517439.8,8875280946407934.0
36.60910581613728,2.6733812371827084e+16,7.185556585104136e+16,1.2835839713021534e+16,2.286077525437527e+16,1500745361374.8213,5960808634475.476,252655231747276.1,9165021726074328.0
37.44128793246003,2.698778649392629e+16,7.275514208115392e+16,1.2957781586746236e+16,2.3077955122306172e+16,1549442605873.8867,6154229935257.532,260855037642756.34,9463060167991296.0
38.29011369110923,2.7242550155934092e+16,7.36653143021767e+16,1.3080102546298942e+16,2.3295810146908396e+16,1599525410302.9854,6353154601705.849,269288221453056.12,9769610551570150.0
39.15591596493141,2.7498089975225764e+16,7.458627656799442e+16,1.3202796166213882e+16,2.3514328884364704e+16,1651029215873.3857,6557723406168.611,277960755975499.88,1.0084892033592518e+16
40.03903428423004,2.7754391935823748e+16,7.551822655602896e+16,1.3325855716930558e+16,2.3733499349261964e+16,1703990257284.5352,6768080272807.578,286878747861403.56,1.0409128735621078e+16
40.93981496991464,2.801144138903523e+16,7.64613656593575e+16,1.3449274165099532e+16,2.3953309015135588e+16,1758445576485.258,6984372332262.261,296048439942146.06,1.0742549832236366e+16
