t(s),Total solute volume 1,Total retention volume 1,Total 1 volume 1,Total 2 volume 1,Total 3 volume 1,Total 4 volume 1,Total 5 volume 1,Total 6 volume 1
0.1,1225891390677807.5,1918426285810987.5,281662698191601.44,410872196941578.9,0.0,0.0,0.0,0.0
0.202,1788675356749270.0,2951160145898564.5,410968817171092.3,599496033532644.9,57363797345.694984,167639582860.50873,4554052189012.549,147240882876338.84
0.30604000000000003,2180155359333112.2,3786563362049657.5,500915869320129.44,730705266994783.8,141233787533.7776,412743156341.9957,11213874027647.76,363019015430109.5
0.41216080000000005,2483216136323165.0,4533171143495548.0,570547583077744.4,832279732530437.6,243716941926.4708,712244053268.0212,19352123902758.414,626819606666246.1
0.5204040160000001,2730178663734843.5,5231043015497273.0,627290076138183.8,915052195204306.0,360864206361.3322,1054601852191.1763,28655147539796.65,928451466821578.5
0.6308120963200001,2937683231061896.5,5899786080486978.0,674966647208897.8,984599848287016.1,490257850095.6409,1432751270218.3455,38930938429259.695,1261682406379594.5
0.7434283382464002,3115671129122254.0,6550614253765550.0,715861422660869.4,1044254634911388.9,630265195417.2941,1841921248899.6018,50049841257958.07,1622305039368761.5
0.8582969050113283,3270656029430994.5,7190616536671026.0,751470993741826.1,1096199690358734.6,779719304945.9811,2278701798903.6963,61919188399299.61,2007312213636320.2
0.9754628431115548,3407181991315424.0,7824603554560735.0,782839410553429.6,1141958010705769.8,937755523275.9486,2740566314159.4995,74470317846386.92,2414475502302292.0
1.094972099973786,3528565813597806.0,8456019783042845.0,810728745924367.5,1182641260922921.5,1103717688213.9463,3225597487499.2036,87651124890542.23,2842103522531496.0
1.2168715419732616,3637312612308181.0,9087439060039802.0,835714579189201.0,1219089060741515.2,1277099904387.4111,3732317152888.609,101421438196098.1,3288891952547530.0
1.3412089728127268,3735365605736762.5,9720853687942032.0,858243387188623.6,1251952703116077.5,1457508255751.9778,4259574396433.815,115749979349790.39,3753824929898606.0
1.4680331522689813,3824264774519549.0,1.0357852810317736e+16,878668998256223.8,1281748331058263.5,1644634505743.84,4806468699606.874,130612274389502.53,4236107328888853.0
1.597393815314361,3905252184273984.5,1.0999737540467336e+16,897276791310169.0,1308892237783331.2,1838237403323.929,5372295309592.885,145989169327597.56,4735116625059330.0
1.729341691620648,3979344462789659.5,1.1647598076416244e+16,914300348324651.5,1333725158311094.2,2038129025251.6162,5956505327274.854,161865745601941.7,5250367727036384.0
1.863928525453061,4047384187265423.5,1.230236698721673e+16,929933261140942.9,1356529492515545.2,2244164570521.662,6558675883649.868,178230509661085.28,5781486696179584.0
2.001207095962122,4110077247364781.0,1.2964857024041756e+16,944337716060791.8,1377541827801535.5,2456234589766.0845,7178487432065.332,195074775907662.06,6328190734885172.0
2.1412312378813647,4168020601426443.5,1.3635788572800818e+16,957650871156265.6,1396962241932046.2,2674258973856.405,7815706181456.872,212392189338142.94,6890272703792600.0
2.284055862638992,4221723281788424.0,1.4315809989841714e+16,969989682485507.5,1414961343214776.0,2898182239709.723,8470170320475.29,230178351192589.25,7467588978600241.0
2.4297369798917723,4271622550055592.5,1.5005512935228046e+16,981454615951983.4,1431685685134046.0,3127969789615.628,9141779086591.27,248430521911450.72,8060049813298756.0
2.578331719489608,4318096499844270.0,1.5705444118622322e+16,992132542930566.5,1447261990311994.8,3363604912458.821,9830484003291.473,267147383006638.25,8667611613613103.0
2.7298983538794,4361474012628431.0,1.6416114426359578e+16,1002099027738164.0,1461800487329985.8,3605086358004.301,10536281791979.453,286328844440274.9,9290270686072740.0
2.884496320956988,4402042711338335.0,1.7138006106166626e+16,1011420155064829.2,1475397576472695.5,3852426359170.5186,11259208593072.88,305975887579274.06,9928058140759268.0
3.0421862473761276,4440055378711165.0,1.7871578490547512e+16,1020154004663936.5,1488137980915415.0,4105649008292.649,11999335221604.713,326090436261614.75,1.0581035705765482e+16
3.2030299723236504,4475735184057806.5,1.8617272606478536e+16,1028351852262199.8,1500096498537714.2,4364788915822.361,12756763248225.902,346675250292387.6,1.1249292269164406e+16
3.3670905717701234,4509279974954018.0,1.937551492638667e+16,1036059155625271.2,1511339440335283.2,4629890096364.692,13531621744592.516,367733836994289.3,1.1932941006636854e+16
3.5344323832055258,4540865827782567.0,2.014672044993672e+16,1043316370335795.9,1521925820426771.0,4901005039180.083,14324064567852.207,389270377408166.3,1.2632116984376346e+16
3.7051210308696363,4570650005458942.0,2.0931295259241936e+16,1050159629365049.8,1531908347371098.2,5178193929476.729,15134268085822.086,411289664469527.75,1.3346975150562036e+16
3.879223451487029,4598773437013693.0,2.1729638656026452e+16,1056621312785606.0,1541334255229257.5,5461523993813.857,15962429264893.602,433797051042448.25,1.4077688646696732e+16
4.0568079205167695,4625362808552297.0,2.2542144964187604e+16,1062730528193523.0,1550246004374643.2,5751068948310.799,16808764058405.543,456798406119044.3,1.482444738394141e+16
4.237944078927105,4650532336109005.0,2.3369205062545988e+16,1068513518041974.2,1558681875686320.0,6046908532524.987,17673506045405.977,480300077823660.44,1.5587456840307106e+16
4.422702960505647,4674385276403194.0,2.421120769852508e+16,1073994006754975.0,1566676476897160.0,6349128115120.921,18556905279249.84,504308862119766.56,1.6366937042955622e+16
4.61115701971576,4697015220326731.0,2.506854062284115e+16,1079193497921034.8,1574261176121686.8,6657818360022.067,19459227312987.027,528831976321561.8,1.7163121706477148e+16
4.803380160110075,4718507205299350.0,2.5941591577102916e+16,1084131529869650.4,1581464474675335.0,6973074943778.001,20380752374459.76,553877036674359.56,1.797625750326597e+16
4.9994477633122765,4738938675816335.0,2.683074915989642e+16,1088825896368237.5,1588312329013578.5,7294998316509.769,21321774668793.027,579452039397307.9,1.880660344631567e+16
5.199436718578522,4758380316133123.0,2.773640359200228e+16,1093292837941018.6,1594828429816147.2,7623693500109.484,22282601789798.84,605565344686266.8,1.9654430368135804e+16
5.403425452950093,4776896774751703.0,2.8658947397516756e+16,1097547208328158.5,1601034444807393.2,7959269918431.917,23263554224918.41,632225663258964.4,2.0520020482227164e+16
5.611493962009095,4794547296947792.0,2.959877601458783e+16,1101602619816174.6,1606950230755349.0,8301841255080.366,24264964940851.973,659442045093271.8,2.1403667015779308e+16
5.823723841249277,4811386278816902.0,3.055628834703712e+16,1105471570536418.6,1612594019166935.0,8651525335096.431,25287179039094.523,687223870065517.5,2.2305673904077156e+16
6.040198318074262,4827463754080423.0,3.1531887266183492e+16,1109165556314401.1,1617982579446886.8,9008444027444.635,26330553472293.203,715580840242012.8,2.3226355538600028e+16
6.261002284435747,4842825823069687.0,3.252598007061034e+16,1112695169233841.2,1623131362676906.8,9372723165663.375,27395456813747.25,744522973615089.1,2.41660365620354e+16
6.486222330124463,4857515031812652.0,3.353897891034008e+16,1116070184736194.6,1628054628671129.5,9744492484451.975,28482269073535.16,774060599106549.1,2.51250517044556e+16
6.715946776726952,4871570707918412.0,3.4571301180841156e+16,1119299638794014.1,1632765558551862.5,10123885570295.59,29591381555724.28,804204352687893.8,2.610374565576291e+16
6.950265712261491,4885029258938140.0,3.5623369891437236e+16,1122391896462806.8,1637276354748830.0,10511039824507.912,30723196751930.45,834965174488664.5,2.7102472970222372e+16
7.18927102650672,4897924438036285.0,3.6695614011992504e+16,1125354712922073.1,1641598330042094.0,10906096437304.326,31878128267176.113,866354306782804.8,2.8121597999504724e+16
7.433056447036854,4910287581101586.0,3.7788468801161144e+16,1128195287954295.8,1645741987032635.8,11309200371714.76,33056600774570.047,898383292758562.5,2.9161494851167804e+16
7.681717575977592,4922147818837058.0,3.890237611901502e+16,1130920314675070.5,1649717089226896.8,11720500356312.188,34259049995818.004,931063975990645.9,3.022254736993315e+16
7.935351927497144,4933532266872351.0,4.00377847264555e+16,1133536023213591.8,1653532724755190.2,12140148885873.174,35485922704985.3,964408500544524.5,3.1305149139479036e+16
8.194058966047088,4944466196522745.0,4.119515057348757e+16,1136048219946541.5,1657197363603665.0,12568302229207.16,36737676753284.18,998429311652375.4,3.240970350277972e+16
8.45794014536803,4954973188465383.0,4.237493707814442e+16,1138462322806950.0,1660718909120719.8,13005120443494.107,38014781112957.016,1033139156908240.5,3.3536623599286704e+16
8.72709894827539,4965075271301390.0,4.3577615397622056e+16,1140783393120452.0,1664104744457781.0,13450767394556.594,39317715938585.06,1068551087936987.9,3.4686332417472336e+16
9.0016409272409,4974793046716724.0,4.480366469297479e+16,1143016164362446.0,1667361774518462.2,13905410782569.967,40646972644371.016,1104678462497649.6,3.585926286145257e+16
9.281673745785717,4984145802734607.0,4.605357238855761e+16,1145165068179129.0,1670496463916478.8,14369222172776.777,42003053996134.32,1141534946986845.0,3.705585783057168e+16
9.567307220701432,4993151616364713.0,4.7327834427255016e+16,1147234257972350.0,1673514871379756.0,14842377030829.695,43386474216923.48,1179134519312513.0,3.8276570310977976e+16
9.85865336511546,5001827446792588.0,4.862695552241048e+16,1149227630310960.0,1676422680984008.2,15325054762434.252,44797759105288.18,1217491472111965.8,3.952186347834324e+16
10.155826432417769,5010189220113385.0,4.995144940726819e+16,1151148844399343.5,1679225230552228.2,15817438757006.15,46237446165382.12,1256620416291693.8,4.079221081098916e+16
10.458942961066125,5018251906493392.0,5.130183908264574e+16,1153001339806188.5,1681927537516336.2,16319716435093.277,47706084748169.75,1296536284869226.5,4.208809621277742e+16
10.768121820287448,5026029590538793.0,5.2678657063478744e+16,1154788352632522.2,1684534322502119.5,16832079299345.764,49204236203108.59,1337254337099886.0,4.341001414520309e+16
11.083484256693197,5033535535560433.0,5.40824456248128e+16,1156512930277274.2,1687050030868314.2,17354722988844.508,50732474039755.84,1378790162873611.8,4.475846976820448e+16
11.405153941827061,5040782242343993.0,5.551375704775659e+16,1158177944940411.5,1689478852404156.8,17887847336623.285,52291384098825.195,1421159687368783.2,4.613397908926375e+16
11.733257020663602,5047781502967049.0,5.697315386586585e+16,1159786105988019.0,1691824739366819.8,18431656430241.926,53881564732277.38,1464379175951876.2,4.753706912042963e+16
12.067922161076874,5054544450143338.0,5.8461209112376344e+16,1161339971289734.8,1694091423019737.5,18986358675285.707,55503626992087.91,1508465239313243.5,4.896827804294286e+16
12.409280604298411,5061081602522711.0,5.9978506568673464e+16,1162841957626911.2,1696282428815423.8,19552166861683.598,57158194827383.15,1553434838830527.8,5.042815537918881e+16
12.75746621638438,5067402906328292.0,6.1525641014349384e+16,1164294350259250.8,1698401090350660.8,20129298232752.95,58845905289677.26,1599305292152602.8,5.191726217173613e+16
13.112615540712067,5073517773672012.0,6.3103218479170504e+16,1165699311728237.2,1700450562208440.5,20717974556891.168,60567408745985.695,1646094278997847.2,5.343617116926112e+16
13.474867851526309,5079435117853817.0,6.471185649725413e+16,1167058889967540.0,1702433831788886.2,21318422201845.754,62323369099620.38,1693819847161486.0,5.4985467019180984e+16
13.844365208556836,5085163385918013.0,6.635218436372989e+16,1168375025783215.0,1704353730220929.0,21930872211506.438,64114464018505.336,1742500418727649.2,5.65657464668501e+16
14.221252512727972,5090710588712274.0,6.802484339414461e+16,1169649559760079.2,1706212942436931.0,22555560385170.254,65941385170878.54,1792154796482498.2,5.817761856119685e+16
14.605677562982532,5096084328670017.0,6.973048718685015e+16,1170884238645078.2,1708014016484292.8,23192727359239.863,67804838468269.22,1842802170525380.5,5.982170486669785e+16
14.997791114242183,5101291825514883.0,7.146978188860188e+16,1172080721253159.5,1709759372140605.8,23842618691323.22,69705544315661.766,1894462125075702.0,6.149863968161049e+16
15.397746936527026,5106339940066414.0,7.324340646357974e+16,1173240583936889.2,1711451308892432.5,24505484946708.492,71644237868779.36,1947154645473618.2,6.320907026239479e+16
15.805701875257567,5111235196308459.0,7.505205296603621e+16,1174365325656968.8,1713092013331781.5,25181581787193.61,73621669298435.8,2000900125373184.2,6.49536570542802e+16
16.221815912762718,5115983801866697.0,7.689642681676346e+16,1175456372687135.2,1714683566019404.8,25871170062258.22,75638604061921.7,2055719374127079.0,6.673307392793891e+16
16.64625223101797,5120591667027328.0,7.877724708356238e+16,1176515082983945.0,1716227947859143.2,26574515902566.816,77695823181404.08,2111633624362359.5,6.854800842224573e+16
17.079177275638333,5125064422416812.0,8.069524676589477e+16,1177542750248909.2,1717727046023497.0,27291890815799.26,79794123529336.8,2168664539747092.0,7.039916199311321e+16
17.5207608211511,5129407435451524.0,8.26511730838826e+16,1178540607707970.5,1719182659466928.0,28023571784807.184,81934318120883.17,2226834222948041.0,7.228725026840248e+16
17.97117603757412,5133625825655822.0,8.464578777182859e+16,1179509831631021.5,1720596504059901.5,28769841368099.984,84117236413370.67,2286165223779942.5,7.421300330892045e+16
18.430599558325603,5137724478938663.0,8.6679867376409e+16,1180451544612114.2,1721970217373855.8,29530987802666.445,86343724612807.12,2346680547547021.0,7.617716587552186e+16
18.899211549492115,5141708060910296.0,8.87542035597018e+16,1181366818629123.8,1723305363144448.2,30307305109141.062,88614645987491.05,2408403663577933.0,7.818049770234328e+16
19.37719578048196,5145581029313573.0,9.086960340719923e+16,1182256677899994.5,1724603435438094.2,31099093199328.21,90930881188764.48,2471358513955201.0,8.022377377620418e+16
19.864739696091597,5149347645638093.0,9.302688974095574e+16,1183122101551217.2,1725865862544539.0,31906657986098.42,93293328578963.84,2535569522440843.5,8.230778462221603e+16
20.36203449001343,5153011985979020.0,9.522690143801891e+16,1183964026112759.0,1727094010616348.0,32730311495674.754,95702904566625.98,2601061603599742.0,8.443333659564885e+16
20.869275179813698,5156577951197491.0,9.747049375428622e+16,1184783347852565.0,1728289187074294.2,33570371982328.83,98160543949023.75,2667860172122618.0,8.660125218010792e+16
21.38666068340997,5160049276434548.0,9.975853865393438e+16,1185580924962455.8,1729452643796056.5,34427164045508.188,100667200262099.94,2735991152350816.0,8.881237029208291e+16
21.91439389707817,5163429540026235.0,1.020919251445596e+17,1186357579606493.8,1730585580104222.0,35301018749419.19,103223846137887.72,2805480988005046.5,9.106754659193043e+16
22.452681775019734,5166722171863451.0,1.0447155961817298e+17,1187114099841760.8,1731689145568197.0,36192273745090.836,105831473669498.31,2876356652120414.5,9.336765380136453e+16
23.00173541052013,5169930461236715.0,1.0689836619818696e+17,1187851241420769.2,1732764442633461.8,37101273394947.34,108491094783774.98,2948645657190468.0,9.571358202752693e+16
23.561770118730532,5173057564202480.0,1.0937328709253851e+17,1188569729483968.5,1733812529090513.8,38028368899917.29,111203741621707.2,3022376065522755.5,9.810623909371723e+16
24.133005521105144,5176106510505057.0,1.118972829530802e+17,1189270260150139.2,1734834420394790.5,38973918429112.664,113970466926708.75,3097576499808883.0,1.0054655087686565e+17
24.715665631527248,5179080210085188.0,1.144713332413861e+17,1189953502011794.0,1735831091848117.2,39938287252105.99,116792344440871.97,3174276153911962.5,1.03035461651836e+17
25.309978944157795,5181981459203851.0,1.170964366011044e+17,1190620097542215.0,1736803480651178.5,40921847873842.7,119670469309303.94,3252504803874495.0,1.0557393444264942e+17
25.91617852304095,5184812946207944.0,1.1977361123700347e+17,1191270664420175.8,1737752487835945.8,41924980172221.28,122605958492666.7,3332292819150044.5,1.0816295138072442e+17
26.53450209350177,5187577256962099.0,1.2250389530084312e+17,1191905796777969.8,1738678980086237.8,42948071538377.71,125599951188042.89,3413671174061855.0,1.1080351407022851e+17
27.165192135371807,5190276879969223.0,1.2528834728421701e+17,1192526066377901.0,1739583791453890.8,43991517019711.7,128653609258247.83,3496671459491953.0,1.1349664396064602e+17
27.808495978079243,5192914211200555.0,1.2812804641850549e+17,1193132023722058.8,1740467724977643.0,45055719465692.95,131768117669723.38,3581325894804339.5,1.1624338272666552e+17
28.464665897640828,5195491558654469.0,1.3102409308207797e+17,1193724199099741.2,1741331554211066.8,46141089676486.75,134944684939142.17,3667667340005773.5,1.1904479265549123e+17
29.133959215593645,5198011146661861.0,1.3397760921488952e+17,1194303103576692.2,1742176024665575.8,47248046554439.34,138184543588862.08,3755729308148029.0,1.2190195704169398e+17
29.816638399905518,5200475119954756.0,1.369897387406154e+17,1194869229929873.2,1743001855174037.0,48377017258465.43,141488950611372.53,3845545977975504.5,1.2481598058971125e+17
30.51297116790363,5202885547513078.0,1.4006164799646501e+17,1195423053531344.0,1743809739180102.8,49528437361379.01,144859187942871.4,3937152206822053.0,1.2778798982411403e+17
31.223230591261704,5205244426204127.0,1.4319452617082277e+17,1195965033184454.8,1744600345958012.8,50702751010211.49,148296562946131.6,4030583543761168.5,1.3081913350775867e+17
31.947695203086937,5207553684227879.0,1.463895857488615e+17,1196495611915428.5,1745374321767303.2,51900411089563.19,151802408902796.38,4125876243013704.0,1.3391058306794486e+17
32.686649107148675,5209815184380021.0,1.4964806296627603e+17,1197015217723110.5,1746132290946487.2,53121879388029.83,155378085515266.5,4223067277617327.0,1.3706353303070565e+17
33.44038208929165,5212030727144540.0,1.5297121827128493e+17,1197524264289507.0,1746874856949553.2,54367626767753.64,159024979418338.78,4322194353362082.5,1.4027920146335339e+17
34.20918973107749,5214202053626096.0,1.5636033679505507e+17,1198023151653542.0,1747602603328792.0,55638133337144.82,162744504700748.53,4423295922996564.5,1.4355883042541208e+17
34.993373525699035,5216330848332178.0,1.598167288306902e+17,1198512266850288.5,1748316094667264.0,56933888626820.17,166538103436793.22,4526411200709108.0,1.469036864280677e+17
35.793240996213015,5218418741814240.0,1.6334173032095066e+17,1198991984517778.8,1749015877464014.5,58255391768809.016,170407246228195.0,4631580176888744.0,1.503150609022687e+17
36.60910581613728,5220467313176112.0,1.669367033548454e+17,1199462667473375.2,1749702480974797.0,59603151679074.58,174353432756384.47,4738843633170668.0,1.537942706756147e+17
37.44128793246003,5222478092458030.0,1.7060303667326093e+17,1199924667261516.5,1750376418011114.8,60977687243401.37,178378192345367.38,4848243157770800.0,1.5734265845817094e+17
38.29011369110923,5224452562903407.0,1.743421461837812e+17,1200378324674510.2,1751038185699925.5,62379527506699.836,182483084535368.6,4959821161114687.0,1.6096159333734646e+17
39.15591596493141,5226392163115349.0,1.7815547548485216e+17,1200823970248056.8,1751688266206479.8,63809211865778.73,186669699667417.88,5073620891765400.0,1.646524712819837e+17
40.03903428423004,5228298289109546.0,1.8204449639946448e+17,1201261924732894.2,1752327127422311.5,65267290265637.96,190939659479075.12,5189686452655708.0,1.684167156557993e+17
40.93981496991464,5230172296269356.0,1.8601070951850112e+17,1201692499544017.8,1752955223620563.2,66754323399334.76,195294617711478.3,5308062817629677.0,1.722557777403267e+17
41.85861126931294,5232015501208996.0,1.9005564475392288e+17,1202115997188767.0,1753572996080411.5,68270882911476.695,199736260727901.34,5428795848298838.0,1.761711372675063e+17
42.7957834946992,5233829183549924.0,1.9418086190195286e+17,1202532711674956.2,1754180873682466.8,69817551605394.79,204266308144020.78,5551932311218350.0,1.8016430296207763e+17
