t(s),Total solute volume 1,Total retention volume 1,Total 1 volume 1,Total 2 volume 1,Total 3 volume 1,Total 4 volume 1,Total 5 volume 1,Total 6 volume 1
0.1,1277535415264620.8,2216485712870468.2,368078767489456.25,570871530116391.1,0.0,0.0,0.0,3.710125213445117e-74
0.202,1921175667924654.5,3333300251624429.5,553522022421653.06,858484700859400.9,32864864.682712745,105537201.6127345,3296094854.9172006,114425921803.16246
0.30604000000000003,2412249710558564.0,4185480968000457.0,695008459338923.0,1077923027509903.1,83355497.37643886,267676580.19234064,8362013600.388833,291057547387.8825
0.41216080000000005,2827757966313299.5,4906608617076300.0,814723160691018.2,1263594487203991.2,148039179.5563344,475394078.5574669,14852421669.413109,517527013069.5576
0.5204040160000001,3196797231391478.5,5547159715563766.0,921049388218891.2,1428501098744920.5,225389413.4878042,723787591.6429956,22614018720.257412,788434012744.098
0.6308120963200001,3533892169586024.0,6132331149767596.0,1018171934423816.4,1579133264766140.8,314587208.6819314,1010227077.6718459,31564579685.323402,1100891597640.8687
0.7434283382464002,3847491392946281.0,6676779311961524.0,1108524982184869.5,1719266280268156.0,415164377.5892073,1333209038.6823995,41657103328.529366,1453251085473.522
0.8582969050113283,4143009536605875.0,7189897475078603.0,1193668576156026.5,1851319695849726.0,526856865.190637,1691885510.7422478,52865081229.77207,1844582643362.9731
0.9754628431115548,4424158010134532.5,7678124344009204.0,1274672033935932.8,1976951969167516.2,649532461.6524978,2085831925.5141358,65175239539.89192,2274420167295.937
1.094972099973786,4693609728533094.0,8146097198818443.0,1352305465907298.8,2097357502568975.8,783150764.2531967,2514918535.2415547,78583519401.23163,2742620220371.429
1.2168715419732616,4953364222486434.0,8597285262950245.0,1427144969453836.8,2213429794024126.8,927739117.726234,2979233149.665452,93092661708.53221,3249277351883.496
1.3412089728127268,5204963052771456.0,9034363385203436.0,1499634693363199.0,2325857695886504.0,1083377264.336439,3479031842.678405,108710666285.08719,3794670106866.9487
1.4680331522689813,5449624221545401.0,9459445202206086.0,1570125563910388.2,2435185477095946.0,1250187096.1372225,4014706043.685652,125449763254.56973,4379224997950.813
1.597393815314361,5688329905226399.0,9874235326702870.0,1638900562130845.0,2541852026954319.0,1428325569.809161,4586759784.996891,143325701879.90323,5003491604074.658
1.729341691620648,5921885882370216.0,1.0280132434935384e+16,1706191845960531.5,2646217410701030.5,1617979673.4071639,5195793538.527995,162357245369.23044,5668124885025.89
1.863928525453061,6150963058568488.0,1.067830129789404e+16,1772192714235952.0,2748581425073506.5,1819362775.7154567,5842492492.479038,182565804461.49878,6373872356359.008
2.001207095962122,6376127258426524.0,1.1069724459784388e+16,1837066190248643.5,2849196910967016.0,2032711937.5035105,6527617916.968554,203975167560.77155,7121564644788.659
2.1412312378813647,6597861091546964.0,1.1455240167619046e+16,1900951321691470.0,2948279524333488.5,2258285910.6862755,7252000738.736709,226611299916.08502,7912108460566.272
2.284055862638992,6816580322081412.0,1.1835570766487282e+16,1963967896993275.8,3046015050978568.5,2496363641.462264,8016536734.27311,250502193385.15173,8746481340260.606
2.4297369798917723,7032646338466272.0,1.221134433012494e+16,2026220038053052.8,3142564978710911.5,2747243150.7039485,8822182934.415354,275677754062.04926,9625727714551.521
2.578331719489608,7246375799836004.0,1.2583111394145482e+16,2087798979528818.2,3238070807879010.5,3011240702.284298,9669954953.596613,302169718804.0597,10550955987187.352
2.7298983538794,7458048201551606.0,1.2951358079806886e+16,2148785248589700.8,3332657432056635.5,3288690195.1263885,10560925037.534845,330011594212.57306,11523336399503.352
2.884496320956988,7667911882317594.0,1.3316516514620186e+16,2209250395664262.8,3426435822346110.5,3579942731.995896,11496220678.496298,359238613352.70105,12544099515467.29
3.0421862473761276,7876188847265938.0,1.367897319920875e+16,2269258384049585.5,3519505182591863.0,3885366330.1283183,12477023686.032454,389887706707.9326,13614535204640.814
3.2030299723236504,8083078679669492.0,1.4039075793384558e+16,2328866716939669.0,3611954697344591.5,4205345747.3950486,13504569628.7464,421997484730.56946,14735992030703.033
3.3670905717701234,8288761742816305.0,1.4397138671020108e+16,2388127359937613.5,3703864962631099.0,4540282403.957464,14580147582.699987,455608229975.5467,15909876975125.42
3.5344323832055258,8493401823013834.0,1.4753447505586386e+16,2447087502548230.5,3795309166990811.5,4890594383.95588,15705100136.836168,490761897266.63153,17137655441733.47
3.7051210308696363,8697148328210878.0,1.510826308494695e+16,2505790191636823.0,3886354073938491.0,5256716505.210197,16880823616.807285,527502120688.32275,18420851499940.8
3.879223451487029,8900138130043034.0,1.5461824507713784e+16,2564274862152540.0,3977060845089261.0,5639100447.501426,18108768496.923977,565874226456.922,19761048333544.58
4.0568079205167695,9102497117344998.0,1.5814351879191882e+16,2622577784720567.0,4067485734351561.5,6038214931.984603,19390439976.301857,605925250923.1088,21159888868927.46
4.237944078927105,9304341514367070.0,1.6166048599255752e+16,2680732445441803.5,4157680676977244.5,6454545945.814363,20727398700.199543,647703963111.9955,22619076561889.848
4.422702960505647,9505779005719672.0,1.6517103315051232e+16,2738769870007714.5,4247693792247357.0,6888597007.259655,22121261611.379253,691260891326.612,24140376326528.87
4.61115701971576,9706909701494194.0,1.686769159654031e+16,2796718901767364.0,4337569814740031.0,7340889467.525307,23573702919.343838,736648353435.1827,25725615592887.902
4.803380160110075,9907826969387248.0,1.7217977381422996e+16,2854606441475979.0,4427350466168490.0,7811962846.246525,25086455177.70794,783920490537.7509,27376685482727.297
4.9994477633122765,1.0108618155501536e+16,1.7568114227028894e+16,2912457654969442.0,4517074777473620.0,8302375198.222852,26661310461.887512,833133303767.8638,29095542094872.703
5.199436718578522,1.0309365211449858e+16,1.7918246399753368e+16,2970296153843166.5,4606779369047837.0,8812703509.442741,28300121640.851215,884344694033.777,30884207893302.746
5.403425452950093,1.051014524218925e+16,1.8268509827063036e+16,3028144153292053.5,4696498695536818.0,9343544120.845602,30004803737.943752,937614504543.28,32744773192521.73
5.611493962009095,1.0711030986463292e+16,1.8619032932674524e+16,3086022610533718.0,4786265260527033.0,9895513178.592232,31777335376.8369,993004565988.7891,34679397735906.164
5.823723841249277,1.0912091239687374e+16,1.8969937371965064e+16,3143951346648670.5,4876109805513652.0,10469247109.883781,33619760309.52305,1050578744296.3628,36690312363652.33
6.040198318074262,1.1113391227462652e+16,1.932133868181583e+16,3201949154195748.0,4966061476806648.0,11065403123.592129,35534189023.98666,1110402990864.7034,38779820767740.766
6.261002284435747,1.1314992936566058e+16,1.967334685676421e+16,3260033892575730.0,5056147973435000.0,11684659735.153889,37522800429.792694,1172545395239.092,40950301331992.19
6.486222330124463,1.1516955409171162e+16,2.0026066861449652e+16,3318222572801177.0,5146395678620349.0,12327717315.337769,39587843620.339775,1237076240181.1963,43204209055846.17
6.715946776726952,1.1719335005158464e+16,2.037959908778075e+16,3376531433072323.0,5236829776991464.0,12995298662.631983,41731639710.964226,1304068059109.1904,45544077560972.65
6.950265712261491,1.1922185636634486e+16,2.0734039763969588e+16,3434976006345775.0,5327474359379848.0,13688149599.113956,43956583752.45286,1373595695894.4946,47972521180230.86
7.18927102650672,1.212555897816531e+16,2.1089481321517372e+16,3493571180906302.0,5418352516763581.0,14407039589.765587,46265146719.84634,1445736367011.3577,50492237128848.945
7.433056447036854,1.2329504655721854e+16,2.1446012725348944e+16,3552331254805014.0,5509486424698048.0,15152762385.28585,48659877576.69972,1520569726044.5115,53106007758003.336
7.681717575977592,1.253407041690604e+16,2.1803719771556532e+16,3611269984904284.0,5600897419382313.0,15926136688.529228,51143405415.21146,1598177930567.8,55816702891247.57
7.935351927497144,1.2739302284669656e+16,2.216268535658968e+16,3670400631166679.0,5692606066348922.0,16728006844.767515,53718441672.858475,1678645711413.5605,58627282244485.97
8.194058966047088,1.2945244696436444e+16,2.2522989721206536e+16,3729735996738291.0,5784632222631072.0,17559243556.03404,56387782426.3651,1762060444358.831,61540797930397.44
8.45794014536803,1.3151940630280998e+16,2.2884710672058216e+16,3789288464302925.5,5876995093146276.0,18420744619.864685,59154310764.017914,1848512224259.8591,64560397048414.71
8.72709894827539,1.3359431719603138e+16,2.324792378340192e+16,3849070029121717.0,5969713281938952.0,19313435692.800346,62020999237.49784,1938093941671.5378,67689324361535.71
9.0016409272409,1.3567758357550284e+16,2.361270258111791e+16,3909092329118800.5,6062804838841961.0,20238271079.06197,64990912394.548416,2030901361993.0642,70930925061410.88
9.281673745785717,1.3776959792282436e+16,2.3979118710931844e+16,3969366672328805.0,6156287302046188.0,21196234544.852493,68067209393.93814,2127033207185.3176,74288647623298.66
9.567307220701432,1.3987074214039978e+16,2.4347242092509116e+16,4029904061982499.5,6250177737007026.0,22188340158.77819,71253146704.30313,2226591240109.526,77766046752620.2
9.85865336511546,1.4198138834856722e+16,2.471714106088517e+16,4090715219473356.0,6344492772064572.0,23215633158.922756,74552080888.57799,2329680351540.578,81366786424977.1
10.155826432417769,1.441018996166047e+16,2.508888249652216e+16,4151810605419069.0,6439248631108808.0,24279190847.138893,77967471475.82886,2436408649911.842,85094643021623.83
10.458942961066125,1.462326306341689e+16,2.5462531945130604e+16,4213200439006784.5,6534461163583161.0,25380123511.15996,81502883922.4284,2546887553851.7915,88953508562498.88
10.768121820287448,1.4837392832896154e+16,2.5838153728265036e+16,4274894715789095.0,6630145872085102.0,26519575375.163853,85161992664.59627,2661231887575.9814,92947394039037.1
11.083484256693197,1.505261324357674e+16,2.6215811045587548e+16,4336903224078874.5,6726317937793815.0,27698725579.454918,88948584264.44894,2779559979201.2114,97080432849101.52
11.405153941827061,1.5268957602142874e+16,2.659556606959502e+16,4399235560074778.5,6822992243929030.0,28918789189.958652,92866560651.78458,2901993762051.513,101356884336466.48
11.733257020663602,1.548645859698344e+16,2.697748003351769e+16,4461901141834436.5,6920183397422684.0,30181018238.255547,96919942463.942,3028658879028.9243,105781137437405.03
12.067922161076874,1.570514834305397e+16,2.7361613313022424e+16,4524909222200022.0,7017905748966001.0,31486702792.9083,101112872486.1474,3159684790124.722,110357714437023.33
12.409280604298411,1.5925058423427586e+16,2.7748025502286172e+16,4588268900769707.0,7116173411576404.0,32837172062.866657,105449619194.87752,3295204883149.8364,115091274838099.61
12.75746621638438,1.6146219927824206e+16,2.8136775484946304e+16,4651989134998570.0,7215000277814563.0,34233795533.762493,109934580406.8383,3435356587765.9976,119986619345270.97
13.112615540712067,1.6368663488379646e+16,2.852792150038335e+16,4716078750504199.0,7314400035767932.0,35677984137.93686,114572287036.27089,3580281492902.0815,125048693967528.23
13.474867851526309,1.6592419312887842e+16,2.892152120574566e+16,4780546450644488.0,7414386183905262.0,37171191459.06887,119367406963.371,3730125467642.8647,130282594242066.38
13.844365208556836,1.6817517215728254e+16,2.9317631734085104e+16,4845400825428071.0,7514972044896429.0,38714914972.303375,124324749016.71097,3885038785680.53,135693569582645.48
14.221252512727972,1.7043986646666986e+16,2.971630974893569e+16,4910650359812647.0,7616170778482505.0,40310697320.80778,129449267072.63953,4045176253421.7686,141287027755712.6
14.605677562982532,1.7271856717704432e+16,3.011761149563844e+16,4976303441440009.0,7717995393472633.0,41960127629.709595,134746064274.7319,4210697341846.5293,147068539487643.2
14.997791114242183,1.7501156228123682e+16,3.0521592849682816e+16,5042368367853094.0,7820458758937062.0,43664842858.403725,140220397376.44623,4381766322217.257,153043843206553.22
15.397746936527026,1.7731913687880752e+16,3.0928309362313204e+16,5108853353234912.0,7923573614659136.0,45426529192.2399,145877681210.25027,4558552405740.269,159218849922244.1
15.805701875257567,1.796415733946339e+16,3.1337816303624896e+16,5175766534706574.0,8027352580902949.0,47246923474.636116,151723493286.5645,4741229887284.129,165599648247939.22
16.221815912762718,1.8197915178334396e+16,3.175016870335425e+16,5243115978217246.0,8131808167548613.0,49127814680.68981,157763578525.96814,4929978293262.608,172192509567581.12
16.64625223101797,1.843321497206458e+16,3.2165421389548856e+16,5310909684056666.0,8236952782641731.0,51071045433.39163,164003854128.21454,5124982533793.163,179003893352561.97
17.079177275638333,1.867008427825016e+16,3.258362902528703e+16,5379155592017521.0,8342798740400099.0,53078513563.57533,170450414581.69577,5326433059244.438,186040452631864.22
17.5207608211511,1.890855046130292e+16,3.300484614360359e+16,5447861586232914.0,8449358268716225.0,55152173714.76656,177109536817.09415,5534526021290.115,193309039619705.06
17.97117603757412,1.9148640708191584e+16,3.342912718076281e+16,5517035499711679.0,8556643516191531.0,57294038994.13118,183987685509.07343,5749463438588.705,200816711504879.78
18.430599558325603,1.939038204320717e+16,3.3856526508008484e+16,5586685118592533.0,8664666558734268.0,59506182670.74748,191091518529.93805,5971453367213.02,208570736406118.53
18.899211549492115,1.9633801341818516e+16,3.4287098461912068e+16,5656818186136211.0,8773439405751044.0,61790739922.46633,198427892559.32416,6200710075955.663,216578599497875.97
19.37719578048196,1.9878925343679292e+16,3.47208973734271e+16,5727442406472754.0,8882974005958784.0,64149909632.648865,206003868854.0691,6437454226640.134,224848009311108.1
19.864739696091597,2.01257806648406e+16,3.5157977595751852e+16,5798565448120346.0,8993282252842216.0,66585956238.112274,213826719182.51633,6681913059571.148,233386904213671.4
20.36203449001343,2.0374393809221256e+16,3.55983935310936e+16,5870194947290024.0,9104375989779322.0,69101211629.64374,221903931927.63998,6934320584260.457,242203459075146.7
20.869275179813698,2.0624791179382004e+16,3.604219965641987e+16,5942338510989922.0,9216267014855898.0,71698077106.47601,230243218363.45352,7194917775568.345,251306092120970.03
21.38666068340997,2.0876999086645892e+16,3.648945054827563e+16,6015003719941118.0,9328967085387784.0,74379025386.15689,238852519109.3096,7463952775404.366,260703471980895.88
21.91439389707817,2.1131043760605204e+16,3.694020090674164e+16,6088198131316710.0,9442487922169148.0,77146602671.27962,247740010766.7914,7741681100134.321,270404524936944.88
22.452681775019734,2.138695135805033e+16,3.739450557860038e+16,6161929281314364.0,9556841213462286.0,80003430774.573,256914112744.02145,8028365853844.552,280418442376103.84
23.00173541052013,2.1644747971353056e+16,3.785241957977312e+16,6236204687571735.0,9672038618743940.0,82952209303.89516,266383494272.337,8324277947617.724,290754688453188.7
23.561770118730532,2.1904459636337132e+16,3.8313998117087096e+16,6311031851434063.0,9788091772222008.0,85995717908.70158,276157081620.38074,8629696324978.519,301423007969397.6
24.133005521105144,2.2166112339661468e+16,3.877929660942788e+16,6386418260081356.0,9905012286135014.0,89136818589.60876,286244065510.80304,8944908193671.1,312433434472227.25
24.715665631527248,2.2429732025743764e+16,3.9248370708326216e+16,6462371388523323.0,1.002281175384579e+16,92378458072.69968,296653908744.8886,9270209263934.543,323796298582568.7
25.309978944157795,2.2695344603247676e+16,3.972127631802891e+16,6538898701468233.0,1.0141501752740322e+16,95723670250.2698,307396354040.52386,9605903993445.781,335522236554895.0
25.91617852304095,2.2962975951155348e+16,4.0198069615096024e+16,6616007655072761.0,1.0261093846941384e+16,99175578689.73969,318481432089.08014,9952305839104.195,347622199076659.9
26.53450209350177,2.3232651924446068e+16,4.067880706756782e+16,6693705698577891.0,1.0381599589845962e+16,102737399212.51097,329919469836.9085,10309737515835.31,360107460313105.75
27.165192135371807,2.350439835939917e+16,4.116354545373893e+16,6772000275836861.0,1.0503030526494824e+16,106412442544.57893,341721098997.25964,10678531262596.295,372989627203858.44
27.808495978079243,2.377824107853885e+16,4.165234188057643e+16,6850898826739787.0,1.062539819578236e+16,110204117040.75204,353897264798.59314,11059029115768.781,386280649017831.75
28.464665897640828,2.4054205895235772e+16,4.21452538018175e+16,6930408788539590.0,1.074871413251254e+16,114115931484.38501,366459234975.36285,11451583190129.828,399992827173090.7
29.133959215593645,2.43323186179816e+16,4.2642339035777304e+16,7010537597083437.0,1.0872989869309234e+16,118151497964.5532,379418609007.5143,11856555967595.717,414138825328499.94
29.816638399905518,2.4612605054348444e+16,4.314365578289799e+16,7091292687953553.0,1.0998236938385444e+16,122314534832.66464,392787327615.0691,12274320593937.41,428731679754122.1
30.51297116790363,2.489509101464634e+16,4.364926264306821e+16,7172681497520983.0,1.112446687317752e+16,126608869740.52661,406577682514.285,12705261183671.656,443784809987486.4
31.223230591261704,2.5179802315289776e+16,4.415921863274049e+16,7254711463915623.0,1.1251691209849654e+16,131038442761.94565,420802326442.0754,13149773133335.121,459312029783000.44
31.947695203086937,2.54667647818842e+16,4.467358320187117e+16,7337390027915365.0,1.137992148867319e+16,135607309599.97357,435474283455.4588,13608263443354.398,475327558361957.6
32.686649107148675,2.5756004252041496e+16,4.5192416250707176e+16,7420724633757394.0,1.1509169255284434e+16,140319644881.9637,450606959513.0092,14081151048728.861,491846031970720.1
33.44038208929165,2.6047546577933716e+16,4.57157781464463e+16,7504722729873940.0,1.1639446061826126e+16,145179745544.64798,466214153345.37054,14568867158748.22,508882515754854.8
34.20918973107749,2.6341417628593188e+16,4.6243729739788136e+16,7589391769554907.0,1.1770763467974932e+16,150192034311.48688,482310067622.10205,15071855605970.604,526452515957126.3
34.993373525699035,2.6637643291965896e+16,4.677633238140071e+16,7674739211539554.0,1.1903133041859368e+16,155361063264.5936,498909320422.2422,15590573204692.98,544571992447460.5
35.793240996213015,2.693624947672566e+16,4.73136479383217e+16,7760772520539182.0,1.2036566360870098e+16,160691517513.58798,516026957016.1251,16125490119149.008,563257371593112.9
36.60910581613728,2.7237262113854524e+16,4.785573881031342e+16,7847499167692415.0,1.217107501236641e+16,166188218963.77216,533678461966.16113,16677090241675.893,582525559477488.0
37.44128793246003,2.7540707157995572e+16,4.840266794619032e+16,7934926630955101.0,1.2306670594280618e+16,171856130186.07483,551879771554.4392,17245871581094.906,602393955476190.2
38.29011369110923,2.7846610588583284e+16,4.895449886013783e+16,8023062395425778.0,1.2443364715623182e+16,177700358391.26425,570647286545.1483,17832346661556.31,622880466199084.9
39.15591596493141,2.8154998410755304e+16,4.951129564803821e+16,8111913953608564.0,1.2581168996890132e+16,183726159510.96362,589997885290.0027,18437042932104.38,644003519807315.6
40.03903428423004,2.8465896656051056e+16,5.007312300382166e+16,8201488805614332.0,1.2720095070375256e+16,189938942388.07376,609948937184.9893,19060503187222.055,665782080714369.4
40.93981496991464,2.877933138289973e+16,5.0640046235857944e+16,8291794459301379.0,1.2860154580388138e+16,196344273079.2374,630518316486.9282,19703285998621.527,688235664680518.6
41.85861126931294,2.9095328676902076e+16,5.1212131283403016e+16,8382838430356484.0,1.3001359183380114e+16,202947879272.04034,651724416498.4868,20365966158549.85,711384354310055.8
42.7957834946992,2.941391465090822e+16,5.178944473311953e+16,8474628242317517.0,1.3143720547978952e+16,209755654819.69214,673586164130.4701,21049135134885.76,735248814961034.2
