t(s),Total solute volume 1,Total retention volume 1,Total 1 volume 1,Total 2 volume 1,Total 3 volume 1,Total 4 volume 1,Total 5 volume 1,Total 6 volume 1
0.1,1384269013029218.2,1.039366397781807e+16,2531887414418598.5,6477507550370256.0,0.0,0.0,0.0,0.013903653951609765
0.202,1932536183349643.2,1.5271171307550692e+16,3534695168432003.0,9043128851208238.0,535395196610.079,3655563096036.699,126725386275633.81,629894759992525.2
0.30604000000000003,2304877934923616.5,1.9332703935327416e+16,4215725362889754.0,1.0785478445327874e+16,1289930373295.815,8818417493075.805,323589155173891.4,1692924689145902.2
0.41216080000000005,2575627589796408.0,2.297901569570656e+16,4710938797630391.0,1.2052431276197028e+16,2183909157196.1882,14937130141319.432,563187043336565.8,3059709949447645.0
0.5204040160000001,2781446538981666.0,2.6388519124354016e+16,5087390946073172.0,1.3015544177477842e+16,3176235825345.783,21729435065138.188,831266912619103.6,4647964878311748.0
0.6308120963200001,2943120997723606.5,2.965499543335376e+16,5383100788310647.0,1.377208569144425e+16,4243500563407.6885,29034755019539.164,1119952490062287.2,6403457210230005.0
0.7434283382464002,3073422882959416.5,3.283389677572959e+16,5621428764329015.0,1.4381821539372078e+16,5371518566853.668,36755925039738.11,1424813659134380.5,8290282486328109.0
0.8582969050113283,3180588557051365.0,3.5960955013475228e+16,5817439566687270.0,1.4883293402040274e+16,6551188366729.235,44830684783281.18,1743317598279405.5,1.0284934016266894e+16
0.9754628431115548,3270122741914250.0,3.906071747357178e+16,5981201586595678.0,1.5302260309554334e+16,7776309191816.108,53216657066508.24,2073942896575891.0,1.2372196972673288e+16
1.094972099973786,3345837701079932.5,4.215090099612036e+16,6119687628239454.0,1.5656561481395618e+16,9042442689444.795,61883521299110.47,2415697014956364.0,1.454219120646043e+16
1.2168715419732616,3410448658492849.5,4.5244812469724744e+16,6237863958613730.0,1.5958902582021568e+16,10346246882461.688,70808440840562.58,2767861593636938.5,1.678858098923663e+16
1.3412089728127268,3465986430944838.0,4.8352779853888104e+16,6339445032327935.0,1.621878663148108e+16,11685245898935.125,79974493232010.05,3129897353880795.0,1.910700466612251e+16
1.4680331522689813,3514005735495319.0,5.1483048288018456e+16,6427274495798848.0,1.6443488773949348e+16,13057591595871.979,89369040192286.25,3501389522717289.5,2.1494463128269484e+16
1.597393815314361,3555728062310996.5,5.4642364866948504e+16,6503586508413941.0,1.6638724845648436e+16,14461934312765.041,98982846750831.06,3882019928122829.5,2.3948860741388696e+16
1.729341691620648,3592131379281958.0,5.783637293125688e+16,6570169816438309.0,1.680907114268983e+16,15897320538614.986,108809383470311.44,4271549343257811.5,2.646874454558006e+16
1.863928525453061,3624009760167636.5,6.106988575267955e+16,6628476815623579.0,1.6958243446913438e+16,17363111424460.469,118844270693272.84,4669804601586745.0,2.9053143746270404e+16
2.001207095962122,3652015367179773.0,6.434708180720596e+16,6679700339255694.0,1.7089293480123822e+16,18858920077305.35,129084851047394.19,5076669192128546.0,3.1701459657393428e+16
2.1412312378813647,3676689271204138.5,6.7671647777370744e+16,6724830029726097.0,1.7204753124673616e+16,20384564808268.11,139529870906508.47,5492076383529765.0,3.4413384532522348e+16
2.284055862638992,3698484577275952.5,7.104688569332049e+16,6764694636055771.0,1.7306742636925006e+16,21940034431949.54,150179243996360.38,5916003778530449.0,3.718884078610498e+16
2.4297369798917723,3717783920833459.5,7.44757946637457e+16,6799994015312753.0,1.7397052519108132e+16,23525461716189.9,161033870372743.4,6348468394934256.0,4.0027936481468136e+16
2.578331719489608,3734912754789775.5,7.796113403748669e+16,6831323435243899.0,1.7477205694607474e+16,25141101941260.965,172095489975468.53,6789521799102826.0,4.2930933761826e+16
2.7298983538794,3750149501034033.0,8.150547266713971e+16,6859192141806844.0,1.7548505010614972e+16,26787314640877.88,183366557657602.8,7239245222211300.0,4.589822691917413e+16
2.884496320956988,3763733396942518.5,8.511122762191942e+16,6884037710774029.0,1.7612069954830556e+16,28464547536218.63,194850133045155.28,7697744827413966.0,4.893032705137701e+16
3.0421862473761276,3775870666187137.5,8.878069484585243e+16,6906237334404679.0,1.7668865530930486e+16,30173322282209.977,206549782733791.47,8165147361054946.0,5.2027850848259224e+16
3.2030299723236504,3786739473720664.0,9.251607366514547e+16,6926116884325195.0,1.771972544477418e+16,31914221947422.46,218469494364326.2,8641596373260503.0,5.5191511772753176e+16
3.3670905717701234,3796493989302021.0,9.63194866042018e+16,6943958343892397.0,1.7765371119169406e+16,33687880240940.035,230613602711860.97,9127249100584042.0,5.842211256830112e+16
3.5344323832055258,3805267782258640.5,1.0019299562098118e+17,6960006017361841.0,1.7806427579272432e+16,35494972479012.945,242986727752505.38,9622274013371438.0,6.172053852848529e+16
3.7051210308696363,3813176698342867.0,1.04138615595767e+17,6974471791784615.0,1.7843436914528646e+16,37336208222019.69,255593724225582.2,1.0126848965907852e+16,6.5087751292755464e+16
3.879223451487029,3820321321310870.0,1.081583256909924e+17,6987539639344014.0,1.787686979738112e+16,39212325449346.15,268439641768818.97,1.0641159852709262e+16,6.852478311302894e+16
4.0568079205167695,3826789090795459.0,1.122540790348682e+17,6999369491038927.0,1.7907135393648954e+16,41124086094680.414,281529694392939.5,1.116539966437562e+16,7.2032731614521576e+16
4.237944078927105,3832656128641696.0,1.1642781105970302e+17,7010100577132838.0,1.7934589908688416e+16,43072272741407.1,294869237908053.75,1.1699767842914672e+16,7.561275509167603e+16
4.422702960505647,3837988813926499.0,1.2068144673844768e+17,7019854307934708.0,1.7959543957544796e+16,45057686274700.59,308463753897325.4,1.2244469851594378e+16,7.92660683672752e+16
4.61115701971576,3842845139452478.5,1.2501690690199629e+17,7028736754886365.0,1.7982268912531912e+16,47081144298345.87,322318838916158.06,1.2799716892412666e+16,8.299393921949835e+16
4.803380160110075,3847275877670760.0,1.2943611377797642e+17,7036840783087004.0,1.8003002359050978e+16,49143480144804.18,336440197739364.06,1.3365725721593878e+16,8.679768535868966e+16
4.9994477633122765,3851325580567133.5,1.3394099586329958e+17,7044247880129043.0,1.8021952774454924e+16,51245542331986.53,350833639652516.56,1.3942718528311212e+16,9.06786719178528e+16
5.199436718578522,3855033435359613.0,1.3853349222317814e+17,7051029721206720.0,1.803930353219525e+16,53388194346179.02,365505076963500.06,1.4530922853481034e+16,9.463830940962586e+16
5.403425452950093,3858433995540601.0,1.4321555629540803e+17,7057249506224303.0,1.805521632265555e+16,55572314655299.78,380460525080679.94,1.5130571534079634e+16,9.867805209717197e+16
5.611493962009095,3861557804679413.5,1.4798915926830765e+17,7062963100758312.0,1.8069834072167692e+16,57798796878810.92,395706103656114.75,1.5741902664440128e+16,1.0279939672572722e+17
5.823723841249277,3864431928413650.5,1.5285629309238474e+17,7068220009093053.0,1.8083283432407308e+16,60068550059531.92,411248038421712.3,1.6365159569953532e+16,1.0700388156403598e+17
6.040198318074262,3867080408186072.5,1.5781897317874762e+17,7073064204125260.0,1.809567690360602e+16,62382498998141.234,427092663452318.0,1.7000590791058338e+16,1.1129308570932152e+17
6.261002284435747,3869524648535751.5,1.6287924083102182e+17,7077534835736630.0,1.8107114646838096e+16,64741584623482.836,443246423673671.0,1.7648450076811834e+16,1.1566862861480235e+17
6.486222330124463,3871783748142313.0,1.6803916545184618e+17,7081666836288260.0,1.8117686033106636e+16,67146764381248.45,459715877497410.94,1.8308996388048776e+16,1.2013216980438144e+17
6.715946776726952,3873874783361805.5,1.7330084655981488e+17,7085491439220246.0,1.8127470970119504e+16,69599012630603.35,476507699512767.94,1.8982493910410572e+16,1.246854087445594e+17
6.950265712261491,3875813051687930.5,1.7866641564796608e+17,7089036624353022.0,1.81365410415413e+16,72099321043308.94,493628683198313.4,1.966921207755324e+16,1.2933008484858896e+17
7.18927102650672,3877612281423292.0,1.8413803791060032e+17,7092327501385372.0,1.814496048812879e+16,74648699003279.94,511085743640000.1,2.036942560473742e+16,1.3406797759228216e+17
7.433056447036854,3879284812845764.5,1.89717913861341e+17,7095386641255746.0,1.8152787055481412e+16,77248174006674.9,528885920256278.0,2.108341453284407e+16,1.3890090672465098e+17
7.681717575977592,3880841755296022.5,1.9540828086192202e+17,7098234363462350.0,1.816007272911746e+16,79898792063869.58,547036379539468.75,2.1811464282693624e+16,1.4383073255974933e+17
7.935351927497144,3882293123881260.5,2.012114145781924e+17,7100888986100397.0,1.816686437416702e+16,82601618105271.75,565544417826628.0,2.255386571939539e+16,1.4885935633871638e+17
8.194058966047088,3883647958873501.0,2.0712963037723453e+17,7103367044246928.0,1.8173204294085692e+16,85357736393100.62,584417464114197.2,2.3310915226334004e+16,1.539887206531872e+17
8.45794014536803,3884914430364743.5,2.131652846772864e+17,7105683481379836.0,1.817913072037965e+16,88168250941145.53,603663082929962.5,2.4082914788308964e+16,1.5922080992298198e+17
8.72709894827539,3886099930312051.0,2.1932077626027514e+17,7107851817732453.0,1.818467824332325e+16,91034285944242.9,623288977273943.6,2.4870172083286372e+16,1.6455765092240288e+17
9.0016409272409,3887211153750397.5,2.2559854755520253e+17,7109884298835564.0,1.81898781919881e+16,93956986218867.06,643302991637505.1,2.5673000582189332e+16,1.700013133505828e+17
9.281673745785717,3888254170658498.5,2.3200108589931072e+17,7111792026963243.0,1.819475897053383e+16,96937517655861.05,663713115107454.2,2.6491719656146468e+16,1.7555391044224544e+17
9.567307220701432,3889234489722182.5,2.385309247828704e+17,7113585077758976.0,1.8199346356584132e+16,99977067685990.36,684527484559595.4,2.7326654690627236e+16,1.812175996159323e+17
9.85865336511546,3890157115042543.5,2.4519064508254198e+17,7115272603957482.0,1.820366376658854e+16,103076845758696.98,705754387944121.2,2.817813720591656e+16,1.86994583157334e+17
10.155826432417769,3891026596674175.5,2.5198287628752797e+17,7116862927821413.0,1.8207732492312544e+16,106238083834180.42,727402267663542.1,2.904650498341548e+16,1.928871089358068e+17
10.458942961066125,3891847075745751.5,2.5891029772213405e+17,7118363623669000.0,1.8211571911976344e+16,109462036888734.5,749479724042545.1,2.993210219729532e+16,1.988974711525163e+17
10.768121820287448,3892622324805892.0,2.659756397678671e+17,7119781591668480.0,1.8215199679050684e+16,112749983433124.5,771995518888188.2,3.083527955107681e+16,2.0502801111894384e+17
11.083484256693197,3893355783946878.5,2.731816850878038e+17,7121123123910025.0,1.821863189129539e+16,116103226043697.08,794958579138245.0,3.1756394418753556e+16,2.1128111806471613e+17
11.405153941827061,3894050593183802.5,2.8053126985563066e+17,7122393963628704.0,1.822188324227556e+16,119523091905857.27,818378000595121.9,3.2695810990125108e+16,2.1765922997391648e+17
11.733257020663602,3894709621504370.0,2.8802728499149312e+17,7123599358337904.0,1.8224967157298268e+16,123010933369529.27,842263051742694.9,3.365390042005193e+16,2.2416483444918832e+17
12.067922161076874,3895335492952035.0,2.9567267740657536e+17,7124744107536589.0,1.8227895915467e+16,126568128516225.98,866623177643441.9,3.4631040981387764e+16,2.308004696030722e+17
12.409280604298411,3895930610060947.5,3.0347045125814534e+17,7125832605572906.0,1.823068075934411e+16,130196081737377.03,891468003913471.9,3.562761822138725e+16,2.3756872497612938e+17
12.75746621638438,3896497174923477.0,3.1142366921665734e+17,7126868880177642.0,1.8233331993534908e+16,133896224323610.88,916807340773350.9,3.664402512142462e+16,2.4447224248149984e+17
13.112615540712067,3897037208138779.5,3.195354537463707e+17,7127856627122034.0,1.8235859073356416e+16,137670015064737.23,942651187172976.9,3.768066225989542e+16,2.5151371737562022e+17
13.474867851526309,3897552565863017.0,3.2780898840085037e+17,7128799241403430.0,1.8238270684622876e+16,141518940860232.47,969009734989178.9,3.873793797820448e+16,2.5869589925490726e+17
13.844365208556836,3898044955157637.5,3.362475191346177e+17,7129699845317964.0,1.824057481546713e+16,145444517340095.06,995893373295122.4,3.981626854977281e+16,2.660215930782668e+17
14.221252512727972,3898515947810913.0,3.4485435563214496e+17,7130561313740816.0,1.824277882101763e+16,149448289495993.2,1023312692701020.9,4.091607835202211e+16,2.7349366021535622e+17
14.605677562982532,3898966992789344.5,3.5363287265533146e+17,7131386296900411.0,1.8244889481664196e+16,153531832322690.44,1051278489766061.6,4.203780004131705e+16,2.8111501952057174e+17
14.997791114242183,3899399427459115.5,3.625865114105355e+17,7132177240902954.0,1.8246913055568056e+16,157696751469783.2,1079801771481822.6,4.318187473086698e+16,2.888886484327868e+17
15.397746936527026,3899814487703115.0,3.717187809361901e+17,7132936406236954.0,1.8248855326004e+16,161944683903843.12,1108893759827826.8,4.4348752171604776e+16,2.968175841009095e+17
15.805701875257567,3900213317046169.5,3.810332595119937e+17,7133665884463694.0,1.825072164406127e+16,166277298581095.53,1138565896400174.2,4.553889093607629e+16,3.04904924535365e+17
16.221815912762718,3900596974889422.0,3.9053359609063e+17,7134367613278280.0,1.8252516967176016e+16,170696297130813.25,1168829847114507.5,4.675275860538609e+16,3.131538297856549e+17
16.64625223101797,3900966443944498.0,4.002235117529354e+17,7135043390107098.0,1.825424589391901e+16,175203414549636.16,1199697506984789.8,4.799083195925681e+16,3.215675231441735e+17
17.079177275638333,3901322636948799.5,4.101068011874111e+17,7135694884390367.0,1.8255912695419456e+16,179800419907063.25,1231181004979621.2,4.9253597169268344e+16,3.301492923764975e+17
17.5207608211511,3901666402734858.0,4.2018733419495366e+17,7136323648683301.0,1.8257521343766348e+16,184489117062389.5,1263292708957992.5,5.054154999535056e+16,3.389024909783982e+17
17.97117603757412,3901998531719320.5,4.304690572196546e+17,7136931128695708.0,1.825907553769374e+16,189271345393384.6,1296045230686562.8,5.1855195985611016e+16,3.478305394598549e+17
18.430599558325603,3902319760870295.5,4.409559949065041e+17,7137518672377482.0,1.826057872582531e+16,194148980537028.2,1329451430940645.0,5.3195050679583096e+16,3.5693692665637005e+17
18.899211549492115,3902630778205795.0,4.51652251686822e+17,7138087538146490.0,1.826203412772453e+16,199123935142638.34,1363524424691267.8,5.456163981498557e+16,3.6622521106792576e+17
19.37719578048196,3902932226870646.5,4.6256201339222624e+17,7138638902345413.0,1.826344475297239e+16,204198159637738.97,1398277586380705.2,5.595549953808842e+16,3.7569902222593126e+17
19.864739696091597,3903224708834226.5,4.73689548897935e+17,7139173866005079.0,1.8264813418470772e+16,209373643007026.34,1433724555289011.0,5.737717661778193e+16,3.85362062088547e+17
20.36203449001343,3903508788247153.0,4.8503921179619757e+17,7139693460984026.0,1.8266142764149948e+16,214652413584804.16,1469879240994131.8,5.88272286634499e+16,3.9521810646478765e+17
20.869275179813698,3903784994491004.5,4.966154421006437e+17,7140198655546545.0,1.8267435267239524e+16,220036539861264.44,1506755828928224.8,6.030622434674882e+16,4.0527100646782835e+17
21.38666068340997,3904053824951732.0,5.0842276798232723e+17,7140690359435427.0,1.8268693255246584e+16,225528131302998.5,1544368786032884.8,6.181474362739771e+16,4.155246899979601e+17
21.91439389707817,3904315747544137.5,5.204658075382517e+17,7141169428489308.0,1.826991891776884e+16,231129339188126.28,1582732866515990.5,6.335337798308397e+16,4.2598316325566144e+17
22.452681775019734,3904571203012088.0,5.327492705931528e+17,7141636668849904.0,1.827111431725837e+16,236842357456440.53,1621863117712933.5,6.492273064359234e+16,4.3665051228527066e+17
23.00173541052013,3904820607026459.5,5.4527796053532045e+17,7142092840799222.0,1.827228139883885e+16,242669423574958.94,1661774886055009.8,6.652341682926552e+16,4.4753090454976045e+17
23.561770118730532,3905064352100661.5,5.580567761872443e+17,7142538662263172.0,1.827342199926928e+16,248612819419292.12,1702483823147808.0,6.815606399390501e+16,4.586285905371392e+17
24.133005521105144,3905302809341437.0,5.710907137118615e+17,7142974812013831.0,1.8274537855136572e+16,254674872171225.03,1744005891962397.0,6.982131207222364e+16,4.6994790539901216e+17
24.715665631527248,3905536330050855.5,5.843848685552042e+17,7143401932599585.0,1.827563061035222e+16,260857955232923.3,1786357373142211.2,7.151981373195942e+16,4.81493270621867e+17
25.309978944157795,3905765247193827.5,5.979444374262368e+17,7143820633029284.0,1.8276701823019336e+16,267164489158173.6,1829554871428477.2,7.325223463076453e+16,4.9326919573164314e+17
25.91617852304095,3905989876743886.5,6.117747203146828e+17,7144231491233731.0,1.827775297173029e+16,273596942601068.72,1873615322207108.5,7.501925367798123e+16,5.052802800321853e+17
26.53450209350177,3906210518918820.5,6.258811225476507e+17,7144635056325691.0,1.8278785461348684e+16,280157833282554.28,1918555998179990.0,7.682156330141974e+16,5.17531214378175e+17
27.165192135371807,3906427459316421.0,6.402691568858775e+17,7145031850677284.0,1.827980062832419e+16,286849728975256.4,1964394516163583.8,7.865986971925304e+16,5.300267829831677e+17
27.808495978079243,3906640969959713.5,6.549444456604074e+17,7145422371831724.0,1.8280799745583564e+16,293675248507010.25,2011148844017854.2,8.053489321714454e+16,5.427718652633632e+17
28.464665897640828,3906851310259948.5,6.699127229505445e+17,7145807094264659.0,1.8281784027036976e+16,300637062783512.2,2058837307708490.0,8.244736843072624e+16,5.557714377177646e+17
29.133959215593645,3907058727904934.5,6.851798368039205e+17,7146186471009016.0,1.8282754631734876e+16,307737895830531.3,2107478598505467.5,8.43980446335466e+16,5.690305758453891e+17
29.816638399905518,3907263459679423.0,7.007517514995352e+17,7146560935155490.0,1.8283712667707064e+16,314980525856103.44,2157091780321003.2,8.638768603060728e+16,5.825544561002086e+17
30.51297116790363,3907465732223680.0,7.166345498546305e+17,7146930901240028.0,1.828465919551232e+16,322367786333150.44,2207696297189986.0,8.841707205761064e+16,5.963483578845207e+17
31.223230591261704,3907665762735715.0,7.328344355762826e+17,7147296766528238.0,1.8285595231524476e+16,329902567102964.94,2259311980896029.5,9.048699768604054e+16,6.104176655814545e+17
31.947695203086937,3907863759622134.0,7.493577356585934e+17,7147658912205811.0,1.828652175097808e+16,337587815500002.9,2311959058746290.0,9.259827373420184e+16,6.247678706273393e+17
32.686649107148675,3908059923102080.0,7.662109028263958e+17,7148017704483171.0,1.8287439690794516e+16,345426537498437.75,2365658161498258.0,9.475172718434283e+16,6.394045736246765e+17
33.44038208929165,3908254445768312.0,7.83400518026378e+17,7148373495621729.0,1.8288349952207536e+16,353421798880934.9,2420430331441769.0,9.69482015059904e+16,6.543334864964671e+17
34.20918973107749,3908447513109081.0,8.009332929665678e+17,7148726624888395.0,1.8289253403205404e+16,361576726430100.1,2476297030639531.0,9.91885569856266e+16,6.695604346826685e+17
34.993373525699035,3908639303994111.0,8.188160727051141e+17,7149077419444461.0,1.8290150880805e+16,369894509143081.44,2533280149329479.5,1.0147367106283813e+17,6.8509135937956e+17
35.793240996213015,3908829991127667.5,8.370558382893338e+17,7149426195174307.0,1.8291043193171932e+16,378378399469787.3,2591402014492366.5,1.0380443867307211e+17,7.009323198228253e+17
36.60910581613728,3909019741471464.0,8.556597094459891e+17,7149773257458897.0,1.8291931121599548e+16,387031714575210.2,2650685398587994.5,1.0618177259713499e+17,7.170894956151608e+17
37.44128793246003,3909208716639831.0,8.746349473237998e+17,7150118901898575.0,1.8292815422358132e+16,395857837626340.6,2711153528463612.5,1.0860660381757053e+17,7.33569189099243e+17
38.29011369110923,3909397073269463.0,8.939889572891863e+17,7150463414989340.0,1.829369682842504e+16,404860219104167.56,2772830094437987.0,1.1107988188205818e+17,7.503778277769021e+17
