t(s),Total solute volume 1,Total retention volume 1,Total 1 volume 1,Total 2 volume 1,Total 3 volume 1,Total 4 volume 1,Total 5 volume 1,Total 6 volume 1
0.1,858476762157242.6,970941579421749.6,55300119698977.766,57164697565528.79,0.0,0.0,0.0,0.0
0.202,1293127515283450.0,1463310133468275.8,83298826047533.69,86107448582518.86,1792677275.9397166,3084186794.293489,37905087969.40405,733561602734.129
0.30604000000000003,1623827434767256.2,1838526311050347.0,104601377233806.3,108128267131401.0,4547167997.8445425,7823119770.596758,96147375549.17749,1860714254567.0466
0.41216080000000005,1903280997547002.2,2156117330311373.5,122602814406414.14,126736666560156.36,8074574242.95818,13891815909.812603,170732713119.2208,3304152694531.228
0.5204040160000001,2151215106911995.8,2438357967521799.5,138573876817899.95,143246232198717.1,12290727681.372988,21145472480.322384,259881445056.66733,5029433947965.132
0.6308120963200001,2377457725240930.5,2696344018235210.5,153147647996802.62,158311393529788.72,17150185901.286554,29505912104.69877,362632757939.5694,7017962611750.532
0.7434283382464002,2587720596602093.0,2936524118600293.5,166692058847487.34,172312487144227.75,22626681677.293526,38927947095.62082,478431288825.28955,9258990088880.78
0.8582969050113283,2785662255296094.0,3163029538816518.5,179442779564075.7,185493129430478.75,28705088308.46964,49385556401.34445,606957236713.8287,11746326644453.125
0.9754628431115548,2973789173539706.0,3378691670587115.0,191561268464362.7,198020222666495.88,35377459251.333595,60865072091.41031,748042623017.1997,14476720762189.22
1.094972099973786,3153905557771797.5,3585549798597000.0,203163746320547.5,210013906290647.88,42640833526.54311,73361403731.46191,901624888370.7548,17448961088375.264
1.2168715419732616,3327360293451351.5,3785129824725787.5,214337103693633.34,221564000590640.12,50495915838.37584,86875767639.2155,1067718984753.41,20663336321924.277
1.3412089728127268,3495192600861054.0,3978608640354812.5,225148283579233.44,232739705708071.22,58946233424.13202,101414236320.2725,1246399547785.9717,24121290188921.387
1.4680331522689813,3658222902391179.5,4166916653503953.5,235650134765410.97,243595652356482.25,67997572123.450775,116986768281.96185,1437788972971.384,27825190677507.188
1.597393815314361,3817112125803086.5,4350804691835537.5,245885231944908.44,254175850737968.28,77657585475.99306,133606535530.35858,1642049150519.732,31778170078044.22
1.729341691620648,3972401871007199.5,4530889310794060.0,255888463120805.06,264516365189515.4,87935516035.34663,151289444127.64264,1859375572922.5083,35984010943456.85
1.863928525453061,4124542474475033.5,4707684446634554.0,265688837419402.1,274647182950696.9,98841992249.04497,170053784756.02695,2089993040332.793,40447062972084.29
2.001207095962122,4273913142910449.0,4881624122489869.0,275310782032058.84,284593554835058.4,110388877863.28065,189919973647.228,2334152476555.7407,45172181384238.19
2.1412312378813647,4420836729738508.0,5053079111684309.0,284775094065774.4,294376979174659.5,122589158842.26009,210910358053.8497,2592128538271.7236,50164680650190.49
2.284055862638992,4565590796686870.0,5222369411349544.0,294099653092210.1,304015938394419.9,135456857722.88266,233049068922.0173,2864217804372.5303,55430299445033.04
2.4297369798917723,4708416039622941.0,5389773743873238.0,303299963911126.6,313526460076146.75,149006968456.82422,256361908811.93024,3150737398501.527,60975173987257.09
2.578331719489608,4849522797221766.0,5555536907521040.0,312389575818420.94,322922550368167.06,163255406575.8129,280876266544.2386,3452024021185.753,66805828418377.04
2.7298983538794,4989096198549533.0,5719875539226030.0,321380414187517.0,332216536726727.56,178218972733.20554,306621053051.1065,3768432837666.8145,72929116898797.45
2.884496320956988,5127300165970711.0,5882982693999510.0,330283038335363.94,341419334507067.1,193915323105.41678,333626652642.6173,4100337363668.0415,79352275846956.14
3.0421862473761276,5264280709989372.0,6045031519801234.0,339106853756348.2,350540666332693.3,210362949960.86658,361924888159.8941,4448128714606.338,86082873170090.44
3.2030299723236504,5400168561486142.0,6206178239062911.0,347860281684071.44,359589237379584.9,227581167033.1396,391548996195.51514,4812215381571.251,93128812968310.6
3.3670905717701234,5535081333566699.0,6366564589695173.0,356550898350202.25,368572879330490.56,245590100151.5294,422533611000.3938,5193023033560.555,100498331703074.98
3.5344323832055258,5669125305618243.0,6526319840602439.0,365185549907254.56,377498669172611.94,264410682011.15494,454914755513.77576,5590994407260.883,108199996059530.56
3.7051210308696363,5802396906947948.0,6685562468925934.0,373770447999468.06,386373027990886.7,284064650412.3814,488729838363.26544,6006589270202.584,116242702228651.31
3.879223451487029,5934983959344920.0,6844401565901931.0,382311249804384.06,395201803708358.0,304574549440.7943,524017655925.2902,6440284446109.257,124635676392805.5
4.0568079205167695,6066966724553070.0,7002938023164383.0,390813125507439.94,403990340835844.75,325963733167.0052,560818398722.2402,6892573893547.41,133388476242595.19
4.237944078927105,6198418792635349.0,7161265540040255.0,399280815527332.25,412743539626793.4,348256371528.9193,599173661575.9553,7363968830743.418,142510993386922.2
4.422702960505647,6329407839632169.0,7319471483843373.0,407718679321774.2,421465906528640.9,371477458124.02515,639126457048.8973,7854997900808.301,152013456544795.22
4.61115701971576,6459996277121439.0,7477637628639839.0,416130737229914.0,430161597436050.6,395652819690.2547,680721231792.1412,8366207372689.332,161906435428278.12
4.803380160110075,6590241811813069.0,7635840792915184.0,424520706519487.75,438834454953486.9,420809127094.4299,724003885488.8676,8898161374022.354,172200845242514.28
4.9994477633122765,6720197929827565.0,7794153392647075.0,432892032582382.8,447488040642606.0,446973907679.551,769021792137.5265,9451442152740.773,182907951741969.44
5.199436718578522,6849914317573173.0,7952643923206929.0,441247916046091.8,456125663047845.6,474175558848.139,815823823463.5723,10026650364846.826,194039376792664.38
5.403425452950093,6979437228974429.0,8111377381075397.0,449591336429320.3,464750402149634.7,502443362779.8585,864460374284.7325,10624405386193.92,205607104398750.4
5.611493962009095,7108809807081845.0,8270415634417856.0,457925072858964.0,473365130779895.4,531807502198.75446,914983389684.243,11245345646491.045,217623487158787.47
5.823723841249277,7238072366711225.0,8429817750008447.0,466251722276771.9,481972533442589.4,562299077119.4327,967446393870.5997,11890128984036.928,230101253122831.44
6.040198318074262,7367262643647340.0,8589640282736535.0,474573715492186.1,490575122907811.8,593950122513.0667,1021904520622.2076,12559433019934.625,243053513026128.94
6.261002284435747,7496416015041444.0,8749937532910761.0,482893331379590.06,499175254887744.8,626793626843.6583,1078414545231.7542,13253955550740.85,256493767879155.78
6.486222330124463,7625565694894282.0,8910761775743431.0,491212709470653.25,507775141053574.5,660863551432.879,1137034917878.767,13974414958669.377,270435916896959.88
6.715946776726952,7754742907909968.0,9072163466716624.0,499533861153401.94,516376860612170.7,696194850618.5168,1197825798370.258,14721550638611.412,284894265753496.7
6.950265712261491,7883977044507048.0,9234191425967706.0,507858679657493.56,524982370628036.4,732823492677.0084,1260849092198.8088,15496123441350.113,299883535148896.06
7.18927102650672,8013295799358010.0,9396893004366244.0,516188948978457.1,533593515248453.5,770786481485.2551,1326168487875.6018,16298916132446.607,315418869679524.6
7.433056447036854,8142725295484754.0,9560314233566150.0,524526351871501.06,542212033966819.1,810121878900.8342,1393849495502.5593,17130733866358.121,331515847002300.9
7.681717575977592,8272290195648972.0,9724499961991724.0,532872477026890.5,550839569039957.56,850868827843.0259,1463959486553.5234,17992404675417.8,348190487286096.56
7.935351927497144,8402013802533858.0,9889493978444688.0,541228825523316.7,559477672159085.2,893067576059.9045,1536567734839.1956,18884779973366.758,365459262944186.2
8.194058966047088,8531918149010898.0,1.005533912478906e+16,549596816642567.9,568127810460527.1,936759500569.0958,1611745458634.7593,19808735073178.258,383339108642687.3
8.45794014536803,8662024079611562.0,1.022207739897647e+16,557977793117653.75,576791371950812.8,981987132761.8273,1689565863952.41,20765169718956.996,401847431580781.7
8.72709894827539,8792351324178250.0,1.0389750049510374e+16,566373025877150.2,585469670410963.8,1028794184161.6198,1770104188944.2007,21755008631732.555,421002122039170.6
9.0016409272409,8922918564543559.0,1.0558397662305692e+16,574783718340448.2,594163949836590.9,1077225572830.4332,1853437749422.8577,22779202068997.727,440821564193837.7
9.281673745785717,9053743494980308.0,1.072806024078165e+16,583211010311736.2,602875388463154.0,1127327450416.2458,1939645985490.5476,23838726397866.633,461324647192694.0
9.567307220701432,9184842877073556.0,1.0898777279921996e+16,591655981514660.8,611605102419816.5,1179147229837.1326,2028810509267.2542,24934584681751.766,482530776493090.94
9.85865336511546,9316232589586728.0,1.1070587834947532e+16,600119654804538.6,620354149049950.4,1232733613597.7676,2121015153711.9395,26067807280475.03,504459885458548.2
10.155826432417769,9447927673826334.0,1.1243530585171218e+16,608602999090597.9,629123529931922.2,1288136622735.0024,2216346022530.924,27239452463746.074,527132447213341.75
10.458942961066125,9579942374951600.0,1.1417643893537758e+16,617106931996986.1,637914193629814.2,1345407626389.701,2314891541168.9873,28450607037950.996,550569486753853.4
10.768121820287448,9712290179623062.0,1.1592965862294306e+16,625632322287988.4,646727038200409.9,1404599372002.6223,2416742508879.479,29702386986207.633,574792593315743.0
11.083484256693197,9844983850341622.0,1.1769534385187272e+16,634179992080003.1,655562913479775.6,1465766016132.4414,2521992151870.4434,30995938121650.055,599823932996230.2
11.405153941827061,9978035456789614.0,1.1947387196538418e+16,642750718860451.1,664422623170211.9,1528963155894.3079,2630736177524.2974,32332436753912.203,625686261630833.0
11.733257020663602,1.011145640445264e+16,1.2126561917513794e+16,651345237331482.5,673306926746139.2,1594247861017.6238,2743072829689.0557,33713090368786.223,652402937924043.4
12.067922161076874,1.0245257460770944e+16,1.230709609986706e+16,659964241094553.4,682216541195483.1,1661678706521.834,2859102945039.2417,35139138321033.75,679997936833495.1
12.409280604298411,1.0379448779043168e+16,1.2489027267408818e+16,668608384190241.1,691152142611393.5,1731315806009.1628,2978930010505.029,36611852540330.65,708495863207168.1
12.75746621638438,1.0514039920283362e+16,1.2672392955428138e+16,677278282506177.6,700114367647658.9,1803220845573.2375,3102660221767.948,38132538250327.664,737921965673282.0
13.112615540712067,1.0649039873210772e+16,1.2857230748269704e+16,685974515064740.5,709103814849801.5,1877457118322.5845,3230402542822.009,39702534700809.44,768302150782431.2
13.474867851526309,1.0784457072535522e+16,1.3043578315249826e+16,694697625200938.4,718121045872706.4,1954089559517.9111,3362268766598.2607,41323215912932.61,799662997401588.4
13.844365208556836,1.092029941568686e+16,1.3231473445077376e+16,703448121639998.8,727166586594503.0,2033184782322.0122,3498373576651.638,42995991437524.15,832031771359510.9
14.221252512727972,1.1056574278116786e+16,1.3420954078929136e+16,712226479483168.1,736240928135646.5,2114811114161.0369,3638834609907.784,44722307126416.06,865436440343062.1
14.605677562982532,1.1193288527300408e+16,1.3612058342315968e+16,721033141109568.1,745344527791148.8,2199038633695.635,3783772520468.085,46503645916791.63,899905689043884.1
14.997791114242183,1.1330448535542226e+16,1.380482457586291e+16,729868517001141.0,754477809883351.8,2285939208400.4365,3933311044470.378,48341528628515.26,935468934554821.4
15.397746936527026,1.1468060191688876e+16,1.3999291365116352e+16,738732986497124.8,763641166541844.5,2375586532750.018,4087577066002.605,50237514774410.64,972156342015347.5
15.805701875257567,1.1606128911839362e+16,1.4195497569479768e+16,747626898483993.5,772834958416661.8,2468056167009.2686,4246700684066.3467,52193203383451.24,1009998840505225.1
16.221815912762718,1.1744659649136862e+16,1.4393482350372838e+16,756550572026189.1,782059515330284.0,2563425576625.9194,4410815280586.656,54210233836817.72,1049028139185457.8
16.64625223101797,1.188365690271851e+16,1.4593285198698744e+16,765504296942650.4,791315136873608.1,2661774172222.565,4580057589464.238,56290286716776.72,1089276743685524.2
17.079177275638333,1.2023124725893806e+16,1.4794945961698888e+16,774488334333635.5,800602092950520.6,2763183350185.3506,4754567766665.373,58435084668322.13,1130777972735785.8
17.5207608211511,1.216306673361659e+16,1.499850486926653e+16,783502917062033.8,809920624275466.1,2867736533846.133,4934489461344.746,60646393273521.56,1173565975043716.5
17.97117603757412,1.2303486109310702e+16,1.5204002559786094e+16,792548250193065.5,819270942827929.4,2975519215254.525,5119969887995.413,62926021938496.89,1217675746412651.0
18.430599558325603,1.244438561110428e+16,1.5411480105559238e+16,801624511395853.6,828653232267591.1,3086618997535.9795,5311159899619.916,65275824792964.73,1263143147101403.8
18.899211549492115,1.2585767577524562e+16,1.5620979037873516e+16,810731851310282.0,838067648313531.0,3201125637831.628,5508214061915.537,67697701602254.164,1310004919423123.8
19.37719578048196,1.2727633932700488e+16,1.583254137176573e+16,819870393882118.6,847514319090652.9,3319131090815.271,5711290728466.56,70193598691710.33,1358298705581506.5
19.864739696091597,1.2869986191117264e+16,1.6046209630528256e+16,829040236669292.9,856993345446293.0,3440729552782.339,5920552116935.189,72765509883384.75,1408063065742311.5
20.36203449001343,1.3012825461964432e+16,1.6262026870001658e+16,838241451121983.9,866504801239752.4,3566017506305.4795,6136164386242.32,75415477444902.73,1459337496338022.2
20.869275179813698,1.315615245311526e+16,1.6480036702695288e+16,847474082838949.6,876048733607265.6,3695093765450.7017,6358297714728.519,78145593050394.16,1512162448603225.0
21.38666068340997,1.3299967474773336e+16,1.6700283321772926e+16,856738151802442.8,885625163204837.8,3828059521547.61,6587126379284.968,80957998753353.6,1566579347338106.0
21.91439389707817,1.3444270442819576e+16,1.6922811524938022e+16,866033652593797.9,895234084431106.9,3965018389506.828,6822828835442.694,83854887971295.5,1622630609897303.8
22.452681775019734,1.3589060881890242e+16,1.7147666738250426e+16,875360554591726.5,904875465632312.5,4106076454676.915,7065587798408.062,86838506482054.19,1680359665401008.2
23.00173541052013,1.3734337928215012e+16,1.7374895039903288e+16,884718802155110.0,914549249291267.9,4251342320232.721,7315590325031.023,89911153431559.44,1739810974165058.0
23.561770118730532,1.388010033224084e+16,1.7604543183986124e+16,894108314792047.6,924255352202085.2,4400927155086.189,7573027896691.699,93075182352918.9,1801030047346453.0
24.133005521105144,1.4026346461066784e+16,1.7836658624258094e+16,903528987316673.5,933993665632308.9,4554944742309.986,7838096503089.418,96333002196602.64,1864063466800314.8
24.715665631527248,1.4173074300711386e+16,1.8071289537951244e+16,912980689995229.9,943764055473893.5,4713511528063.519,8110996726917.075,99687078371530.83,1928958905144221.0
25.309978944157795,1.4320281458233324e+16,1.8308484849622724e+16,922463268682671.4,953566362384417.1,4876746671009.747,8391933829401.811,103139933796823.61,1995765146025112.2
25.91617852304095,1.4467965163723064e+16,1.8548294255070436e+16,931976544950957.2,963400401919698.2,5044772092210.528,8681117836691.753,106694149963965.5,2064532104583862.0
26.53450209350177,1.4616122272182128e+16,1.87907682453247e+16,941520316210095.5,973265964658939.8,5217712525486.521,8978763627065.64,110352368009106.47,2135310848111887.0
27.165192135371807,1.4764749265303062e+16,1.903595813072528e+16,951094355822831.2,983162816323245.1,5395695568226.768,9285091018940.926,114117289795194.94,2208153616893755.5
27.808495978079243,1.4913842253162744e+16,1.928391606508978e+16,960698413213689.8,993090697888379.4,5578851732631.428,9600324859652.53,117991679003598.52,2283113845229070.0
28.464665897640828,1.5063396975837804e+16,1.9534695069976684e+16,970332213973065.5,1003049325692346.5,5767314497369.157,9924695114972.049,121978362234852.89,2360246182626295.0
29.133959215593645,1.5213408804949914e+16,1.9788349059042164e+16,979995459956742.1,1013038391538261.0,5961220359629.382,10258436959333.674,126080230118113.88,2439606515160208.5
29.816638399905518,1.5363872745145404e+16,2.0044932862486868e+16,989687829381216.8,1023057562792905.8,6160708887546.738,10601790866729.764,130300238428863.69,2521251986984198.0
30.51297116790363,1.5514783435512064e+16,2.0304502251584756e+16,999408976914967.0,1033106482481052.6,6365922772973.3545,10955002702234.555,134641409214363.02,2605241021987136.5
31.223230591261704,1.5666135150933256e+16,2.056711396328353e+16,1009158533765669.4,1043184769375634.1,6577007884571.581,11318323814110.611,139106831926286.75,2691633345583986.5
31.947695203086937,1.5817921803377314e+16,2.083282572485957e+16,1018936107763257.4,1053292018083606.6,6794113321197.059,11692011126447.268,143699664559926.3,2780490006627824.5
32.686649107148675,1.5970136943117404e+16,2.110169627860992e+16,1028741283438512.9,1063427799127180.4,7017391465538.786,12076327232274.87,148423134799266.97,2871873399429711.5
33.44038208929165,1.6122773759875938e+16,2.137378540655666e+16,1038573622096775.6,1073591659020019.0,7246998037979.721,12471540487093.564,153280541167184.7,2965847285871683.5
34.20918973107749,1.627582512437731e+16,2.1649153953943452e+16,1048432664493928.8,1083783123031756.5,7483092169058.921,12877925132614.662,158275254136134.66,3062476770602624.5
34.993373525699035,1.6429283427266222e+16,2.1927863857548052e+16,1058317920462872.1,1094001684471498.0,7725836380346.121,13295761272063.188,163410717459910.56,3161828510235096.0
35.793240996213015,1.658314082321058e+16,2.220997816647227e+16,1068228884633586.4,1104246820927723.0,7975396748117.532,13725335141907.584,168690449075431.06,3263970456734892.5
36.60910581613728,1.6737389069302822e+16,2.24955610679013e+16,1078165026026319.8,1114517983517371.0,8231942885044.0205,14166939088565.041,174118042434398.38,3368972064646823.5
37.44128793246003,1.6892019566304138e+16,2.278467791138399e+16,1088125790707673.9,1124814599629809.5,8495648012543.027,14620871692152.186,179697167622938.0,3476904267414752.5
38.29011369110923,1.7047023359090696e+16,2.3077395232912292e+16,1098110601819368.6,1135136072956549.0,8766689014966.54,15087437860817.637,185431572521869.38,3587839499648027.0
39.15591596493141,1.7202391136932502e+16,2.337378077875095e+16,1108118859596192.2,1145481783509796.5,9045246493636.35,15566948924857.67,191325083964351.94,3701851719329571.0
40.03903428423004,1.7358113233588828e+16,2.367390352896612e+16,1118149941372154.5,1155851087628831.0,9331504820654.365,16059722730491.953,197381608889390.28,3819016429935769.0
40.93981496991464,1.7514179627204178e+16,2.3977833720603116e+16,1128203201573783.8,1166243317973064.5,9625652192410.691,16566083733168.83,203605135489597.6,3939410702436939.5
41.85861126931294,1.767057993999078e+16,2.4285642870460664e+16,1138277971699682.0,1176657783500903.8,9927880682707.61,17086363090259.848,209999734351500.94,4063113197144819.0
42.7957834946992,1.7827303437684858e+16,2.459740379741066e+16,1148373560285480.0,1187093769433531.5,10238386295412.453,17620898752997.203,216569559586574.4,4190204185371804.5
43.751699164593184,1.798433902876599e+16,2.4913190644212468e+16,1158489252853569.0,1197550537202949.0,10557369016548.076,18170035557497.812,223318849951105.44,4320765570864829.5
44.72673314788505,1.8141675263432476e+16,2.523307889877144e+16,1168624311847095.2,1208027324383725.2,10885032865725.639,18734125314712.4,230251929952886.97,4454880910974776.5
