t(s),Total solute volume 1,Total retention volume 1,Total 1 volume 1,Total 2 volume 1,Total 3 volume 1,Total 4 volume 1,Total 5 volume 1,Total 6 volume 1
0.1,1225891390677807.5,1918426285810987.5,281662698191601.44,410872196941578.9,0.0,0.0,0.0,0.0
0.202,1833987234094765.2,2898760416558461.0,421379743720712.5,614682850177793.9,10834566254.644655,31662721385.29666,860135008992.6477,27807956268558.78
0.30604000000000003,2289608068617996.0,3655553191375965.5,526063892214088.6,767389651011134.0,27322633728.10323,79847399322.65193,2169346744354.8445,70215062755341.43
0.41216080000000005,2668311743732091.0,4303761935330100.0,613075434831586.4,894316739538152.6,48241349214.8374,140980295769.38376,3830427511060.2075,124038368072225.72
0.5204040160000001,2998692477622581.5,4886593695771370.0,688984223633014.0,1005047813236469.5,73012598996.32365,213371939254.97543,5797457902930.936,187785338838120.9
0.6308120963200001,3295076437594327.0,5425566759941977.0,757081861041329.5,1104384459592405.1,101297730314.03662,296032666082.0636,8043543030136.09,260583128287378.97
0.7434283382464002,3565827630375946.0,5933184626164342.0,819290074201557.4,1195129976073449.8,132876509176.65193,388318881276.44257,10551193940789.025,341864556182145.25
0.8582969050113283,3816324973238478.0,6417461401923235.0,876844731474919.6,1279087171472674.2,167597086456.93457,489786838557.1134,13308352984855.45,431238788827294.9
0.9754628431115548,4050266922771328.0,6883897357074869.0,930595595972284.0,1357495627967887.5,205351191940.554,600120147228.4576,16306423511858.451,528427315512343.75
1.094972099973786,4270324453394913.0,7336463957527852.0,981156354909960.5,1431250554731988.8,246060301947.32678,719089348423.432,19539171258222.79,633228273582390.5
1.2168715419732616,4478500454386915.5,7778143997571597.0,1028987195227451.2,1501023244170658.5,289667261243.78424,846527431019.4238,23002058959656.883,745494850134657.9
1.3412089728127268,4676342218476967.0,8211249771769822.0,1074443625296130.2,1567332290030482.8,336130886939.65546,982314062118.7811,26691817804701.727,865121375212494.9
1.4680331522689813,4865074306631984.0,8637621303874191.0,1117807002138082.2,1630588118629306.2,385422323994.7258,1126364936438.906,30606158003260.598,992033931211122.2
1.597393815314361,5045685453535171.0,9058755548861150.0,1159304498963480.2,1691122116272202.5,437522489031.00964,1278624306165.7341,34743565787441.57,1126183767507648.5
1.729341691620648,5218987557740325.0,9475893791717112.0,1199122658839788.8,1749206400510745.0,492420221590.0364,1439059578243.761,39103156596045.28,1267542538230372.0
1.863928525453061,5385656985845797.0,9890082638655242.0,1237416884802686.8,1805067663733284.0,550110912698.1592,1607657306550.1213,43684566165194.39,1416098769889039.8
2.001207095962122,5546264266601066.0,1.0302217723133176e+16,1274318262419935.8,1858897125501600.2,610595465679.8618,1784420155029.5132,48487868004637.15,1571855184985218.8
2.1412312378813647,5701295928925107.0,1.0713075749312648e+16,1309938577328297.5,1910857851825171.8,673879494476.202,1969364554913.9106,53513509735492.92,1734826637449190.8
2.284055862638992,5851170882898741.0,1.1123338457638008e+16,1344374078955663.8,1961090245447568.5,739972695682.2062,2162518869618.6584,58762263223766.42,1905038495546971.5
2.4297369798917723,5996252922468731.0,1.1533610865881018e+16,1377708353161714.0,2009716236277958.8,808888350217.5479,2363921938479.3057,64235185008538.33,2082525358675385.8
2.578331719489608,6136860415762408.0,1.1944435370791296e+16,1410014548699573.2,2056842529216471.0,880642923454.9543,2573621908222.1123,69933584549031.59,2267330027732142.5
2.7298983538794,6273273919149712.0,1.2356302802528942e+16,1441357126634502.8,2102563156098554.8,955255741311.064,2791675286428.242,75858998504104.53,2459502671114333.0
2.884496320956988,6405742233798976.0,1.2769661199735718e+16,1471793251907529.2,2146961505622433.8,1032748725774.5758,3018146168698.751,82013169731849.2,2659100143780467.0
3.0421862473761276,6534487276940264.0,1.3184922854932044e+16,1501373912564442.5,2190111956011505.0,1113146177536.278,3253105603471.648,88398030029699.48,2866185427605115.5
3.2030299723236504,6659708039290304.0,1.3602470030207772e+16,1530144829019849.8,2232081201392848.0,1196474596379.6074,3496631067191.9443,95015685873229.34,3080827168967976.0
3.3670905717701234,6781583829548663.0,1.4022659638561812e+16,1558147199517672.8,2272929339229122.0,1282762532164.9653,3748806028890.843,101868406584511.33,3303099295120781.0
3.5344323832055258,6900276956672105.0,1.444582711194311e+16,1585418316414622.2,2312710769314993.0,1372040460844.0752,4009719587914.649,108958614488210.84,3533080695004430.0
3.7051210308696363,7015934964369968.0,1.4872289623481498e+16,1611992079581337.0,2351474942695148.0,1464340681138.1433,4279466172043.8364,116288876708692.22,3770854953273170.0
3.879223451487029,7128692505710454.0,1.5302348792249404e+16,1637899427114795.8,2389266989961074.5,1559697228419.4646,4558145285889.823,123861898333341.97,4016510128615430.5
4.0568079205167695,7238672926037966.0,1.5736292969926798e+16,1663168699031885.2,2426128251784832.0,1658145803028.8396,4845861301481.431,131680516722336.77,4270138569245281.5
4.237944078927105,7345989607633466.0,1.617439918705257e+16,1687825946220623.2,2462096729598111.0,1759723710796.742,5142723284518.138,139747696787604.9,4531836759817425.0
4.422702960505647,7450747118352630.0,1.6616934820134322e+16,1711895194353035.2,2497207470572150.5,1864469813953.937,5448844850988.472,148066527096914.56,4801705195094648.0
4.61115701971576,7553042197902940.0,1.706415902834697e+16,1735398670493732.0,2531492898180303.5,1972424490946.365,5764344049812.914,156640216685149.53,5079848276544077.0
4.803380160110075,7652964608795390.0,1.7516323998874394e+16,1758356998615850.0,2564983097404740.0,2083629603930.1753,6089343267934.638,165472092475572.44,5366374228710979.0
4.9994477633122765,7750597873841247.0,1.7973676032423172e+16,1780789369049484.2,2597706061917362.0,2198128472931.9746,6423969154891.573,174565597230479.8,5661395032756778.0
5.199436718578522,7846019918006439.0,1.8436456494532984e+16,1802713685955124.2,2629687909204971.5,2315965855827.463,6768352564395.896,183924287964011.62,5965026374982238.0
5.403425452950093,7939303629222478.0,1.8904902653643604e+16,1824146696176440.5,2660953068531830.0,2437187933428.613,7122628510846.028,193551834760748.7,6277387608507802.0
5.611493962009095,8030517350191117.0,1.9379248423164612e+16,1845104102238095.2,2691524445773880.5,2561842299080.9346,7486936139022.594,203452019952572.72,6598601726570880.0
5.823723841249277,8119725311163043.0,1.9859725021821476e+16,1865600661781630.5,2721423568469708.5,2689977952264.015,7861418705487.721,213628737613569.1,6928795346135776.0
6.040198318074262,8206988012009692.0,2.034656156414909e+16,1885650275350885.2,2750670713876530.5,2821645295764.5415,8246223570428.26,224085993338736.66,7268098700707048.0
6.261002284435747,8292362560557522.0,2.0839985591063924e+16,1905266064128217.8,2779285022366971.5,2956896136053.531,8641502198867.503,234827904277297.66,7616645641398960.0
6.486222330124463,8375902973050948.0,2.134022354885456e+16,1924460438969288.0,2807284598132810.5,3095783686552.5464,9047410170323.809,245858699395558.72,7974573645449095.0
6.715946776726952,8457660441703606.0,2.1847501223632828e+16,1943245161876107.0,2834686598858052.5,3238362573517.2866,9464107196123.12,257182719947768.97,8342023831477670.0
6.950265712261491,8537683573550183.0,2.2362044137213476e+16,1961631400875966.5,2861507315772933.0,3384688844304.496,9891757143681.057,268804420136398.06,8719140980890024.0
7.18927102650672,8616018604189345.0,2.288407790950431e+16,1979629779131347.8,2887762245292444.5,3534819977819.4834,10330528067162.766,280728367945736.88,9106073564900426.0
7.433056447036854,8692709589491674.0,2.3413828591749104e+16,1997250418987052.0,2913466153269586.5,3688814896968.351,10780592244006.43,292959246134856.7,9502973776724948.0
7.681717575977592,8767798577913166.0,2.395152297434933e+16,2014502981561194.0,2938633132748245.5,3846733982961.943,11242126216863.76,305501853377798.94,9909997568549112.0
7.935351927497144,8841325765690629.0,2.449738887247293e+16,2031396702403153.5,2963276655978857.0,4008639091338.1694,11715310840567.822,318361105540393.06,1.0327304692927982e+16
8.194058966047088,8913329636888523.0,2.5051655392222508e+16,2047940423670947.5,2987409621356730.0,4174593569586.2476,12200331333788.307,331542037084482.7,1.0755058748318424e+16
8.45794014536803,8983847090006159.0,2.5614553179767572e+16,2064142623220692.5,3011044395856035.0,4344662276271.1167,12697377335076.717,345049802591461.56,1.119342722848188e+16
8.72709894827539,9052913552633136.0,2.6186314655531916e+16,2080011440950015.0,3034192853457879.5,4518911601568.763,13206642963041.703,358889678398073.06,1.1642581575528152e+16
9.0016409272409,9120563085451926.0,2.676717423526141e+16,2095554702693862.2,3056866410008085.5,4697409489134.556,13728326880426.072,373067064338259.4,1.2102697236399686e+16
9.281673745785717,9186828476725264.0,2.7357368539571828e+16,2110779941934042.0,3079076054885702.5,4880225459236.087,14262632361886.36,387587485585650.0,1.257395372262007e+16
9.567307220701432,9251741328266466.0,2.79571365933783e+16,2125694419551938.2,3100832379817114.0,5067430633090.524,14809767365299.69,402456594591935.44,1.3056534673152432e+16
9.85865336511546,9315332133772436.0,2.8566720016444132e+16,2140305141826369.0,3122145605130120.5,5259097758354.287,15369944606445.512,417680173116965.75,1.3550627920233418e+16
10.155826432417769,9377630350294334.0,2.918636320614102e+16,2154618876854843.0,3143025603708334.5,5455301235718.766,15943381636927.436,433264134346943.25,1.405642555806388e+16
10.458942961066125,9438664463532676.0,2.981631351338749e+16,2168642169555844.2,3163481922875544.5,5656117146572.439,16530300925219.713,449214525097538.75,1.4574124014254172e+16
10.768121820287448,9498462047564944.0,3.045682141262642e+16,2182381355391945.8,3183523804414168.0,5861623281694.315,17130929940736.053,465537528099178.6,1.5103924123933752e+16
11.083484256693197,9557049819546626.0,3.110814066660569e+16,2195842572937995.2,3203160202898945.5,6071899170948.694,17745501240833.3,482239464362109.4,1.5646031206448226e+16
11.405153941827061,9614453689866744.0,3.177052848664875e+16,2209031775404947.0,3222399802507176.5,6287026113955.086,18374252560674.125,499326795619187.9,1.6200655144576042e+16
11.733257020663602,9670698808187798.0,3.2444245689025944e+16,2221954741218030.0,3241251032449543.0,6507087211711.026,19017426905884.105,516806126844641.8,1.6768010466208322e+16
12.067922161076874,9725809605753896.0,3.312955684797892e+16,2234617083737575.8,3259722081150232.5,6732167399148.936,19675272647948.16,534684208847295.06,1.7348316428442802e+16
12.409280604298411,9779809834311198.0,3.3826730445893096e+16,2247024260201431.2,3277820909291527.0,6962353478611.1,20348043622300.246,552967940937024.9,1.7941797104050992e+16
12.75746621638438,9832722601949456.0,3.4536039021067696e+16,2259181579959926.5,3295555261826593.5,7197734154229.555,21035999229068.383,571664373663406.2,1.8548681470284972e+16
13.112615540712067,9884570406141782.0,3.5257759313488652e+16,2271094212067207.0,3312932679053119.5,7438400067200.503,21739404536445.156,590780711625727.8,1.9169203499997124e+16
13.474867851526309,9935375164232936.0,3.5992172408973148e+16,2282767192286193.0,3329960506831795.0,7684443831944.682,22458530386658.49,610324316353708.4,1.9803602255049924e+16
13.844365208556836,9985158241600614.0,3.673956388202312e+16,2294205429559036.0,3346645906025001.5,7935960073147.629,23193653504526.0,630302709258485.1,2.045212198200227e+16
14.221252512727972,1.0033940477694204e+16,3.750022393769283e+16,2305413711989770.0,3362995861223917.0,8193045463675.616,23945056608581.12,650723574653464.1,2.1115012210059172e+16
14.605677562982532,1.0081742210134032e+16,3.827444755275401e+16,2316396712381432.0,3379017188825742.5,8455798763364.644,24713028524763.42,671594762844947.1,2.1792527851279724e+16
14.997791114242183,1.0128583297038258e+16,3.906253461641574e+16,2327158993365891.5,3394716544516763.0,8724320858681.672,25497864302671.496,692924293292405.2,2.248492930304107e+16
15.397746936527026,1.0174483137728338e+16,3.986479007083796e+16,2337705012161169.5,3410100430212094.5,8998714803258.805,26299865334381.113,714720357838503.6,2.3192482552760224e+16
15.805701875257567,1.021946069195017e+16,4.068152405165856e+16,2348039124987747.0,3425175200497810.5,9279085859302.467,27119339475835.176,736991324009061.4,2.3915459284878708e+16
16.221815912762718,1.0263534497735746e+16,4.151305202873951e+16,2358165591172457.5,3439947068617560.0,9565541539881.123,27956601170816.24,759745738383218.0,2.4654136990119852e+16
16.64625223101797,1.0306722688018538e+16,4.2359694947320056e+16,2368088576966103.5,3454422112041381.0,9858191652095.988,28811971577515.297,782992330034213.9,2.5408799077030224e+16
17.079177275638333,1.0349043006106246e+16,4.3221779369756744e+16,2377812159098422.0,3468606277651561.5,10157148341140.627,29685778697714.977,806740014041235.4,2.617973498582036e+16
17.5207608211511,1.0390512820104842e+16,4.4099637618013944e+16,2387340328092260.5,3482505386577050.0,10462526135256.59,30578357508607.797,830997895072932.9,2.6967240304522984e+16
17.97117603757412,1.0431149136380034e+16,4.4993607917062696e+16,2396676991356488.0,3496125138705258.5,10774441991592.42,31490050097273.164,855775271043224.2,2.7771616887488852e+16
18.430599558325603,1.0470968612134962e+16,4.590403453933299e+16,2405825976075770.0,3509471116897525.0,11093015342975.605,32421205797840.652,881081636840120.5,2.8593172976243836e+16
18.899211549492115,1.050998756717512e+16,4.683126795035921e+16,2414791031913843.5,3522548790932414.5,11418368145606.898,33372181331366.996,906926688128397.4,2.9432223322732436e+16
19.37719578048196,1.054822199492735e+16,4.77756649557494e+16,2423575833545143.0,3535363521198715.5,11750624927687.688,34343340948461.742,933320325226940.6,3.0289089314975244e+16
19.864739696091597,1.0585687572771804e+16,4.873758884960443e+16,2432183983028758.0,3547920562158455.0,12089912838991.988,35335056574692.99,960272657061753.0,3.116409910517002e+16
20.36203449001343,1.0622399671743182e+16,4.9717409564504456e+16,2440619012037358.5,3560225065598286.0,12436361701395.648,36347707958812.4,987794005195563.6,3.205758774026986e+16
20.869275179813698,1.065837336565061e+16,5.07155038231783e+16,2448884383952601.5,3572282083686183.5,12790104060375.193,37381682823837.2,1015894907935185.4,3.296989729506955e+16
21.38666068340997,1.0693623439663194e+16,5.173225529196445e+16,2456983495837795.0,3584096571848933.5,13151275237490.86,38437377021030.15,1044586124517635.5,3.390137700783843e+16
21.91439389707817,1.0728164398403406e+16,5.276805473616854e+16,2464919680297404.5,3595673391484834.0,13520013383867.37,39515194686822.27,1073878639376296.0,3.485238341853593e+16
22.452681775019734,1.0762010473587578e+16,5.3823300177419384e+16,2472696207232553.0,3607017312524364.5,13896459534688.773,40615548402721.734,1103783666488279.8,3.582328050964919e+16
23.00173541052013,1.0795175631248768e+16,5.4898397053122024e+16,2480316285500606.0,3618133015851119.0,14280757664721.93,41738859358256.875,1134312653804305.5,3.6814439849694216e+16
23.561770118730532,1.0827673578575562e+16,5.599375837810281e+16,2487783064486362.0,3629025095593872.0,14673054744885.727,42885557517002.83,1165477287762431.5,3.782624073942259e+16
24.133005521105144,1.0859517770396342e+16,5.710980490853858e+16,2495099635592012.5,3639698061299852.5,15073500799882.97,44056081785741.44,1197289497886967.2,3.88590703607778e+16
24.715665631527248,1.0890721415337558e+16,5.824696530826282e+16,2502269033651963.0,3650156339998758.0,15482248966912.434,45250880186807.6,1229761461474109.5,3.991332392864671e+16
25.309978944157795,1.0921297481680518e+16,5.940567631753427e+16,2509294238278593.0,3660404278165798.0,15899455555478.963,46470410033676.2,1262905608365645.5,4.098940484545459e+16
25.91617852304095,1.0951258702941348e+16,6.058638292435801e+16,2516178175144263.0,3670446143591760.5,16325280108320.783,47715138109845.2,1296734625812302.8,4.208772485865025e+16
26.53450209350177,1.0980617583194696e+16,6.178953853844114e+16,2522923717204487.0,3680286127167438.0,16759885463473.01,48985540851072.47,1331261463428343.2,4.320870422113161e+16
27.165192135371807,1.1009386402161548e+16,6.301560516786873e+16,2529533685866956.5,3689928344588763.5,17203437817486.645,50282104531025.99,1366499338238952.2,4.4352771854663976e+16
27.808495978079243,1.1037577220079104e+16,6.426505359858392e+16,2536010852110410.5,3699376837989088.5,17656106789824.246,51605325450405.805,1402461739822056.5,4.5520365516342856e+16
28.464665897640828,1.1065201882369836e+16,6.553836357675045e+16,2542357937557446.0,3708635577504042.0,18118065488451.918,52955710129602.266,1439162435546337.0,4.671193196815478e+16
29.133959215593645,1.1092272024124856e+16,6.683602399408304e+16,2548577615504589.0,3717708462774155.5,18589490576649.797,54333775504952.695,1476615475907081.2,4.792792714969072e+16
29.816638399905518,1.1118799074415664e+16,6.815853307622162e+16,2554672511913018.5,3726599324390091.0,19070562341061.56,55740049128660.53,1514835199961676.5,4.916881635407139e+16
30.51297116790363,1.114479426044805e+16,6.9506398574232456e+16,2560645206362870.0,3735311925284712.5,19561464761006.6,57175069372445.88,1553836240866550.0,5.043507440713691e+16
31.223230591261704,1.1170268611568712e+16,7.088013795931481e+16,2566498232973936.5,3743849962076123.5,20062385579075.715,58639385634991.47,1593633531517384.0,5.172718584996469e+16
31.947695203086937,1.119523296313725e+16,7.228027862078963e+16,2572234081295196.0,3752217066365313.5,20573516373034.58,60133558553255.914,1634242310294478.5,5.3045645124771304e+16
32.686649107148675,1.121969796027249e+16,7.370735806745342e+16,2577855197165621.0,3760416805991762.5,21095052629058.066,61658160217723.75,1675678126915230.5,5.439095676426151e+16
33.44038208929165,1.1243674061482606e+16,7.516192413237157e+16,2583363983548260.5,3768452686250238.0,21627193816319.26,63213774391662.74,1717956848395578.8,5.5763635584486744e+16
34.20918973107749,1.1267171542188172e+16,7.664453518119355e+16,2588762801339638.0,3776328151071422.5,22170143462956.848,64800996734463.47,1761094665122488.0,5.7164206881274424e+16
34.993373525699035,1.1290200498145076e+16,7.81557603240659e+16,2594053970156276.0,3784046584169312.0,22724109233447.35,66420435029133.71,1805108097039472.8,5.859320663029319e+16
35.793240996213015,1.1312770848775302e+16,7.969617963122288e+16,2599239769099888.5,3791611310157396.0,23289303007404.75,68072709414023.63,1850013999947175.2,6.0051181690821656e+16
36.60910581613728,1.1334892340411324e+16,8.126638435233386e+16,2604322437502960.0,3799025595636239.5,23865940959835.6,69758452618859.14,1895829571921162.2,6.153869001328345e+16
37.44128793246003,1.1356574549461006e+16,8.28669771396854e+16,2609304175655775.0,3806292650254072.5,24454243642873.637,71478310205159.97,1942572359848965.0,6.305630085061752e+16
38.29011369110923,1.1377826885497954e+16,8.449857227528029e+16,2614187145516542.0,3813415627742671.0,25054436069020.836,73232940811123.73,1990260266088630.0,6.4604594973554264e+16
39.15591596493141,1.1398658594282382e+16,8.616179590192893e+16,2618973471405458.5,3820397626929766.0,25666747795922.01,75023016401054.44,2038911555250884.8,6.6184164889863416e+16
40.03903428423004,1.141907876071762e+16,8.78572862584182e+16,2623665240683987.5,3827241692729999.0,26291413012699.543,76849222519417.75,2088544861107166.5,6.779561506764712e+16
40.93981496991464,1.143909631174581e+16,8.95856939188324e+16,2628264504420175.5,3833950817115412.0,26928670627875.55,78712258549607.67,2139179193625810.0,6.9439562162747736e+16
41.85861126931294,1.1458720019187226e+16,9.134768203611523e+16,2632773278041057.5,3840527940067100.0,27578764358909.543,80612837977503.22,2190833946138624.8,7.111663525034474e+16
