t(s),Total solute volume 1,Total retention volume 1,Total 1 volume 1,Total 2 volume 1,Total 3 volume 1,Total 4 volume 1,Total 5 volume 1,Total 6 volume 1
0.1,898666397951953.1,1036126891881881.2,66325422320955.914,71135071608968.8,0.0,0.0,0.0,0.0
0.202,1353995080776833.5,1561103958806754.5,99930625993459.56,107177188134553.3,2022113.8831551094,3681811.2310068747,49265224.14913831,1008932758.9255128
0.30604000000000003,1700773667443915.8,1960927619848474.0,125524368368903.12,134626884560736.8,5130701.736990462,9341846.442823222,125000750.03141965,2560001620.902145
0.41216080000000005,1994097364868497.2,2299120363115007.5,147172911359517.62,157845291774944.5,9113675.945732145,16593941.620662125,222039293.31738976,4547365133.549442
0.5204040160000001,2254591457365551.5,2599462278001009.0,166398489139457.88,178465030197123.44,13876934.103198493,25266757.50617757,338088187.497362,6924066994.199002
0.6308120963200001,2492531315486252.0,2873800434710334.5,183959467989899.7,197299459748770.2,19370016.954649873,35268419.18973657,471918070.34021014,9664928907.933456
0.7434283382464002,2713888878133028.5,3129020227956874.0,200296602535678.6,214821296787487.9,25564091.323903088,46546427.97121865,622826466.3505651,12755563693.564783
0.8582969050113283,2922489771047103.0,3369532444698306.5,215692240313341.6,231333363544446.66,32442905.162156668,59071192.542874314,790417419.6538229,16187861901.643236
0.9754628431115548,3120955505718539.5,3598359579953543.0,230339860079334.53,247043169068202.8,39998331.46809289,72827915.47334822,974492928.3506376,19957768293.59416
1.094972099973786,3311173728237607.5,3817678013872765.0,244378778185876.0,262100132365864.22,48227900.76029719,87812100.39704582,1174992827.0190504,24064050591.414494
1.2168715419732616,3494556370522542.0,4029115649135636.0,257913201245328.7,276616016689202.97,57133318.53628939,104026852.64184815,1391958666.9220262,28507559721.28891
1.3412089728127268,3672191902718787.5,4233927451461677.0,271023463008236.94,290676981265380.2,66719519.546885185,121481157.27635771,1625510674.8927684,33290757918.266693
1.4680331522689813,3844940307665292.0,4433104951089790.0,283773033885013.25,304351099120625.06,76994036.50049391,140188729.6630543,1875832372.8154056,38417403724.99429
1.597393815314361,4013495059639502.0,4627447701595739.0,296213095242315.1,317693263085972.4,87966563.65016775,160167220.84892812,2143159945.1177287,43892334232.59759
1.729341691620648,4178425100142713.5,4817611676153076.0,308385637395471.56,330748508443498.2,99648646.81491499,181437653.1643453,2427774686.635177,49721310409.28752
1.863928525453061,4340204164323452.5,5004143079623659.0,320325624023917.44,343554334296344.9,112053458.59133637,204024010.93425292,2729997526.0018725,55910904936.84955
2.001207095962122,4499231818861371.0,5187502604320488.0,332062544856972.8,356142368848962.06,125195632.83250283,227952939.1016307,3050184992.993653,62468419619.9925
2.1412312378813647,4655848901421776.0,5368083231024815.0,343621555171604.25,368539591536601.94,139091141.51204172,253253519.0248444,3388726218.5191555,69401823944.81918
2.284055862638992,4810349078222634.0,5546223554356155.0,355024328790278.44,380769247879107.25,153757202.64162716,279957100.8162196,3746040691.1772995,76719709132.12546
2.4297369798917723,4962987647608232.0,5722217932909218.0,366289707822338.5,392851546338892.06,169212211.43467996,308097178.0067168,4122576580.171488,84431253789.9347
2.578331719489608,5113988350007144.0,5896324340839811.0,377434205268026.9,404804197371751.94,185475689.2140473,337709294.5183924,4518809490.527516,92546198419.79727
2.7298983538794,5263548708640563.0,6068770525471109.0,388472399185585.2,416642836177370.06,202568246.10815093,368830976.7425293,4935241554.245109,101074826803.15009
2.884496320956988,5411844269959379.0,6239758896336312.0,399417245653640.0,428381358356454.5,220511554.6417831,401501685.4544716,5372400786.88014,110027952823.80626
3.0421862473761276,5559032008180823.0,6409470450465974.0,410280330040576.9,440032189401143.25,239328332.0715223,435762783.6504361,5830840657.175523,119416911653.76309
3.2030299723236504,5705253086421933.0,6578067955900362.0,421072070790706.3,451606503266190.0,259042329.91026604,471657518.16886276,6311140024.572154,129253581663.65831
3.3670905717701234,5850635116927223.0,6745698557479337.0,431801886227730.0,463114401238980.25,279678329.02342933,509231007.99268115,6813902251.617723,139550273820.52243
3.5344323832055258,5995294026468475.0,6912495927816743.0,442478332245891.0,474565059659940.5,301262140.2999811,548530249.6102608,7339756368.481043,150319893689.04974
3.7051210308696363,6139335608430424.0,7078582056634848.0,453109216849303.4,485966852737854.4,323820608.88830644,589604121.9777576,7889356413.255505,161575836128.3241
3.879223451487029,6282856823051499.0,7244068749935261.0,463701696118118.7,497327455482671.8,347381622.36676997,632503402.0812807,8463381821.141335,173332016136.07596
4.0568079205167695,6425946894062772.0,7409058894386364.0,474262355145171.8,508653930511350.1,371974122.01135224,677280785.4527366,9062537698.96414,185602874471.5852
4.237944078927105,6568688239270475.0,7573647530255591.0,484797276716939.2,519952801709279.6,397628116.8594474,723990911.7768842,9687555167.816298,198403384673.01947
4.422702960505647,6711157264746181.0,7737922767087939.0,495312099928176.9,531230117095408.9,424374700.27944803,772690395.0608165,10339191766.748034,211749061325.07745
4.61115701971576,6853425046233936.0,7901966569351832.0,505812070472688.6,542491502759899.0,452246068.8137599,823437857.9428904,11018231911.846828,225655969461.0154
4.803380160110075,6995557916711171.0,8065855433884123.0,516302084007808.1,553742209373225.9,481275543.109046,876293969.8020003,11725487406.168892,240140735006.13345
4.9994477633122765,7137617975399390.0,8229660976771832.0,526786723721596.5,564987152477589.4,511497590.784454,931321488.3955067,12461797996.886522,255220556188.26193
5.199436718578522,7279663530666908.0,8393450444014247.0,537270293020932.4,576230947545413.0,542947851.1185403,988585304.8085717,13228031976.744852,270913215855.7199
5.403425452950093,7421749487005223.0,8557287157705347.0,547756844092033.56,587477940610963.6,575663161.4599371,1048152491.5421077,14025086827.515368,287237094655.3755
5.611493962009095,7563927684462885.0,8721230907402535.0,558250202952126.75,598732235138662.8,609681585.2869111,1110092353.6028728,14853889903.62109,304211185033.43854
5.823723841249277,7706247197477748.0,8885338294683934.0,568753991504544.6,609997715677524.9,645042441.8574053,1174476482.4896178,15715399154.51239,321855106029.87177
6.040198318074262,7848754598884973.0,9049663037555556.0,579271647023646.9,621278068759053.9,681786337.4051579,1241378812.994196,16610603884.709852,340189118844.2408
6.261002284435747,7991494193933187.0,9214256240280088.0,589806439426208.1,632576801421083.9,719955197.848967,1310875682.757802,17540525550.71245,359234143156.57166
6.486222330124463,8134508228370772.0,9379166633309944.0,600361486629083.2,643897257679095.4,759592302.9920676,1383045894.540366,18506218594.210323,379011774191.73083
6.715946776726952,8277837074030641.0,9544440787278198.0,610939768246152.8,655242633216444.8,800742322.1969944,1457970781.176499,19508771311.245163,399544300520.0359
6.950265712261491,8421519394821444.0,9710123304399178.0,621544137839182.9,666615988523577.5,843451351.5284923,1535734273.204401,20549306757.137253,420854722590.3605
7.18927102650672,8565592295598994.0,9876256990131928.0,632177333905176.9,678020260682155.5,887766952.3633538,1616422969.1657143,21628983687.151566,442966771995.2005
7.433056447036854,8710091456033694.0,1.004288300754494e+16,642841989756355.2,689458273961479.6,933738191.4714434,1700126208.5840993,22748997533.007835,465904931469.81464
7.681717575977592,8855051251286863.0,1.0210041016473138e+16,653540642426601.8,700932749370800.4,981415682.577112,1786936147.6392703,23910581415.456932,489694455630.02655
7.935351927497144,9000504861057734.0,1.0377769299267472e+16,664275740719577.0,712446313291049.2,1030851629.4143972,1876947837.5608397,25115007193.251587,514361392455.39233
8.194058966047088,9146484368348914.0,1.0546104874690974e+16,675049652498049.4,724001505292765.5,1082099870.2933097,1970259305.7735581,26363586548.93185,539932605526.32996
8.45794014536803,9293020849118540.0,1.071508360130846e+16,685864671300589.6,735600785232604.0,1135215924.1979246,2066971639.831644,27657672111.931458,566435797025.6025
8.72709894827539,9440144453833862.0,1.0884740271539506e+16,696723022360591.6,747246539708819.6,1190257038.4402826,2167189074.1858225,28998658619.5876,593899531516.0676
9.0016409272409,9587884481810538.0,1.1055108697394998e+16,707626868092825.5,758941087945702.2,1247282237.8968697,2271019079.831961,30387984116.70932,622353260508.107
9.281673745785717,9736269449111830.0,1.1226221788788582e+16,718578313104676.1,770686687168197.1,1306352375.8573015,2378572456.8951488,31827131194.423157,651827347831.4883
9.567307220701432,9885327150683688.0,1.1398111625203712e+16,729579408781994.1,782485537520302.0,1367530186.5172875,2489963430.207612,33317628269.080315,682353095827.6638
9.85865336511546,1.0035084717322204e+16,1.1570809521403514e+16,740632157493532.5,794339786574403.2,1430880339.1503634,2605309747.9433484,34861050902.06344,713962772379.7341
10.155826432417769,1.0185568667997304e+16,1.174434608778721e+16,751738516452651.1,806251533473004.0,1496469493.9951932,2724732783.3763924,36459023161.39147,746689638798.4037
10.458942961066125,1.0336804957995478e+16,1.1918751285927118e+16,762900401270467.8,818222832739544.2,1564366359.8973365,2848357639.833581,38113219026.06778,780567978583.3964
10.768121820287448,1.04888190232918e+16,1.2094054479759132e+16,774119689230694.0,830255697790704.2,1634641753.7465992,2976313258.9166756,39825363834.17713,815633127080.7742
11.083484256693197,1.0641635821513788e+16,1.2270284482844762e+16,785398222312947.4,842352104178971.2,1707368661.7530055,3108732532.0722113,41597235775.77495,851921502057.6774
11.405153941827061,1.0795279869820992e+16,1.24474696020778e+16,796737809988427.6,854513992591025.4,1782622302.6064684,3245752415.591197,43430667431.67257,889470635216.9926
11.733257020663602,1.094977527998737e+16,1.262563767816753e+16,808140231809142.9,866743271624742.9,1860480192.5672543,3387514049.1242046,45327547359.261536,928319204675.3928
12.067922161076874,1.1105145790943306e+16,1.2804816123193318e+16,819607239809657.0,879041820365098.4,1941022212.5361147,3534162877.8011727,47289821726.56951,968507068429.1917
12.409280604298411,1.1261414799007292e+16,1.2985031955497066e+16,831140560738295.9,891411490777187.1,2024330677.1549983,3685848778.0483985,49319495995.78963,1010075298833.3796
12.75746621638438,1.1418605386012068e+16,1.3166311832149032e+16,842741898133011.0,903854109932585.5,2110490405.9911005,3842726187.198707,51418636657.564384,1053066218120.1853
13.112615540712067,1.1576740345510786e+16,1.3348682079201032e+16,854412934255476.2,916371482083745.8,2199588796.8588915,4004954236.994585,53589373017.36043,1097523434984.4037
13.474867851526309,1.1735842207228456e+16,1.3532168719917766e+16,866155331895729.0,928965390599465.0,2291715901.3366466,4172696891.0868664,55833899035.3081,1143491882263.7314
13.844365208556836,1.1895933259908614e+16,1.3716797501158854e+16,877970736058332.2,941637599773335.9,2386964502.5359697,4346123086.635775,58154475220.93076,1191017855743.2483
14.221252512727972,1.2057035572689332e+16,1.390259391806695e+16,889860775540031.8,954389856515826.4,2485430195.1846156,4525406880.123763,60553430584.23551,1240149054114.1638
14.605677562982532,1.221917101513122e+16,1.4089583237202532e+16,901827064407912.8,967223891939584.1,2587211468.084901,4710727597.494048,63033164644.679794,1290934620117.9011
14.997791114242183,1.238236127600713e+16,1.4277790518252246e+16,913871203386138.8,980141422846780.0,2692409789.011966,4902269988.731265,65596149499.58272,1343425182907.5627
15.397746936527026,1.2546627880953498e+16,1.4467240634426222e+16,925994781158710.2,993144153126305.5,2801129692.1179905,5100224387.005179,68244931953.58816,1397672901659.812
15.805701875257567,1.2711992209073964e+16,1.465795829164883e+16,938199375594882.4,1006233775068073.5,2913478867.9106474,5304786872.501356,70982135710.84615,1453731510471.1338
16.221815912762718,1.287847550857765e+16,1.4849968046637794e+16,950486554903342.1,1019411970600879.4,3029568255.8758903,5516159441.066721,73810463631.61943,1511656364573.5684
16.64625223101797,1.304609891152742e+16,1.5043294323958152e+16,962857878720670.9,1032680412459799.6,3149512139.8174095,5734550177.801337,76732700055.07568,1571504487905.915
17.079177275638333,1.3214883447765428e+16,1.5237961432130052e+16,975314899139141.8,1046040765288523.9,3273428245.9870324,5960173435.732107,79751713190.07872,1633334622077.4827
17.5207608211511,1.3384850058079748e+16,1.5433993578861936e+16,987859161678440.6,1059494686681534.1,3401437844.0824986,6193250019.707289,82870457575.83542,1697207276762.5215
17.97117603757412,1.3556019606667292e+16,1.563141488547486e+16,1000492206205508.8,1073043828170647.0,3533665851.1912184,6434007375.654916,86091976614.31998,1763184781564.5598
18.430599558325603,1.372841289294648e+16,1.5830249400578172e+16,1013215567806353.5,1086689836160059.8,3670240938.760807,6682679785.352321,89419405176.43741,1831331339390.8953
18.899211549492115,1.390205066276626e+16,1.6030521113051062e+16,1026030777613324.1,1100434352813612.6,3811295642.6792626,6939508566.857708,92855972283.94914,1901713081378.5798
19.37719578048196,1.4076953619055556e+16,1.6232253964380446e+16,1038939363591095.6,1114279016897748.1,3956966476.5501213,7204742280.759128,96405003869.2398,1974398123414.5571
19.864739696091597,1.4253142431952718e+16,1.6435471860401236e+16,1051942851284251.6,1128225464583333.0,4107394048.2500834,7478636942.399799,100069925615.05133,2049456624293.3965
20.36203449001343,1.4430637748451574e+16,1.6640198682480804e+16,1065042764529204.2,1142275330209203.0,4262723179.8588085,7761456240.243804,103854265876.37839,2126960845557.4954
20.869275179813698,1.4609460201597222e+16,1.6846458298186744e+16,1078240626132915.9,1156430247010064.0,4423103031.053103,8053471760.549478,107761658686.76323,2206985213065.7314
21.38666068340997,1.4789630419262744e+16,1.7054274571472188e+16,1091537958520598.6,1170691847811211.2,4588687226.060006,8354963218.522707,111795846851.29727,2289606380337.5386
21.91439389707817,1.497116903253323e+16,1.7263671372411522e+16,1104936284354547.5,1185061765692209.8,4759633984.265436,8666218696.126371,115960685128.6832,2374903293720.794
22.452681775019734,1.5154096683723642e+16,1.747467258651512e+16,1118437127125861.1,1199541634621521.8,4936106254.577767,8987534886.726524,120260143504.77563,2462957259432.8755
23.00173541052013,1.5338434034051954e+16,1.768730212364891e+16,1132042011720757.8,1214133090063909.8,5118271853.647653,9319217346.760088,124698310560.07295,2553852012525.449
23.561770118730532,1.5524201770988484e+16,1.790158392658279e+16,1145752464963003.0,1228837769562169.2,5306303608.047904,9661580754.612812,129279396933.68512,2647673787824.825
24.133005521105144,1.571142061529848e+16,1.8117541979187216e+16,1159570016133653.5,1243657313294589.5,5500379500.519482,10014949176.90072,134007738886.36266,2744511392900.5166
24.715665631527248,1.5900111327793114e+16,1.833520031429608e+16,1173496197469340.0,1258593364609359.0,5700682820.391595,10379656342.351967,138887801965.216,2844456283115.98
25.309978944157795,1.6090294715801612e+16,1.8554583021250204e+16,1187532544639911.8,1273647570536838.2,5907402318.285961,10756045923.48861,143924184772.80914,2947602638816.327
25.91617852304095,1.6281991639373392e+16,1.877571425313193e+16,1201680597206211.8,1288821582280542.8,6120732365.217148,11144471826.313385,149121622843.34863,3054047444708.7305
26.53450209350177,1.6475223017217878e+16,1.899861823369925e+16,1215941899058407.8,1304117055687260.5,6340873116.2024,11545298488.20677,154484992628.73718,3163890571492.061
27.165192135371807,1.6670009832383494e+16,1.9223319264022624e+16,1230317998835203.5,1319535651696653.5,6568030678.495744,11958901184.243845,160019315597.27887,3277234859792.839
27.808495978079243,1.6866373137677728e+16,1.944984172882427e+16,1244810450323782.0,1335079036770206.5,6802417284.561678,12385666342.141176,165729762447.8526,3394186206465.1074
28.464665897640828,1.706433406082154e+16,1.967821010251524e+16,1259420812840279.5,1350748883299287.5,7044251469.904916,12825991866.045279,171621657442.38782,3514853653311.9463
29.133959215593645,1.7263913809330712e+16,1.990844895491913e+16,1274150651590022.0,1366546869991520.0,7293758255.871741,13280287469.373272,177700482859.4532,3639349478286.463
29.816638399905518,1.7465133675109588e+16,2.0140582956667708e+16,1289001538006576.8,1382474682234401.0,7551169337.538391,13748975016.915949,183971883571.77548,3767789289229.4976
30.51297116790363,1.766801503873776e+16,2.0374636884244596e+16,1303975050068116.8,1398534012434626.5,7816723276.800003,14232488876.409855,190441671750.45282,3900292120200.708
31.223230591261704,1.7872579373424406e+16,2.0610635624648916e+16,1319072772589267.2,1414726560331087.2,8090665700.771503,14731276279.781326,197115831698.56702,4036980530458.312
31.947695203086937,1.8078848248597068e+16,2.0848604179640172e+16,1334296297485997.2,1431054033278973.0,8373249505.608021,15245797694.258133,204000524816.8268,4177980706141.218
32.686649107148675,1.8286843333086108e+16,2.108856766952018e+16,1349647224010604.5,1447518146501797.5,8664735065.848005,15776527203.536777,211102094703.74753,4323422564704.762
33.44038208929165,1.8496586397855476e+16,2.1330551336394264e+16,1365127158953291.2,1464120623307585.5,8965390449.376167,16323952899.18234,218427072392.73343,4473439862158.318
34.20918973107749,1.8708099318224e+16,2.157458054684863e+16,1380737716806095.2,1480863195264710.2,9275491638.09568,16888577282.423483,225982181728.24316,4628170303149.42
34.993373525699035,1.892140407551029e+16,2.1820680793965936e+16,1396480519884281.8,1497747602332056.0,9595322754.389997,17470917676.48894,233774344882.98764,4787755653934.201
35.793240996213015,1.9136522758024716e+16,2.2068877698591076e+16,1412357198399566.0,1514775592937568.2,9925176293.443293,18071506649.611675,241810688017.8566,4952341858268.522
36.60910581613728,1.9353477561321336e+16,2.2319197009747364e+16,1428369390478699.0,1531948923998209.2,10265353361.475885,18690892448.80234,250098547085.92264,5122079156247.682
37.44128793246003,1.9572290787612216e+16,2.257166460408928e+16,1444518742120256.5,1549269360873554.2,10616163919.934917,19329639444.466324,258645473781.52982,5297122206114.721
38.29011369110923,1.979298484423309e+16,2.2826306484265056e+16,1460806907081359.8,1566738677244363.8,10977927035.663376,19988328585.905754,267459241634.99875,5477630209048.787
39.15591596493141,2.0015582241039484e+16,2.308314877604975e+16,1477235546685564.5,1584358654906478.8,11350971137.049923,20667557867.711586,276547852253.03986,5663767036934.43
40.03903428423004,2.0240105586600588e+16,2.3342217724093852e+16,1493806329541877.5,1602131083469510.0,11735634276.139473,21367942807.008396,285919541704.35376,5855701363101.853
40.93981496991464,2.046657758304385e+16,2.36035396861214e+16,1510520931164316.0,1620057759948790.5,12132264396.65776,22090116931.467422,295582787049.3011,6053606796014.746
41.85861126931294,2.0695021019395964e+16,2.3867141125395388e+16,1527381033480423.5,1638140488238238.0,12541219607.87559,22834732277.952835,305546313011.82776,6257662015868.3955
42.7957834946992,2.092545876325079e+16,2.4133048601259156e+16,1544388324216334.5,1656381078450838.8,12962868464.206337,23602459901.606056,315819098791.03186,6468050914044.772
43.751699164593184,2.1157913750587144e+16,2.440128875754609e+16,1561544496145279.8,1674781346112666.0,13397590250.395275,24393990395.112133,326410385008.956,6684962735354.118
44.72673314788505,2.1392408973549216e+16,2.467188830864406e+16,1578851246185730.0,1693343111195601.2,13845775272.12217,25210034417.82265,337329680790.23773,6908592222974.0205
