t(s),Total solute volume 1,Total retention volume 1,Total 1 volume 1,Total 2 volume 1,Total 3 volume 1,Total 4 volume 1,Total 5 volume 1,Total 6 volume 1
0.1,1225891390677807.5,1918426285810987.5,281662698191601.44,410872196941578.9,0.0,0.0,0.0,0.0
0.202,1844616061810024.5,2886785828767491.5,423821839503647.7,618245228667449.6,38756292.90806546,113260505.48680235,3076778064.848946,99469991508.60716
0.30604000000000003,2316402802384642.0,3625254140864441.5,532220291458756.1,776370226271664.2,98309804.30304891,287299158.9896066,7805499548.798825,252629640868.94922
0.41216080000000005,2715542853042371.0,4250080457568736.5,623927327194301.0,910146810577115.6,174606817.35593298,510269050.56700426,13863894724.766062,448917984352.4711
0.5204040160000001,3070026152257201.0,4805062090298999.0,705373958530095.2,1028956147466376.1,265845882.56638855,776905584.7236507,21108862933.369846,683680430923.4385
0.6308120963200001,3393815851604296.5,5312047730444175.0,779768380835345.9,1137478155356227.8,371060576.1718715,1084384472.6542587,29463644799.769356,954423558467.4945
0.7434283382464002,3695031768386459.0,5783742800701019.0,848976215916441.1,1238434288705767.5,489698418.9673837,1431091143.9163823,38884360664.76598,1259722542122.9092
0.8582969050113283,3978877046547821.0,6228288994036974.0,914192946184398.9,1333568443775102.5,621447783.1957339,1816114894.727548,49346260061.973145,1598773706914.5154
0.9754628431115548,4248917796189184.0,6651266584477540.0,976237926617221.6,1424075845234119.0,766152592.8063298,2238999606.632403,60836946367.66109,1971174338448.6294
1.094972099973786,4507722122490295.0,7056694332743586.0,1035701209036276.0,1510817224400429.8,923765081.2156103,2699605685.250772,73352624599.55934,2376800821224.889
1.2168715419732616,4757211059446230.0,7447578595170646.0,1093024173185524.4,1594436438904064.8,1094317403.6192195,3198027099.86102,86895846820.48767,2815735443502.7095
1.3412089728127268,4998865595977218.0,7826237255555787.0,1148547093371234.0,1675429859978374.8,1277903526.2254963,3734538456.3784137,101474073788.16977,3288219713194.5747
1.4680331522689813,5233855842163539.0,8194501828275633.0,1202538815896181.0,1754189664076907.0,1474667135.4954402,4309559663.255442,117098714728.48332,3794623197477.903
1.597393815314361,5463125333075301.0,8553849365099087.0,1255216128838106.5,1831032088315507.5,1684793278.7664065,4923631502.005443,133784463456.98222,4335421981917.074
1.729341691620648,5687448130964110.0,8905491799956981.0,1306756881937686.0,1906216568958286.8,1908502425.7701283,5577398272.562354,151548826765.518,4911183369422.753
1.863928525453061,5907468723440877.0,9250438375084662.0,1357309153665626.8,1979959113771460.5,2146046161.3533044,6271595205.67517,170411782355.60986,5522554782986.009
2.001207095962122,6123730647381835.0,9589540426809670.0,1406997827895610.5,2052441895669494.2,2397704013.028723,7007039191.73578,190395526896.71378,6170255592633.179
2.1412312378813647,6336697496993539.0,9923524255288792.0,1455929420749831.5,2123820293820535.8,2663781090.086307,7784621881.312686,211524288535.61078,6855071033394.548
2.284055862638992,6546768650713856.0,1.0253015731208748e+16,1504195694036104.0,2194228164706278.2,2944606317.26391,8605304523.227654,233824186623.19696,7577847655051.586
2.4297369798917723,6754291251146129.0,1.0578559039953452e+16,1551876407776067.2,2263781857340862.5,3240531113.465839,9470114103.241323,257323126784.83954,8339489918390.4375
2.578331719489608,6959569472398112.0,1.0900631181670612e+16,1599041449483343.2,2332583319330867.5,3551928410.153675,10380140475.397795,282050722965.7369,9140957666445.816
2.7298983538794,7162871788191045.0,1.1219653343398138e+16,1645752504095496.0,2400722532869417.5,3879191933.65095,11336534264.631418,308038240434.8246,9983264275545.574
2.884496320956988,7364436742739629.0,1.1535999928695666e+16,1692064379900365.8,2468279448915905.5,4222735695.9344797,12340505378.65572,335318555345.4623,10867475343358.25
3.0421862473761276,7564477584103356.0,1.1850005807575902e+16,1738026073102037.5,2535325540119421.0,4582993652.727825,13393322008.77616,363926127582.1886,11794707807843.977
3.2030299723236504,7763186021976611.0,1.2161972196611448e+16,1783681631216493.0,2601925060287214.0,4960419497.872564,14496310028.961193,393896984429.7675,12766129417188.48
3.3670905717701234,7960735303539519.0,1.2472171472158698e+16,1829070859783881.2,2668136075293048.0,5355486570.321219,15650852724.039284,425268713185.8715,13782958489782.432
3.5344323832055258,8157282752412001.0,1.2780851143629948e+16,1874229905722524.8,2734011314038222.0,5768687855.519231,16858390793.738653,458080461269.47705,14846463917281.156
3.7051210308696363,8352971880702347.0,1.308823715890427e+16,1919191742596446.8,2799598876329926.0,6200536066.990603,18120422591.113937,492372942698.42834,15957965374205.666
3.879223451487029,8547934158506126.0,1.3394536673858336e+16,1963986577178221.0,2864942825950149.5,6651563796.999343,19438504562.840702,528188450052.49384,17118833705423.354
4.0568079205167695,8742290506225340.0,1.3699940388291842e+16,2008642192326487.2,2930083690824351.5,7122323727.4967165,20814251865.68846,565570871223.841,18330491468867.375
4.237944078927105,8936152560851781.0,1.4004624528266432e+16,2053184237929209.0,2995058887431496.5,7613388894.370197,22249339138.7638,604565710400.3036,19594413615506.754
4.422702960505647,9129623756586632.0,1.4308752538021312e+16,2097636479188462.8,3059903082986765.5,8125352999.419514,23745501415.23018,645220112838.7522,20912128292209.316
4.61115701971576,9322800251928454.0,1.4612476531739294e+16,2142021009629670.2,3124648506166171.0,8658830765.595919,25304535160.460693,687582893074.0519,22285217756000.445
4.803380160110075,9515771729002154.0,1.4915938545484614e+16,2186358434756593.5,3189325215011324.5,9214458331.923458,26928299426.15823,731704566279.25,23715319390494.355
4.9994477633122765,9708622085948648.0,1.5219271621887028e+16,2230668031135884.2,3253961328992066.0,9792893685.229185,28618717112.04528,777637382548.7832,25204126817098.477
5.199436718578522,9901430039308448.0,1.5522600754065268e+16,2274967884801693.5,3318583230902653.5,10394817126.381134,30377776328.39974,825435363922.0154,26753391095063.703
5.403425452950093,1.009426965025844e+16,1.582604371047259e+16,2319275012164598.0,3383215743236281.0,11020931769.199205,32207531854.074158,875154344001.3323,28364922005655.918
5.611493962009095,1.0287210786111896e+16,1.612971175851841e+16,2363605466046596.0,3447882282862390.5,11671964070.586735,34110106685.75497,926852010049.552,30040589416707.67
5.823723841249277,1.0480319526529942e+16,1.6433710301746234e+16,2407974429012864.0,3512604997173269.5,12348664390.747562,36087693675.14225,980587947476.3937,31782324724626.99
6.040198318074262,1.0673658522306992e+16,1.6738139442872342e+16,2452396295806862.5,3577404884335386.5,13051807582.616442,38142557251.504906,1036423686644.8524,33592122371617.17
6.261002284435747,1.0867287313308762e+16,1.7043094482976298e+16,2496884746400263.0,3642301899850025.0,13782193609.85362,40277035227.70972,1094422751945.8502,35472041436434.35
6.486222330124463,1.1061262611090414e+16,1.7348666365493864e+16,2541452810927709.0,3707315051276239.5,14540648192.940277,42493540688.37408,1154650713104.4019,37424207297491.63
6.715946776726952,1.125563855086225e+16,1.7654942072314964e+16,2586112927578886.0,3772462482680165.0,15328023483.07248,44794563959.25701,1217175238693.3105,39450813367528.86
6.950265712261491,1.145046691675967e+16,1.7962004978178198e+16,2630876994356888.5,3837761550136939.0,16145198763.688444,47182674657.40494,1282066151841.161,41554122899423.805
7.18927102650672,1.164579734378606e+16,1.8269935168633244e+16,2675756415476833.5,3903228889414239.5,16993081179.581533,49660523821.91637,1349395488131.0554,43736470863021.42
7.433056447036854,1.1841677499305704e+16,1.857880972607523e+16,2720762143066153.0,3968880476801943.0,17872606493.657253,52230846125.49107,1419237555694.4238,46000265893130.53
7.681717575977592,1.2038153246557166e+16,1.888870298771475e+16,2765904714733469.5,4034731683915460.0,18784739871.481113,54896462167.19682,1491668997511.827,48347992309067.49
7.935351927497144,1.2235268792309758e+16,1.9199686778808732e+16,2811194287494509.5,4100797327184639.0,19730476693.846912,57660280847.12462,1566768855938.8767,50782212206336.54
8.194058966047088,1.2433066820499116e+16,1.951183062402476e+16,2856640668476353.5,4167091712643337.0,20710843397.666916,60525301823.80965,1644618639481.1646,53305567621223.14
8.45794014536803,1.263158861343062e+16,1.9825201939425716e+16,2902253342765376.0,4233628676552201.0,21726898345.55,63494618055.490875,1725302391847.3613,55920782769242.375
8.72709894827539,1.2830874161931962e+16,2.013986620723861e+16,2948041498716018.5,4300421622317607.0,22779732724.493332,66571418426.45409,1808906763314.2446,58630666358539.66
9.0016409272409,1.303096226565819e+16,2.0455887135291216e+16,2994014050997055.5,4367483554110126.5,23870471474.168095,69758990459.85834,1895521084441.8162,61438113979479.766
9.281673745785717,1.3231890624601268e+16,2.077332680276461e+16,3040179661616982.5,4434827107535020.0,25000274245.32906,73060723118.59966,1985237442180.5532,64346110571788.69
9.567307220701432,1.3433695922725532e+16,2.109224579370468e+16,3086546759140222.0,4502464577663678.0,26170336388.926105,76480109695.89436,2078150758416.7544,67357732970734.46
9.85865336511546,1.3636413904538942e+16,2.1412703319562264e+16,3133123556280193.0,4570407944697438.0,27381889976.537117,80020750797.40224,2174358871005.135,70476152533948.77
10.155826432417769,1.3840079445313114e+16,2.1734757331879228e+16,3179918066033294.5,4638668897502619.0,28636204852.78718,83686357416.81886,2273962617341.481,73704637850592.06
10.458942961066125,1.4044726615581626e+16,2.2058464626106604e+16,3226938116498042.0,4707258855227894.0,29934589720.4549,87480754107.00311,2377065920531.0347,77046557534674.7
10.768121820287448,1.4250388740473802e+16,2.23838809374304e+16,3274191364507698.5,4776188987190743.0,31278393259.007984,91407882248.78911,2483775878211.5103,80505383104439.69
11.083484256693197,1.4457098454377248e+16,2.2711061029377856e+16,3321685308189675.0,4845470231198352.0,32669005277.344177,95471803419.76717,2594202854092.399,84084691949808.88
11.405153941827061,1.4664887751369072e+16,2.3040058775894788e+16,3369427298552614.0,4915113310450057.0,34107857901.552242,99676702865.40443,2708460572275.285,87788170389991.25
11.733257020663602,1.4873788031805544e+16,2.3370927237506764e+16,3417424550190993.0,4985128749152556.0,35596426798.54055,104026893074.98894,2826666214422.385,91619616823428.22
12.067922161076874,1.5083830145419562e+16,2.3703718732113356e+16,3465684151187162.0,5055526886964514.0,37136232436.41647,108526817464.96822,2948940519843.577,95582944972361.3
12.409280604298411,1.5295044431237376e+16,2.403848490090372e+16,3514213072282739.5,5126317892375130.0,38728841382.532265,113181054172.37364,3075407888574.5684,99682187224371.69
12.75746621638438,1.5507460754593438e+16,2.4375276769835204e+16,3563018175383191.0,5197511775110114.0,40375867640.149086,117994319961.09596,3206196487521.7007,103921498073346.44
13.112615540712067,1.5721108541494316e+16,2.471414480706716e+16,3612106221453306.5,5269118397649128.0,42078974024.70065,122971474243.8914,3341438359751.527,108305157662395.75
13.474867851526309,1.5936016810555888e+16,2.5055138976706216e+16,3661483877855196.5,5341147485929999.0,43839873580.67485,128117523223.09036,3481269537005.8584,112837575431349.14
13.844365208556836,1.6152214202717022e+16,2.5398308789182172e+16,3711157725175296.5,5413608639307553.0,45660331040.162605,133437624153.0712,3625830155525.64,117523293871524.4
14.221252512727972,1.6369729008911974e+16,2.5743703348542616e+16,3761134263582428.5,5486511339828322.0,47542164324.156654,138937089727.67346,3775264575269.7275,122366992390563.72
14.605677562982532,1.6588589195865812e+16,2.6091371396928304e+16,3811419918754626.0,5559864960876322.0,49487246087.717384,144621392595.8037,3929721502617.164,127373491290214.52
14.997791114242183,1.680882243016297e+16,2.644136135646388e+16,3862021047409150.0,5633678775239747.0,51497505310.155495,150496170008.60168,4089354116644.373,132547755860009.64
15.397746936527026,1.7030456100722704e+16,2.67937213687797e+16,3912943942466473.5,5707961962644042.0,53574928931.41658,156567228601.6282,4254320199071.238,137894900589904.78
15.805701875257567,1.7253517339804416e+16,2.714849933235877e+16,3964194837876524.5,5782723616791994.0,55721563535.883675,162840549315.62836,4424782267972.8,143420193505002.44
16.221815912762718,1.7478033042653746e+16,2.7505742937885176e+16,4015779913132546.5,5857972751948358.0,57939517084.8534,169322292459.53763,4600907715356.226,149129060625597.8
16.64625223101797,1.7704029885890124e+16,2.7865499701756908e+16,4067705297495888.5,5933718309102734.0,60230960698.971344,176018802919.49136,4782868948705.026,155027090555850.75
17.079177275638333,1.793153434472782e+16,2.8227816997909024e+16,4119977073952784.5,6009969161741334.0,62598130491.950294,182936615517.70575,4970843536595.833,161120039204507.56
17.5207608211511,1.8160572709114172e+16,2.8592742088081948e+16,4172601282922233.5,6086734121255943.0,65043329456.93084,190082460525.1991,5165014358495.609,167413834641154.3
17.97117603757412,1.839117109886114e+16,2.8960322150658456e+16,4225583925732628.5,6164021942015468.0,67568929406.879486,197463269332.4349,5365569758850.117,173914582091612.6
18.430599558325603,1.862335547784012e+16,2.933060430818166e+16,4278930967883232.0,6241841326123362.0,70177372970.45572,205086180282.07083,5572703705577.143,180628569076151.03
18.899211549492115,1.8857151667302916e+16,2.9703635653657924e+16,4332648342104857.5,6320200927882543.0,72871175644.81795,212958544668.10464,5786615953081.548,187562270694310.75
19.37719578048196,1.9092585358388468e+16,3.007946327573977e+16,4386741951233364.0,6399109357987027.0,75652927906.8772,221087932905.8284,6007512209911.657,194722355060217.28
19.864739696091597,1.932968212386769e+16,3.0458134282875852e+16,4441217670908150.0,6478575187458231.0,78525297384.54065,229482140877.10403,6235604311179.759,202115688892362.62
20.36203449001343,1.956846742917495e+16,3.0839695826509684e+16,4496081352106811.0,6558606951342560.0,81491031089.53609,238149196455.59756,6471110395872.572,209749343261947.66
20.869275179813698,1.980896664277187e+16,3.1224195123400284e+16,4551338823526413.0,6639213152184884.0,84552957713.43597,247097366216.7129,6714255089180.945,217630599503959.0
21.38666068340997,2.0051205045884904e+16,3.1611679477135084e+16,4606995893820616.0,6720402263292003.0,87713989988.54938,256335162337.10312,6965269689980.567,225766955295278.3
21.91439389707817,2.0295207841652296e+16,3.2002196298897084e+16,4663058353701535.0,6802182731798675.0,90977127115.38986,265871349688.73154,7224392363599.803,234166130904210.53
22.452681775019734,2.0541000163718184e+16,3.239579312754648e+16,4719531977914115.0,6884562981547812.0,94345457258.462,275714953132.60114,7491868340012.863,242836075615941.1
23.00173541052013,2.0788607084303572e+16,3.2792517649070964e+16,4776422527090660.0,6967551415795574.0,97822160112.16017,285875265017.38074,7767950117600.809,251784974338528.22
23.561770118730532,2.1038053621783704e+16,3.319241771545591e+16,4833735749491811.0,7051156419751208.0,101410509538.61224,296361852888.28,8052897672625.878,261021254394147.03
24.133005521105144,2.128936474780045e+16,3.359554136302039e+16,4891477382640659.0,7135386362960569.0,105113876279.3428,307184567411.6577,8346978674568.075,270553592500431.62
24.715665631527248,2.1542565393932628e+16,3.400193683026563e+16,4949653154855354.0,7220249601542020.0,108935730742.67863,318353550520.98944,8650468707476.604,280390921946848.5
25.309978944157795,2.179768045794874e+16,3.4411652575274588e+16,5008268786685681.0,7305754480281885.0,112879645868.85977,329879243789.9138,8963651497492.236,290542439971173.25
25.91617852304095,2.205473480966168e+16,3.4824737292702124e+16,5067329992258422.0,7391909334596945.0,116949300074.86801,341772397038.2588,9286819146700.408,301017615341246.6
26.53450209350177,2.231375329640723e+16,3.524123993039166e+16,5126842480535847.0,7478722492370415.0,121148480281.03232,354044077177.0433,9620272373478.055,311826196147313.8
27.165192135371807,2.2574760748161196e+16,3.566120970565232e+16,5186811956491705.0,7566202275667205.0,125481085021.50801,366705677298.60583,9964320759501.795,322978217810356.0
27.808495978079243,2.283778198231504e+16,3.6084696121226824e+16,5247244122208218.0,7654357002334345.0,129951127640.79059,379768926018.15906,10319283003587.887,334484011311971.44
28.464665897640828,2.3102841808122212e+16,3.651174898098212e+16,5308144677897888.0,7743194987491375.0,134562739578.45595,393245897073.18115,10685487182538.83,346354211651461.75
29.133959215593645,2.33699650308316e+16,3.6942418405348536e+16,5369519322853121.0,7832724544915653.0,139320173744.37564,407149019187.2122,11063271019174.92,358599766535911.94
29.816638399905518,2.3639176455519748e+16,3.73767548465343e+16,5431373756326667.0,7922953988326730.0,144227807986.7116,421491086204.79724,11452982157733.578,371231945309194.56
30.51297116790363,2.39105008906338e+16,3.781480910354247e+16,5493713678345795.0,8013891632573936.0,149290148655.02426,436285267504.3957,11854978446822.41,384262348125934.7
31.223230591261704,2.4183963151257184e+16,3.825663233701015e+16,5556544790462486.0,8105545794730819.0,154511834260.90833,451545118696.2915,12269628230116.736,397702915376613.25
31.947695203086937,2.4459588062106936e+16,3.870227608389577e+16,5619872796442151.0,8197924795099716.0,159897639238.5842,467284592612.6536,12697310644995.799,411565937370122.3
32.686649107148675,2.4737400460272388e+16,3.915179227203286e+16,5683703402892896.0,8291036958129697.0,165452477807.96738,483518050597.03845,13138415929316.387,425864064280211.75
33.44038208929165,2.5017425197704104e+16,3.960523323457327e+16,5748042319837357.0,8384890613250779.0,171181407942.7474,500260274100.81323,13593345736526.328,440610316362395.5
34.20918973107749,2.5299687143460548e+16,4.006265172433581e+16,5812895261228929.0,8479494095626910.0,177089635446.0954,517526476594.0974,14062513459324.83,455818094448040.44
34.993373525699035,2.5584211185719516e+16,4.052410092808198e+16,5878267945413861.0,8574855746830125.0,183182518136.64786,535332315798.9943,14546344562080.8,471501190722466.6
35.793240996213015,2.587102223356157e+16,4.098963448073351e+16,5944166095541104.0,8670983915438213.0,189465570147.48325,553693906253.0214,15045276922223.996,487673799794067.44
36.60910581613728,2.6160145218530536e+16,4.145930647955016e+16,6010595439920756.0,8767886957557892.0,195944466340.85187,572627832210.8494,15559761180829.148,504350530061549.7
37.44128793246003,2.645160509597773e+16,4.1933171498282776e+16,6077561712332980.0,8865573237275187.0,202625046841.48117,592151160892.5421,16090261102616.41,521546415386569.6
38.29011369110923,2.674542684619352e+16,4.2411284601318776e+16,6145070652287975.0,8964051127034766.0,209513321691.3249,612281456086.7317,16637253945596.38,539276927079159.75
39.15591596493141,2.7041635475332076e+16,4.2893701357832264e+16,6213128005238448.0,9063329007949898.0,216615475628.68652,633036792117.2651,17201230840592.535,557557986203495.94
40.03903428423004,2.7340256016132696e+16,4.338047785595601e+16,6281739522745379.0,9163415270044200.0,223937872994.69824,654435768182.0481,17782697180877.32,576405976211685.0
40.93981496991464,2.76413135284417e+16,4.387167071698726e+16,6350910962597818.0,9264318312426408.0,231487062770.19498,676497523072.9438,18382173022163.88,595837755913389.2
41.85861126931294,2.7944833099537416e+16,4.436733710964132e+16,6420648088887735.0,9366046543399628.0,239269783746.06964,699241750285.7948,19000193493198.082,615870672789288.8
42.7957834946992,2.8250839844263396e+16,4.48675347643665e+16,6490956672040449.0,9468608380505614.0,247292969830.26672,722688713529.7269,19637309217201.715,636522576656427.5
