t(s),Total solute volume 1,Total retention volume 1,Total 1 volume 1,Total 2 volume 1,Total 3 volume 1,Total 4 volume 1,Total 5 volume 1,Total 6 volume 1
0.1,1343181032126672.5,2872917611672401.5,563076449980376.4,966660129565354.2,0.0,0.0,0.0,-1.5603494592410886e-89
0.202,1884149071852908.2,4516429967262418.0,789856318313485.6,1355984235928804.2,89087824920.28462,334415836834.52515,13079091845805.322,472937745659659.9
0.30604000000000003,2220177917328148.0,5921441343302732.0,930723368594325.4,1597817523277263.2,212050059713.92026,796005604943.8577,31165756667062.484,1140548721771273.0
0.41216080000000005,2455883305893340.0,7229997057085979.0,1029533703528893.0,1767450009352687.0,355370092786.42145,1334022442544.0635,52256045573991.66,1923184600201735.0
0.5204040160000001,2632021441053809.0,8493560594930372.0,1103372780069310.8,1894213130356434.2,512916366244.92554,1925448096270.893,75445223036730.42,2786069655951567.5
0.6308120963200001,2769078858791187.0,9736592918874458.0,1160828783118760.5,1992850638380921.5,681336662781.4685,2557698304153.5015,100238900662845.72,3710356702953809.0
0.7434283382464002,2878851446804228.0,1.0972695104981398e+16,1206846680594063.5,2071851798265574.8,858618582739.7731,3223218540103.1987,126340252569488.7,4684723089625201.0
0.8582969050113283,2968729443605395.5,1.2210262717151196e+16,1244524543037952.8,2136535216990190.0,1043484134935.912,3917211272109.9136,153560719698577.06,5701952098412036.0
0.9754628431115548,3043621418506609.0,1.3454891559096448e+16,1275920097542511.2,2190433493816991.8,1235091941493.2234,4636518034240.376,181776113458382.62,6757268825796219.0
1.094972099973786,3106932097861952.0,1.4710543779363918e+16,1302460643435701.0,2235996942317174.8,1432875586415.7524,5379012586355.423,210902791194543.7,7847439416381770.0
1.2168715419732616,3161104268906945.0,1.5980168708573324e+16,1325170224423447.2,2274983587724854.0,1636449601625.997,6143247985096.552,240883799589744.03,8970247130341608.0
1.3412089728127268,3207939038734016.0,1.7266057733843294e+16,1344803884728602.0,2308689650910139.0,1845551889297.8672,6928240436550.626,271680387157905.06,1.0124170979986778e+16
1.4680331522689813,3248794785190200.0,1.857005880222007e+16,1361931071528918.0,2338092729356139.0,2060006996662.7397,7733331429032.465,303266589545715.5,1.1308180288173416e+16
1.597393815314361,3284715797233731.5,1.9893712076143444e+16,1376989562431053.0,2363944377047747.0,2279701903826.186,8558096839760.877,335625658936816.75,1.2521598881750506e+16
1.729341691620648,3316518242169906.0,2.1238339001466972e+16,1390321503895905.8,2386831973370443.0,2504569614582.504,9402285334104.742,368747643596108.4,1.3764012783485874e+16
1.863928525453061,3344849232030886.0,2.260510266985428e+16,1402198172524701.0,2407221232002050.0,2734577771502.1084,10265775626090.918,402627708111642.0,1.503520597178742e+16
2.001207095962122,3370228382225099.5,2.3995049856200004e+16,1412837396909031.0,2425486109841636.5,2969720595495.6597,11148546219141.31,437264943840832.3,1.6335114756568766e+16
2.1412312378813647,3393077660787435.0,2.540914099770596e+16,1422416070769990.5,2441930288918384.5,3210013077628.611,12050653601893.07,472661511527333.06,1.7663794799023292e+16
2.284055862638992,3413743218944387.5,2.6848272026982868e+16,1431079304574980.2,2456802887413332.5,3455486728673.54,12972216291887.898,508822013708594.5,1.902139689932101e+16
2.4297369798917723,3432511615420661.5,2.8313290574123164e+16,1438947226948316.0,2470310135969002.0,3706186426001.9775,13913402998781.898,545753029033562.8,2.0408148977326844e+16
2.578331719489608,3449622048508173.5,2.9805008196380948e+16,1446120112491268.0,2482624180865549.0,3962168046297.7935,14874423737623.885,583462762552225.9,2.1824342500179816e+16
2.7298983538794,3465275698236164.5,3.132420975446693e+16,1452682298124167.5,2493889807394336.0,4223496669420.424,15855523086313.93,621960780314250.9,2.327032215064225e+16
2.884496320956988,3479642945494318.0,3.2871660705854028e+16,1458705209423531.0,2504229635317106.5,4490245203030.12,16856975022675.396,661257806091191.4,2.4746477889302176e+16
3.0421862473761276,3492869010478936.0,3.4448112855225396e+16,1464249724321722.0,2513748176743444.5,4762493321038.78,17879078939694.277,701365564443749.5,2.625323880697678e+16
3.2030299723236504,3505078399852993.5,3.6054308947040024e+16,1469368037406173.2,2522535036663411.0,5040326638807.311,18922156549563.266,742296658758857.8,2.7791068331170196e+16
3.3670905717701234,3516378446020188.0,3.7690986378739e+16,1474105143622631.0,2530667460092724.5,5323836068835.591,19986549465349.043,784064475953097.4,2.9360460467516184e+16
3.5344323832055258,3526862147363313.0,3.9358880238871176e+16,1478500028934886.2,2538212376135911.5,5613117315417.722,21072617304384.15,826683111711579.2,3.0961936840105664e+16
3.7051210308696363,3536610465134324.5,4.105872582185323e+16,1482586633206719.0,2545228051012460.5,5908270477280.61,22180736197074.96,870167311687398.9,3.259604435413797e+16
3.879223451487029,3545694194288665.0,4.279126073335142e+16,1486394634476633.5,2551765434459190.5,6209399734864.668,23311297613499.562,914532425214394.1,3.4263353347564132e+16
4.0568079205167695,3554175497501784.0,4.4557226672845336e+16,1489950092034706.8,2557869263731511.0,6516613104500.735,24464707441175.707,959794368911838.2,3.5964456130119784e+16
4.237944078927105,3562109170882864.0,4.635737095976326e+16,1493275977023954.2,2563578974512506.0,6830022245877.089,25641385262920.93,1005969598170855.1,3.769996583166431e+16
4.422702960505647,3569543694439605.0,4.8192447854581256e+16,1496392612806936.8,2568929456911638.5,7149742312281.651,26841763795329.777,1053075084968760.2,3.947051549934673e+16
4.61115701971576,3576522108703123.0,5.006321971501352e+16,1499318042456702.5,2573951686354333.5,7475891835433.1045,28066288457137.66,1101128300801446.4,4.127675739640538e+16
4.803380160110075,3583082750074834.0,5.1970458018884e+16,1502068337022448.0,2578673252796583.5,7808592638483.759,29315417043380.17,1150147203785224.8,4.311936246552305e+16
4.9994477633122765,3589259870680059.5,5.391494427873588e+16,1504657855379088.0,2583118806821327.0,8147969772130.866,30589619486341.24,1200150229179543.2,4.499901992741745e+16
5.199436718578522,3595084163281104.5,5.589747086820088e+16,1507099464276681.0,2587310437408030.5,8494151469817.364,31889377688202.15,1251156282736296.8,4.691643699134079e+16
5.403425452950093,3600583207734558.0,5.791884177623477e+16,1509404725500342.2,2591267993239160.5,8847269118813.531,33215185413348.246,1303184736401240.5,4.887233865882724e+16
5.611493962009095,3605781852292315.5,5.99798733022635e+16,1511584055715888.8,2595009357115022.0,9207457244605.055,34567548230668.516,1356255425986678.8,5.0867467605678264e+16
5.823723841249277,3610702540535971.5,6.208139470286826e+16,1513646863524412.5,2598550681242002.0,9574853506510.6,35946983498052.89,1410388650508217.8,5.290258413005307e+16
6.040198318074262,3615365592744259.0,6.422424879872244e+16,1515601667414642.5,2601906589727111.0,9949598702846.8,37354020382773.66,1465605172936727.8,5.4978466156814104e+16
6.261002284435747,3619789448906072.0,6.640929254896539e+16,1517456197636739.2,2605090353469723.5,10331836784271.762,38789199912612.61,1521926222162898.0,5.7095909290093064e+16
6.486222330124463,3623990879319150.5,6.863739759897059e+16,1519217484487623.8,2608114041725272.5,10721714874188.76,40253075053538.78,1579373496009019.8,5.92557269075018e+16
6.715946776726952,3627985167688649.5,7.090945080647545e+16,1520891935067932.8,2610988653877676.5,11119383295294.004,41746210810496.6,1637969165152265.2,6.1458750290583144e+16
6.950265712261491,3631786270808589.5,7.322635475023618e+16,1522485400222291.8,2613724234358955.5,11524995601514.252,43269184348477.58,1697735877847982.0,6.370582878704842e+16
7.18927102650672,3635406958232807.5,7.558902822471731e+16,1524003233090926.8,2616329973167639.0,11938708614713.055,44822585131542.586,1758696765360971.8,6.599783000111877e+16
7.433056447036854,3638858934788794.5,7.799840672378826e+16,1525450340468842.5,2618814294039603.0,12360682465651.688,46407015077868.836,1820875448028720.5,6.833564000891884e+16
7.681717575977592,3642152948333309.0,8.045544291595797e+16,1526831227978191.8,2621184931997612.5,12791080638779.166,48023088729224.7,1884296041893582.5,7.072016359638728e+16
7.935351927497144,3645298884774213.5,8.29611071133164e+16,1528150039902473.8,2623449001736711.0,13230070020498.197,49671433433549.69,1948983165851692.5,7.315232451759726e+16
8.194058966047088,3648305852072401.0,8.551638773604592e+16,1529410594401101.5,2625613058078748.0,13677820950613.912,51352689539539.86,2014961949275172.0,7.563306577172824e+16
8.45794014536803,3651182254680095.5,8.812229177411786e+16,1530616414714765.2,2627683149544154.5,14134507276721.883,53067510602328.16,2082258040071690.2,7.816334989722814e+16
8.72709894827539,3653935859656477.5,9.077984524757858e+16,1531770756881843.5,2629664865934045.5,14600306411333.197,54816563599501.86,2150897613151409.2,8.074415928194392e+16
9.0016409272409,3656573855521531.5,9.349009366664997e+16,1532876634410598.0,2631563380686216.5,15075399391568.83,56600529156830.13,2220907379276557.2,8.337649648820677e+16
9.281673745785717,3659102904757784.0,9.625410249272904e+16,1533936840288474.5,2633383488659578.0,15559970941284.525,58420101783183.05,2292314594273138.0,8.606138459202555e+16
9.567307220701432,3661529190742013.0,9.907295760123861e+16,1534953966656430.8,2635129639909995.0,16054209535511.951,60275990114216.25,2365147068587892.5,8.879986753569245e+16
9.85865336511546,3663858459781277.5,1.019477657471813e+17,1535930422430890.0,2636805969942816.5,16558307467121.992,62168917164470.35,2439433177176654.0,9.159301049321808e+16
10.155826432417769,3666096058836229.0,1.048796550341593e+17,1536868449117782.5,2638416326861569.0,17072460915634.1,64099620587601.94,2515201869712929.5,9.444190024812755e+16
10.458942961066125,3668246969436856.0,1.0786977538754194e+17,1537770135030403.8,2639964295776479.5,17596870018109.77,66068852944517.9,2592482681107551.0,9.734764558322808e+16
10.768121820287448,3670315838229638.0,1.1091929903240885e+17,1538637428095127.0,2641453220788646.5,18131738942081.62,68077381979232.58,2671305742332397.0,1.0031137768204166e+17
11.083484256693197,3672307004538327.5,1.1402942097682864e+17,1539472147405182.8,2642886224824987.5,18677275960479.848,70125990902308.266,2751701791542451.0,1.0333425054165483e+17
11.405153941827061,3674224525271936.0,1.1720135950100024e+17,1540275993662388.5,2644266227564067.0,19233693528527.227,72215478681774.66,2833702185492299.5,1.064174413967991e+17
11.733257020663602,3676072197471915.0,1.2043635665273206e+17,1541050558629150.5,2645595961662826.0,19801208362582.47,74346660341454.06,2917338911243822.5,1.0956215115502034e+17
12.067922161076874,3677853578754243.5,1.2373567874971016e+17,1541797333698036.5,2646877987468351.0,20380041520917.914,76520367266643.11,3002644598163462.5,1.1276960484283842e+17
12.409280604298411,3679572005871306.0,1.2710061688896726e+17,1542517717673119.5,2648114706376525.5,20970418486424.066,78737447517129.97,3089652530207892.5,1.1604105206283491e+17
12.75746621638438,3681230611591336.0,1.3053248746395424e+17,1543213023846019.0,2649308372979802.5,21572569251239.37,80998766147538.88,3178396658497953.5,1.1937776746164024e+17
13.112615540712067,3682832340070028.5,1.3403263268957606e+17,1543884486439868.5,2650461106129872.5,22186728403306.918,83305205535018.84,3268911614181378.0,1.2278105120881667e+17
13.474867851526309,3684379960868377.0,1.3760242113555434e+17,1544533266485742.8,2651574899026015.5,22813135214865.22,85657665714303.95,3361232721585423.5,1.2625222948665954e+17
13.844365208556836,3685876081753418.0,1.4124324826844989e+17,1545160457188867.0,2652651628427557.5,23452033732883.492,88057064720189.1,3455396011661063.5,1.2979265499096597e+17
14.221252512727972,3687323160402761.0,1.449565370026744e+17,1545767088835302.8,2653693063077386.5,24103672871454.457,90504338937477.11,3551438235720931.0,1.3340370744282904e+17
14.605677562982532,3688723515120610.0,1.4874373826080352e+17,1546354133284209.2,2654700871414060.5,24768306506161.848,93000443458463.75,3649396879473669.0,1.3708679411154646e+17
14.997791114242183,3690079334660879.0,1.5260633154349962e+17,1546922508085817.2,2655676628641315.0,25446193570441.363,95546352448036.9,3749310177357603.5,1.4084335034873538e+17
15.397746936527026,3691392687242744.5,1.5654582550934054e+17,1547473080260828.0,2656621823216378.0,26137598153956.387,98143059516477.39,3851217127177183.0,1.4467484013377286e+17
15.805701875257567,3692665528834736.0,1.6056375856484752e+17,1548006669773233.5,2657537862811886.0,26842789603013.04,100791578100055.38,3955157505045884.0,1.4858275663067856e+17
16.221815912762718,3693899710775604.5,1.6466169946500054e+17,1548524052725024.2,2658426079800429.5,27562042623039.203,103492941849523.88,4061171880639574.5,1.5256862275658714e+17
16.64625223101797,3695096986792685.0,1.6884124792451968e+17,1549025964298403.8,2659287736305589.0,28295637383155.734,106248205026618.69,4169301632764620.0,1.5663399176194854e+17
17.079177275638333,3696259019472685.5,1.73104035240199e+17,1549513101468403.0,2660124028858798.5,29043859622869.02,109058442908682.3,4279588965245282.0,1.607804478226225e+17
17.5207608211511,3697387386233896.0,1.774517249245668e+17,1549986125506480.2,2660936092697424.5,29807000760915.086,111924752201531.5,4392076923135224.0,1.6500960664403094e+17
17.97117603757412,3698483584843895.0,1.818860133511447e+17,1550445664293637.0,2661725005735776.5,30585358006288.492,114848251460697.22,4506809409258144.0,1.6932311607754627e+17
18.430599558325603,3699549038522668.0,1.864086304115952e+17,1550892314459684.2,2662491792237719.5,31379234471488.938,117830081521171.14,4623831201082702.0,1.7372265674929965e+17
18.899211549492115,3700585100666964.5,1.9102134018501178e+17,1551326643363740.2,2663237426216658.0,32188939288020.652,120871405935796.67,4743187967937354.0,1.7820994270160342e+17
19.37719578048196,3701593059228116.5,1.9572594161964717e+17,1551749190929475.2,2663962834586240.5,33014787724181.223,123973411422446.67,4864926288570523.0,1.8278672204718618e+17
19.864739696091597,3702574140772812.5,2.0052426922734093e+17,1552160471347427.0,2664668900082747.0,33857101305176.805,127137308320138.69,4989093669062138.0,1.8745477763645053e+17
20.36203449001343,3703529514253159.0,2.0541819379093302e+17,1552560974655450.8,2665356463978370.5,34716207935602.83,130364331054239.89,5115738561092427.0,1.9221592773796362e+17
20.869275179813698,3704460294510046.0,2.1040962308493658e+17,1552951168207377.8,2666026328602524.5,35592442024329.164,133655738610916.23,5244910380574213.0,1.9707202673240714e+17
21.38666068340997,3705367545531692.0,2.155005026097507e+17,1553331498039020.0,2666679259686920.5,36486144611831.414,137012815020993.81,5376659526655092.0,2.0202496582020534e+17
21.91439389707817,3706252283487028.0,2.2069281633969984e+17,1553702390139818.8,2667315988548675.5,37397663500009.47,140436869853392.89,5511037401095999.0,2.0707667374307494e+17
22.452681775019734,3707115479551991.5,2.2598858748517773e+17,1554064251637631.2,2667937214124305.5,38327353384536.586,143929238718307.22,5648096428032936.0,2.1222911751972806e+17
23.00173541052013,3707958062545044.0,2.313898792691894e+17,1554417471903595.2,2668543604866480.5,39275575989782.914,147491283780304.47,5787890074128582.0,2.174843031959757e+17
23.561770118730532,3708780921386877.0,2.3689879571858013e+17,1554762423583257.2,2669135800514216.5,40242700206357.48,151124394281524.12,5930472869121022.0,2.2284427660948698e+17
24.133005521105144,3709584907397901.5,2.4251748247024067e+17,1555099463559695.0,2669714413746335.0,41229102231315.96,154829987075156.9,6075900426776671.0,2.283111241694535e+17
24.715665631527248,3710370836445926.0,2.4824812759259037e+17,1555428933853867.5,2670280031727114.0,42235165711080.17,158609507169392.8,6224229466254713.0,2.3388697365142854e+17
25.309978944157795,3711139490955423.0,2.5409296242263965e+17,1555751162466898.2,2670833217552285.5,43261281887115.97,162464428282026.94,6375517833890671.0,2.395739950076049e+17
25.91617852304095,3711891621788711.5,2.6005426241892522e+17,1556066464168714.8,2671374511602946.5,44307849744420.86,166396253405920.1,6529824525406728.0,2.453744011928078e+17
26.53450209350177,3712627950008675.0,2.6613434803064237e+17,1556375141236975.5,2671904432814085.5,45375276162868.64,170406515385511.12,6687209708556607.0,2.512904490064777e+17
27.165192135371807,3713349168531637.0,2.7233558558327008e+17,1556677484149991.2,2672423479864174.5,46463976071462.51,174496777504584.6,6847734746213064.0,2.573244399509352e+17
27.808495978079243,3714055943678435.0,2.7866038818101267e+17,1556973772236949.2,2672932132291433.0,47574372605548.37,178668634085501.7,7011462219906051.0,2.63478721106209e+17
28.464665897640828,3714748916631115.5,2.8511121662638035e+17,1557264274288558.2,2673430851542147.5,48706897267040.48,182923711100102.84,7178455953819996.0,2.6975568602173114e+17
29.133959215593645,3715428704801861.0,2.9169058035722355e+17,1557549249130952.0,2673920081955935.0,49861990087712.66,187263666792498.88,7348781039258516.0,2.7615777562519648e+17
29.816638399905518,3716095903120499.5,2.9840103840156224e+17,1557828946165394.8,2674400251692258.0,51040099795609.75,191690192313969.6,7522503859585300.0,2.8268747914888957e+17
30.51297116790363,3716751085246269.0,3.0524520035053094e+17,1558103605876282.8,2674871773602577.5,52241683984634.555,196205012370192.6,7699692115649913.0,2.893473350738007e+17
31.223230591261704,3717394804709075.0,3.122257273497878e+17,1558373460309578.8,2675335046051645.0,53467209287365.81,200809885881028.12,7880414851707528.0,2.961399320918414e+17
31.947695203086937,3718027595985182.0,3.193453331097251e+17,1558638733523731.8,2675790453691678.5,54717151551165.33,205506606653094.7,8064742481841571.0,3.0306791008647904e+17
32.686649107148675,3718649975511776.5,3.266067849348313e+17,1558899642015018.0,2676238368192509.5,55991996017631.04,210297004065368.16,8252746816898824.0,3.1013396113213024e+17
33.44038208929165,3719262442644530.5,3.340129047725564e+17,1559156395118940.2,2676679148930757.0,57292237505456.695,215182943768044.5,8444501091946075.0,3.173408305126427e+17
34.20918973107749,3719865480562068.5,3.4156657028203866e+17,1559409195389409.5,2677113143640711.0,58618380596755.72,220166328394912.0,8640079994258373.0,3.2469131775919597e+17
34.993373525699035,3720459557120831.0,3.492707159230544e+17,1559658238957104.0,2677540689029590.5,59970939826912.67,225249098289479.0,8839559691848316.0,3.3218827770798214e+17
35.793240996213015,3721045125663649.5,3.571283340655649e+17,1559903715868422.0,2677962111359432.5,61350439878022.73,230433232245112.06,9043017862546474.0,3.398346215780035e+17
36.60910581613728,3721622625784992.5,3.651424761202249e+17,1560145810406316.0,2678377726997876.5,62757415775981.01,235720748259440.8,9250533723643260.0,3.476333180693565e+17
37.44128793246003,3722192484055889.5,3.7331625369024006e+17,1560384701394145.2,2678787842939798.0,64192413091288.47,241113704303287.38,9462188062102212.0,3.5558739448235296e+17
38.29011369110923,3722755114710914.0,3.816528397449523e+17,1560620562483696.8,2679192757301807.5,65655988143635.35,246614199104396.5,9678063265355472.0,3.6369993785785197e+17
39.15591596493141,3723310920299860.0,3.9015546981554374e+17,1560853562428371.0,2679592759791176.0,67148708210330.85,252224372946223.9,9898243352692106.0,3.7197409613917594e+17
40.03903428423004,3723860292306252.0,3.988274432132623e+17,1561083865342452.8,2679988132150999.0,68671151738643.88,257946408482065.38,1.012281400724993e+16,3.804130793559919e+17
40.93981496991464,3724403611734812.0,4.076721242705511e+17,1561311630947400.8,2680379148582981.5,70223908562122.46,263782531564808.62,1.0351862608622048e+16,3.890201608305372e+17
41.85861126931294,3724941249669878.5,4.166929436055176e+17,1561537014805943.5,2680766076149320.5,71807580120961.9,269735012092584.56,1.0585478266089442e+16,3.977986784065893e+17
