t(s),Total solute volume 1,Total retention volume 1,Total 1 volume 1,Total 2 volume 1,Total 3 volume 1,Total 4 volume 1,Total 5 volume 1
0.1,3786533418330099.0,3803207891884101.0,16674473553999.465,0.0,0.0,0.0,0.0
0.202,5668599637646175.0,5693622782529160.0,24961247161385.336,56274853.201208286,404036012.821889,11506076089.05102,49931334652.11131
0.30604000000000003,7110993248979300.0,7142478033843147.0,31312739290558.01,142608227.79807034,1025450419.1417375,30988537341.779064,139888977296.04715
0.41216080000000005,8332634811527869.0,8369649940212651.0,36692155641546.086,253181782.70813292,1821679461.1790779,56778903427.363464,264119278564.3349
0.5204040160000001,9418116353067450.0,9460099326006814.0,41471998167252.055,385395627.89059645,2773902291.7152214,88090871098.18861,419724603096.5772
0.6308120963200001,1.0409883725020954e+16,1.04564569927378e+16,45839175902895.56,537854208.1646297,3872034080.874451,124508746561.33919,605173179101.887
0.7434283382464002,1.1332678552501764e+16,1.1383572451018876e+16,49902637433567.3,709759979.750198,5110314385.024547,165796674634.93112,819644334545.7518
0.8582969050113283,1.2202375747197678e+16,1.2257389976957394e+16,53732287052690.42,900663622.1391414,6485497839.4866495,211819925468.29276,1062736620091.7605
0.9754628431115548,1.3029864555875456e+16,1.3088846567167046e+16,57376074901553.836,1110340828.904149,7995963251.756358,262507339155.7515,1334322746794.4502
1.094972099973786,1.3822991272397484e+16,1.3885823104484084e+16,60868551637963.26,1338724035.0502656,9641220367.56193,317831109715.156,1634469394521.7466
1.2168715419732616,1.458762769594321e+16,1.4654217460667458e+16,64235573345584.164,1585861380.0242896,11421613554.977562,377794891136.52875,1963389012592.7498
1.3412089728127268,1.5328302088764834e+16,1.5398578194028664e+16,67497079924664.89,1851890522.562957,13338132793.37905,442426329340.6104,2321408986511.78
1.4680331522689813,1.6048593131649312e+16,1.6122500213926776e+16,70668829853238.55,2137021158.2189498,15392287510.069445,511772138616.19104,2708950976937.0947
1.597393815314361,1.6751387195283796e+16,1.6828883167207498e+16,73763533066565.5,2441522932.388988,17586019368.51841,585894731713.5896,3126516583129.787
1.729341691620648,1.7439052677669526e+16,1.7520106530643454e+16,76791618641329.58,2765716854.604887,19921640327.03322,664869845330.2764,3574677130090.3267
1.863928525453061,1.8113561860243452e+16,1.8198151994461804e+16,79761771381427.3,3109969072.398329,22401787724.5034,748784829028.677,4054066251089.6616
2.001207095962122,1.877657835636493e+16,1.8864691289153456e+16,82681316891766.95,3474686287.001216,25029391212.131096,837737391292.0657,4565374427994.549
2.1412312378813647,1.9429521308781412e+16,1.9521150660620876e+16,85556504267615.95,3860312343.386273,27807648157.087784,931834669702.8062,5109344941633.692
2.284055862638992,2.0073613458890716e+16,2.0168759147385604e+16,88392717764411.06,4267325680.8060017,30740005253.339127,1031192536745.0558,5686770862820.782
2.4297369798917723,2.070991777014005e+16,2.0808585362497744e+16,91194638066443.2,4696237427.580693,33830144779.319057,1135935080742.0166,6298492828299.801
2.578331719489608,2.1339365763416212e+16,2.1441565951680524e+16,93966367059830.78,5147589987.71777,37081974402.815186,1246194219600.0137,6945397420491.688
2.7298983538794,2.1962779742848484e+16,2.206852791556388e+16,96711525702327.56,5621956009.782007,40499619742.550545,1362109417125.2417,7628416020198.992
2.884496320956988,2.2580890445350564e+16,2.2690206335965188e+16,99433331741870.89,6119937657.845912,44087419108.14816,1483827479922.3884,8348524036091.783
3.0421862473761276,2.3194351212802172e+16,2.330725860986892e+16,102134662122805.12,6642166124.952725,47849919988.81928,1611502418621.5027,9106740439192.273
3.2030299723236504,2.3803749487334696e+16,2.3920275995026884e+16,104818103604574.94,7189301344.224343,51791876967.15609,1745295361247.882,9904127548056.37
3.3670905717701234,2.4409616221445016e+16,2.452979306145877e+16,107485994198507.97,7762031863.406958,55918250811.31736,1885374509483.855,10741791023085.572
3.5344323832055258,2.501243364626046e+16,2.513629549408722e+16,110140457374826.5,8361074856.495298,60234208555.5052,2031915130720.0605,11620880037818.766
3.7051210308696363,2.5612641734187776e+16,2.574022658419141e+16,112783430520469.22,8987176251.932753,64745124420.86916,2185099580389.7566,12542587602111.135
3.879223451487029,2.621064361384441e+16,2.634199266868793e+16,115416688783362.84,9641110961.31085,69456581460.90143,2345117350280.1997,13508151017464.492
4.0568079205167695,2.6806810137144892e+16,2.69419677179735e+16,118041865183262.88,10323683195.874498,74374373839.78578,2512165139429.208,14518852448884.816
4.237944078927105,2.7401483754935196e+16,2.754049722939532e+16,120660467677838.31,11035726860.754656,79504509671.01889,2686446944918.5186,15576019600835.127
4.422702960505647,2.79949818246382e+16,2.8137901550344024e+16,123273893727654.16,11778106018.8912,84853214358.34871,2868174170422.8105,16681026487351.938
4.61115701971576,2.858759944818478e+16,2.8734478729666576e+16,125883442792799.31,12551715418.216642,90426934392.66638,3057565750802.96,17835294288373.37
4.803380160110075,2.9179611919057416e+16,2.9330506976565628e+16,128490327108271.34,13357481076.952063,96232341567.7206,3254848291372.682,19040292285906.188
4.9994477633122765,2.977127684213285e+16,2.9926246790945604e+16,131095681018551.58,14196360922.890676,102276337584.91495,3460256220739.9463,20297538874931.152
5.199436718578522,3.036283597812259e+16,3.0521942817227892e+16,133700569099468.5,15069345483.376211,108566059023.44023,3674031956344.1343,21608602644977.543
5.403425452950093,3.095451685500987e+16,3.1117825464216308e+16,136305993254046.08,15977458623.358334,115108882656.86224,3896426081988.288,22975103529142.97
5.611493962009095,3.1546534181392736e+16,3.171411232607305e+16,138912898936058.66,16921758329.46394,121912431101.30031,4127697536811.966,24398714018029.99
5.823723841249277,3.213909109063893e+16,3.2311009433435748e+16,141522180628578.53,17903337538.483223,128984578783.64963,4368113815270.7583,25881160436648.145
6.040198318074262,3.2732380239912652e+16,3.2908712358839964e+16,144134686683462.72,18923325009.05386,136333458221.06728,4617951177789.079,27424224282815.793
6.261002284435747,3.332658478420057e+16,3.3507407196661652e+16,146751223610405.25,19982886235.648666,143967466605.27072,4877494871836.736,29029743626000.516
6.486222330124463,3.392187924225383e+16,3.4107271434570068e+16,149372559890052.6,21083224404.24724,151895272687.1752,5147039363250.871,30699614565886.2
6.715946776726952,3.451843026872862e+16,3.4708474730835988e+16,151999429374068.84,22225581389.304646,160125823959.0705,5426888577685.61,32435792750247.562
6.950265712261491,3.5116397344634788e+16,3.5311179609657276e+16,154632534325475.06,23411238791.83148,168668354133.00818,5717356152123.148,34240294951970.855
7.18927102650672,3.5715933396400092e+16,3.5915542084856372e+16,157272548144658.03,24641519018.576027,177532390915.3022,6018765696425.17,36115200705278.5
7.433056447036854,3.6317185352361384e+16,3.6521712220798024e+16,159920117819835.22,25917786402.44885,186727764078.17618,6331451064942.701,38062654001411.15
7.681717575977592,3.692029464423649e+16,3.712983463811632e+16,162575866135253.94,27241448364.469257,196264613830.54034,6655756638236.538,40084865044190.1
7.935351927497144,3.7525397660081416e+16,3.774004897078431e+16,165240393665752.1,28613956617.62946,206153399490.76718,6992037614990.999,42184112066035.95
8.194058966047088,3.813262615434872e+16,3.835249028016741e+16,167914280582423.94,30036808413.182785,216404908465.09113,7340660314231.288,44362743205155.58
8.45794014536803,3.874210761991182e+16,3.896728943094868e+16,170598088290800.9,31511547829.95875,227030265535.98734,7702002487978.843,46623178444731.61
8.72709894827539,3.935396562628436e+16,3.958457343317364e+16,173292360920176.16,33039767107.398438,238040942465.50772,8076453644501.769,48967911615062.6
9.0016409272409,3.996832012771839e+16,4.020446575411664e+16,175997626680293.06,34623108023.08446,249448767919.16043,8464415382338.002,51399512459703.125
9.281673745785717,4.058528774440275e+16,4.082708660320543e+16,178714399099581.3,36263263315.618805,261265937716.4693,8866301735287.426,53920628766749.79
9.567307220701432,4.120498201958218e+16,4.1452553192838136e+16,181443178157364.75,37961978153.772026,273505025414.86368,9282539528587.672,56533988566508.625
9.85865336511546,4.1827513655078904e+16,4.2080979977588104e+16,184184451320960.0,39721051652.89614,286178993234.052,9713568746504.209,59242402396860.97
10.155826432417769,4.245299072739883e+16,4.271247887398712e+16,186938694497286.12,41542338439.65932,299301203328.48785,10159842911581.994,62048765637727.46
10.458942961066125,4.30815188863499e+16,4.334715946282893e+16,189706372907468.06,43427750266.22182,312885429415.9913,10621829475820.336,64956060916103.44
10.768121820287448,4.3713201537881304e+16,4.3985129175706984e+16,192487941891952.47,45379257675.03275,326945868771.0364,11100010224047.834,67967360583212.734
11.083484256693197,4.434814001265335e+16,4.462649346730769e+16,195283847652795.12,47398891715.48852,341497154591.61926,11594881689788.268,71085829265396.78
11.405153941827061,4.4986433721685176e+16,4.5271355974813064e+16,198094527939043.03,49488745713.74774,356554368749.03754,12106955583921.732,74314726490427.1
11.733257020663602,4.562818030027618e+16,4.5919818665616216e+16,200920412680483.94,51650977097.05659,372133054930.34924,12636759236459.31,77657409390991.77
12.067922161076874,4.6273475741271064e+16,4.657198197442587e+16,203761924574465.78,53887809273.994675,388249232183.63257,13184836051762.67,81117335487178.03
12.409280604298411,4.6922414518622296e+16,4.722794493072215e+16,206619479629999.28,56201533572.10435,404919408876.6216,13751745977553.29,84698065549833.77
12.75746621638438,4.757508970210722e+16,4.7887805277423144e+16,209493487672902.9,58594511234.42626,422160597079.649,14338065988068.693,88403266546759.12
13.112615540712067,4.8231593063965736e+16,4.855165958153951e+16,212384352815374.88,61069175476.5155,439990327384.2602,14944390581737.084,92236714673742.06
13.474867851526309,4.889201517815103e+16,4.921960333750812e+16,215292473893036.28,63628033605.57023,458426664169.2342,15571332293753.594,96202298472513.6
13.844365208556836,4.955644551281079e+16,4.98917310638352e+16,218218244872167.16,66273669203.36125,477488221326.1811,16219522223955.973,100304022037772.73
14.221252512727972,5.02249725165633e+16,5.056813639361155e+16,221162055229615.3,69008744374.70688,497194178457.27325,16889610580409.02,104546008315481.42
14.605677562982532,5.089768369907092e+16,5.1248912159412e+16,224124290307595.97,71836002063.29294,517564297558.07935,17582267239122.527,108932502494710.03
14.997791114242183,5.1574665706370616e+16,5.193415047304028e+16,227105331645402.0,74758268436.70189,538618940198.90314,18298182320338.695,113467875495368.25
15.397746936527026,5.225600439137373e+16,5.262394280054026e+16,230105557289848.6,77778455342.56163,560379085218.4355,19038066781840.613,118156627554231.73
15.805701875257567,5.294178487991366e+16,5.331838003285102e+16,233125342086106.06,80899562837.80264,582866346943.9647,19802653029745.902,123003391911736.56
16.221815912762718,5.3632091632679816e+16,5.401755255245544e+16,236165057950423.1,84124681793.05222,606102993952.8362,20592695547264.516,128012938602084.05
16.64625223101797,5.4327008503351176e+16,5.472155029633346e+16,239225074126110.94,87456996574.27232,630111968390.2834,21408971541913.113,133190178349271.69
17.079177275638333,5.502661879320862e+16,5.54304628155097e+16,242305757424029.72,90899787803.80345,654916905859.1907,22252281611694.16,138540166571729.03
17.5207608211511,5.573100530248831e+16,5.614437933145719e+16,245407472448711.75,94456435203.04227,680542155897.8954,23123450430761.24,144068107498318.12
17.97117603757412,5.6440250378705816e+16,5.686338878959425e+16,248530581811161.2,98130420519.04489,707012803062.4586,24023327455108.438,149779358398522.38
18.430599558325603,5.715443596217162e+16,5.7587579910098616e+16,251675446329271.12,101925330537.42015,734354688630.482,24952787648836.277,155679433929734.1
18.899211549492115,5.7873643628888904e+16,5.831704123623497e+16,254842425216725.53,105844860183.9375,762594432943.9044,25912732231562.312,161774010604611.8
19.37719578048196,5.859795463101853e+16,5.905186118038296e+16,258031876261180.06,109892815717.35184,791759458408.8171,26904089447561.387,168068931381567.97
19.864739696091597,5.932744993507266e+16,5.9792128067935096e+16,261244155992448.47,114073118016.01218,821878013170.7673,27927815357235.36,174570210381526.8
20.36203449001343,6.00622102579904e+16,6.053793017921885e+16,264479619841354.12,118389805960.90135,852979195484.6182,28984894651530.426,181284037734157.66
20.869275179813698,6.08023161012327e+16,6.128935578958827e+16,267738622289870.2,122847039917.82138,885092978798.5203,30076341489936.176,188216784556895.22
21.38666068340997,6.154784778302691e+16,6.2046493207815816e+16,271021517013098.8,127449105321.52205,918250237572.12,31203200362718.04,195375008070117.72
21.91439389707817,6.2298885468874376e+16,6.280943081290832e+16,274328657013615.62,132200416364.64308,952482773849.7065,32366546978052.96,202765456851959.12
22.452681775019734,6.305550920043411e+16,6.357825708945817e+16,277660394748651.22,137105519794.42525,987823344609.5477,33567489174756.203,210395076236303.34
23.00173541052013,6.381779892287711e+16,6.435306066163535e+16,281017082250548.88,142169098820.22525,1024305689911.2733,34807167861305.344,218271013857607.56
23.561770118730532,6.458583451080805e+16,6.513393032591615e+16,284399071240902.44,147395977134.95126,1061964561863.7788,36086757981887.7,226400625346291.16
24.133005521105144,6.535969579283433e+16,6.592095508263928e+16,287806713238751.0,152791123053.6265,1100835754436.712,37407469510214.984,234791480178513.72
24.715665631527248,6.613946257486501e+16,6.6714224166472216e+16,291240359663166.6,158359653772.3756,1140956134139.2627,38770548471870.836,243451367684262.97
25.309978944157795,6.6925214662208184e+16,6.751382707586383e+16,294700361930563.9,164106839751.21152,1182363671590.625,40177277995976.49,252388303217778.1
25.91617852304095,6.77170318805362e+16,6.8319853601557784e+16,298187071547016.6,170038109224.10242,1225097474007.139,41628979396979.42,261610534494412.16
26.53450209350177,6.851499409577858e+16,6.913239385423143e+16,301700840195853.0,176159052839.89264,1269197818631.825,43127013287393.21,271126548098162.75
27.165192135371807,6.931918123300085e+16,6.9951538291323736e+16,305242019820789.5,182475428437.73096,1314706187132.7356,44672780722337.83,280945076164182.2
27.808495978079243,7.0129673294321496e+16,7.077737774311062e+16,308810962704821.9,188993165960.78793,1361665300997.1929,46267724376749.945,291075103240692.8
28.464665897640828,7.094655037591541e+16,7.161000343808203e+16,312408021545108.6,195718372512.11743,1410119157949.7998,47913329756159.14,301525873334832.7
29.133959215593645,7.176989268415064e+16,7.244950702767046e+16,316033549524013.56,202657337556.64197,1460113069422.781,49611126441945.71,312306897147079.94
29.816638399905518,7.259978055089795e+16,7.32959806103829e+16,319687900376530.06,209816538273.3275,1511693699108.0347,51362689372021.914,323427959498991.75
30.51297116790363,7.343629444805406e+16,7.414951675537304e+16,323371428454231.1,217202645061.74734,1564909102621.009,53169640157902.01,334899126959128.44
31.223230591261704,7.427951500131275e+16,7.50102085255054e+16,327084488785905.44,224822527207.3184,1619808768307.3718,55033648439149.336,346730755672133.75
31.947695203086937,7.512952300321845e+16,7.587814949994394e+16,330827437135043.6,232683258709.63306,1676443659224.1787,56956433276219.875,358933499396069.56
32.686649107148675,7.598639942553234e+16,7.675343379630294e+16,334600630054280.75,240792124278.40204,1734866256328.2002,58939764582738.445,371518317753218.1
33.44038208929165,7.685022543093747e+16,7.763615609240067e+16,338404424936953.8,249156625501.66168,1795130602904.7969,60985464598281.05,384496484699680.4
34.20918973107749,7.772108238411506e+16,7.852641164764032e+16,342239180065860.3,257784487191.01562,1857292350271.7422,63095409402754.01,397879597219244.9
34.993373525699035,7.859905186220742e+16,7.942429632405592e+16,346105254659339.8,266683663908.79617,1921408804793.1108,65271530473495.16,411679584247092.0
35.793240996213015,7.948421566469893e+16,8.032990660705186e+16,350003008914781.0,275862346682.1703,1987538976239.5427,67515816286247.39,425908715829078.4
36.60910581613728,8.037665582272957e+16,8.124333962586026e+16,353932804049632.56,285328969909.343,2055743627531.773,69830313961184.625,440579612522424.0
37.44128793246003,8.127645460786269e+16,8.216469317374605e+16,357895002340007.7,295092218463.1423,2126085325905.6577,72217130955199.73,455705255043798.44
38.29011369110923,8.218369454032408e+16,8.309406572798421e+16,361889967156971.5,305161034997.39667,2198628495537.576,74678436801693.47,471298994170928.1
39.15591596493141,8.309845839672923e+16,8.403155646963203e+16,365918063000561.1,315544627461.6822,2273439471670.3115,77216464899137.73,487374560903967.8
40.03903428423004,8.402082921731296e+16,8.497726530312035e+16,369979655531621.94,326252476830.1244,2350586556280.463,79833514349707.55,503946076893064.7
40.93981496991464,8.495089031267413e+16,8.593129287568416e+16,374075111601509.0,337294345050.1154,2430140075329.4644,82531951849327.6,521028065138641.44
41.85861126931294,8.588872527005142e+16,8.68937405966536e+16,378204799279718.75,348680283216.94073,2512172437641.364,85314213630487.34,538635460971102.94
42.7957834946992,8.683441795913656e+16,8.786471065662747e+16,382369087879487.2,360420639980.453,2596758195451.724,88182807459233.62,556783623316814.9
43.751699164593184,8.778805253744008e+16,8.884430604654354e+16,386568347981417.06,372526070190.117,2683974106672.909,91140314687771.4,575488346257356.9
44.72673314788505,8.874971345521611e+16,8.983263057666717e+16,390802951455167.3,385007543784.872,2773899198922.318,94189392364141.53,594765870889198.4
45.721267810842754,8.97194854599556e+16,9.082978889551654e+16,395073271479233.44,397876354934.4435,2866614835361.348,97332775400480.34,614632897491146.2
46.73569316705961,9.069745360045589e+16,9.183588650873686e+16,399379682558869.25,411144131438.8856,2962204782393.7754,100573278801402.62,635106598006986.9
47.770407030400804,9.16837032304745e+16,9.28510297979454e+16,403722560542173.25,424822844393.3312,3060755279273.8286,103913799954082.4,656204628851059.6
48.82581517100882,9.267832001196866e+16,9.3875326039557e+16,408102282634358.3,438924818125.0532,3162355109675.1816,107357320981650.97,677945144044482.1
49.902331474429,9.368138991793323e+16,9.49088834236107e+16,412519227410242.3,453462740410.1715,3267095675273.4736,110906911161560.89,700346808690109.0
51.000378103917576,9.469299923483514e+16,9.59518110726092e+16,416973774824970.4,468449672977.4593,3375071071396.2334,114565729410610.05,723428812794306.2
52.120385665995926,9.5713234564652e+16,9.700421906038448e+16,421466306222993.0,483899062306.9515,3486378164795.503,118337026838360.23,747210885443978.9
53.262793379315845,9.674218282651659e+16,9.80662184310044e+16,425997204345304.56,499824750731.1802,3601116673599.4463,122224149370716.97,771713309347296.8
54.42804924690216,9.777993125797325e+16,9.913792121773766e+16,430566853334970.2,516240987847.09344,3719389249501.1543,126230540445491.39,796956935746889.5
55.616610231840205,9.882656741583973e+16,1.0021944046208147e+17,435175638740935.25,533162442246.8941,3841301562243.7046,130359743781791.86,822963199714395.6
56.828942436477014,9.988217917669168e+16,1.0131089023287232e+17,439823947520141.4,550604213576.2311,3966962386462.2905,134615406225151.42,849754135835468.4
58.06552128520656,1.0094685473695214e+17,1.024123856454907e+17,444512168037932.56,568581844928.3807,4096483690945.546,139001280670327.06,877352394294533.9
