t(s),Total solute volume 1,Total retention volume 1,Total 1 volume 1,Total 2 volume 1,Total 3 volume 1,Total 4 volume 1,Total 5 volume 1,Total 6 volume 1
0.1,1383945849202658.0,3981468685541325.0,887646190648165.1,1709876645690502.0,0.0,0.0,0.0,-3.740371093031155e-123
0.202,1889396672661830.5,6283090489116066.0,1211836400426488.8,2334367074186589.5,132125982207.02676,591789841806.2474,28945454444546.9,817820971572599.9
0.30604000000000003,2172151297209587.5,8301893134170538.0,1393191857490296.5,2683713353319301.0,306835004711.6513,1374403273445.4043,67534590185397.17,1983620797687798.2
0.41216080000000005,2353821556135489.5,1.0213802434407e+16,1509713001560230.0,2908168826215595.5,503746967560.757,2256498479589.07,111103840009044.75,3328234965039484.5
0.5204040160000001,2480289784589926.0,1.208238737919375e+16,1590828220060777.2,3064421628157313.0,714869324616.2141,3202264075680.752,157855197892696.22,4785075415092735.0
0.6308120963200001,2573059646512576.5,1.3937524796138158e+16,1650329707577626.0,3179039759545136.0,936363884421.1083,4194503541458.175,206928462536484.38,6323036352540454.0
0.7434283382464002,2643709051735093.0,1.5795581996461572e+16,1695643397606181.0,3266327844458532.5,1166176490079.0923,5224013515085.668,257863164120164.94,7925648348536446.0
0.8582969050113283,2699077648832840.0,1.7666518224559524e+16,1731156159217989.2,3334736336588027.0,1403141351418.954,6285570755393.189,310397445894918.1,9583461921918936.0
0.9754628431115548,2743475733747731.0,1.9556898155486596e+16,1759632564842992.5,3389590649212603.5,1646576122085.0215,7376117992669.264,364377557179098.06,1.129079895638941e+16
1.094972099973786,2779753593772250.0,2.1471340579016012e+16,1782900754775309.5,3434412340550044.0,1896078361557.177,8493852044409.3545,419712414012839.3,1.3044171545499602e+16
1.2168715419732616,2809868653504186.5,2.341328084728984e+16,1802216197828192.2,3471619828207741.5,2151415692101.7976,9637731697394.441,476349069375073.7,1.4841437950985132e+16
1.3412089728127268,2835207212409466.5,2.5385400927802384e+16,1818468049968400.8,3502925899092714.5,2412463280311.9165,10807197608969.262,534258737856845.3,1.6681321367585686e+16
1.4680331522689813,2856776710593892.0,2.738988566253794e+16,1832302471287641.0,3529575255645670.0,2679166705494.3687,12002005944760.875,593428484060089.6,1.8563121568300388e+16
1.597393815314361,2875325536208669.5,2.942858246259899e+16,1844199469042498.2,3552492539056474.0,2951519113435.6973,13222126017587.79,653856100641884.9,2.048653517251843e+16
1.729341691620648,2891420319319419.0,3.1503104619896516e+16,1854522473019613.0,3572377826592812.5,3229546733316.888,14467675395469.582,715546855754077.8,2.245153992308182e+16
1.863928525453061,2905497288589108.0,3.3614900307652416e+16,1863551275099363.0,3589770083284315.0,3513299458084.711,15738877695683.188,778511373765631.5,2.445831810976022e+16
2.001207095962122,2917897272648918.0,3.5765299956139736e+16,1871504478717653.2,3605090406460149.0,3802844580850.993,17036034519218.865,842764223353276.1,2.6507204695859656e+16
2.1412312378813647,2928890090831163.0,3.795554958202907e+16,1878555142791189.2,3618672160740474.5,4098262549149.073,18359506426331.312,908322958538462.0,2.8598651460152324e+16
2.284055862638992,2938691887139883.0,4.018683475120556e+16,1884841899519627.2,3630782394329241.0,4399644038779.689,19709699824708.105,975207456394931.1,3.073320176995842e+16
2.4297369798917723,2947477666975915.5,4.246029814993276e+16,1890476995291658.5,3641637328263290.5,4707087908208.648,21087057803180.93,1043439453041926.9,3.2911472560648596e+16
2.578331719489608,2955390508273784.0,4.477705270429538e+16,1895552198598526.2,3651413736864515.0,5020699751349.733,22492053646729.656,1113042214606636.5,3.513414129255385e+16
2.7298983538794,2962548426387539.0,4.713819154198595e+16,1900143203090080.0,3660257429375738.0,5340590863772.158,23925186204044.39,1184040301594050.8,3.7401936404470696e+16
2.884496320956988,2969049557144044.0,4.954479567738112e+16,1904312951923475.5,3668289653675736.5,5666877498904.212,25386976554602.383,1256459398889565.5,3.9715630261694776e+16
3.0421862473761276,2974976116769215.0,5.19979400307111e+16,1908114177612764.8,3675611988808583.0,5999680330515.74,26877965600139.3,1330326192528129.0,4.2076033909061784e+16
3.2030299723236504,2980397460442356.5,5.449869821192128e+16,1911591363749291.2,3682310123859037.0,6339124063845.226,28398712322265.457,1405668280222503.2,4.44839931472619e+16
3.3670905717701234,2985372468474190.5,5.704814637742267e+16,1914782275467901.2,3688456806100123.5,6685337155148.692,29949792525988.137,1482514106559008.2,4.6940385591140344e+16
3.5344323832055258,2989951425276602.5,5.9647366383412616e+16,1917719164595839.8,3694114162479819.0,7038451611243.436,31531797941759.297,1560892916425546.8,4.944611846508179e+16
3.7051210308696363,2994177511731337.5,6.229744840018942e+16,1920429726840283.2,3699335543458163.5,7398602848721.949,33145335594969.54,1640834722063705.2,5.200212695765226e+16
3.879223451487029,2998088000035840.5,6.499949310977635e+16,1922937868148293.0,3704166999251837.5,7765929598147.316,34791027377066.785,1722370280409286.5,5.460937300495589e+16
4.0568079205167695,3001715217518255.5,6.775461357884022e+16,1925264322886323.8,3708648470637784.5,8140573842508.797,36469509770252.55,1805531078282666.5,5.726884440590241e+16
4.237944078927105,3005087329546136.0,7.0563936876799496e+16,1927427155988564.8,3712814756245211.0,8522680782039.299,38181433690362.914,1890349323629581.5,5.998155419691762e+16
4.422702960505647,3008228979664826.0,7.342860549274013e+16,1929442173534115.2,3716696303453377.0,8912398819526.95,39927464421636.37,1976857941473252.8,6.2748540231373464e+16
4.61115701971576,3011161816231554.0,7.634977859264238e+16,1931323260523853.0,3720319859053655.0,9309879561726.432,41708281623677.13,2065090573573327.2,6.557086492207464e+16
4.803380160110075,3013904928187125.0,7.932863314931994e+16,1933082660379228.2,3723709007650158.0,9715277833555.443,43524579395758.57,2155081581032629.5,6.844961511484146e+16
4.9994477633122765,3016475207616055.5,8.236636497056835e+16,1934731207484039.0,3726884619606652.0,10128751702559.518,45377066387188.68,2246866049274307.8,7.13859020684976e+16
5.199436718578522,3018887652954223.5,8.546418964574438e+16,1936278521658232.2,3729865225662952.0,10550462511722.086,47266465945119.33,2340479794947480.0,7.438086152206464e+16
5.403425452950093,3021155623799989.5,8.862334342692522e+16,1937733171590723.0,3732667331756767.0,10980574919142.863,49193516293180.89,2435959374421189.5,7.743565383414416e+16
5.611493962009095,3023291056045125.0,9.184508405764261e+16,1939102812821846.0,3735305684820376.0,11419256943444.121,51158970735832.26,2533342093603591.5,8.055146418267242e+16
5.823723841249277,3025304644302626.5,9.513069155971442e+16,1940394304750386.5,3737793498172155.5,11866680014021.32,53163597884466.58,2632666018882043.0,8.37295028157087e+16
6.040198318074262,3027205997248158.5,9.848146898674936e+16,1941613810267747.0,3740142643442632.0,12323019025450.13,55208181902192.09,2733969989024751.5,8.697100534583845e+16
6.261002284435747,3029003770421771.0,1.0189874315136707e+17,1942766880935392.2,3742363814652489.0,12788452395513.969,57293522764886.28,2837293627919376.0,9.027723308227762e+16
6.486222330124463,3030705780189354.0,1.0538386533194011e+17,1943858530078390.8,3744466669013226.5,13263162126432.963,59420436536646.46,2942677358051113.5,9.3649473395945e+16
6.715946776726952,3032319101889064.0,1.0893821196369062e+17,1944893295735359.5,3746459948188089.5,13747333868966.658,61589755658170.96,3050162414643663.0,9.708904011370726e+16
6.950265712261491,3033850154647966.5,1.1256318531817202e+17,1945875295058858.0,3748351583084049.5,14241156989134.91,63802329246924.55,3159790860403201.0,1.005972739387419e+17
7.18927102650672,3035304774920217.5,1.1626021417453757e+17,1946808271481918.0,3750148784709007.0,14744824637356.875,66059023408197.19,3271605600818394.5,1.041755428945624e+17
7.433056447036854,3036688280446809.0,1.2003075448546224e+17,1947695635741063.0,3751858123194797.0,15258533819854.23,68360721556363.16,3385650399979979.0,1.0782524279072336e+17
7.681717575977592,3038005526051849.5,1.238762900401725e+17,1948540501663382.0,3753485596734098.0,15782485472198.508,70708324745808.56,3501969896891582.0,1.1154779770861349e+17
7.935351927497144,3039260952457647.5,1.277983331266792e+17,1949345717475948.5,3755036691892039.5,16316884534912.607,73102752011123.62,3620609622250135.5,1.153446605060574e+17
8.194058966047088,3040458629110117.0,1.3179842519502629e+17,1950113893273535.8,3756516436517463.0,16861940031058.203,75544940716257.34,3741616015679584.0,1.1921731333969827e+17
8.45794014536803,3041602291849229.0,1.3587813752312874e+17,1950847425179984.2,3757929446285185.5,17417865145759.887,78035846912415.23,3865036443405832.5,1.2316726820435034e+17
8.72709894827539,3042695376129433.5,1.4003907188657774e+17,1951548516655412.8,3759279965740224.5,17984877307631.844,80576445704550.23,3990919216364432.0,1.2719606748867602e+17
9.0016409272409,3043741046387649.0,1.442828612336256e+17,1952219197332475.2,3760571904582272.0,18563198272084.688,83167731626348.95,4119313608735437.0,1.3130528454668928e+17
9.281673745785717,3044742222066745.5,1.4861117036642742e+17,1952861339707529.5,3761808869818005.0,19153054206500.87,85810719023662.95,4250269876902055.5,1.3549652428470288e+17
9.567307220701432,3045701600727836.5,1.530256966295028e+17,1953476673964596.5,3762994194316601.0,19754675777274.61,88506442446372.14,4383839278831922.5,1.3977142376343811e+17
9.85865336511546,3046621678622016.5,1.575281706062828e+17,1954066801169804.0,3764130962226332.0,20368298238719.797,91255957048694.66,4520074093881128.0,1.4413165281509606e+17
10.155826432417769,3047504769039379.5,1.621203568245336e+17,1954633205040259.0,3765222031645006.0,20994161523854.625,94060338997990.58,4659027643022845.0,1.4857891467526426e+17
10.458942961066125,3048353018708934.0,1.6680405447136986e+17,1955177262462743.5,3766270054882246.0,21632510337076.992,96920685892120.84,4800754309503263.0,1.5311494662958358e+17
10.768121820287448,3049168422485238.5,1.7158109811852816e+17,1955700252913548.2,3767277496604984.0,22283594248748.54,99838117185447.88,4945309559928602.0,1.577415206751617e+17
11.083484256693197,3049952836525721.5,1.7645335845851034e+17,1956203366910265.5,3768246650118227.0,22947667791708.43,102813774623575.11,5092749965787981.0,1.6246044419675286e+17
11.405153941827061,3050707990135625.5,1.8142274305217453e+17,1956687713608986.2,3769179651999587.0,23624990559741.8,105848822686940.72,5243133225417259.0,1.6727356065776637e+17
11.733257020663602,3051435496434159.5,1.864911970883171e+17,1957154327645436.8,3770078495277448.0,24315827308029.918,108944449043389.02,5396518186410037.0,1.7218275030619856e+17
12.067922161076874,3052136861975714.5,1.916607041557549e+17,1957604175305925.5,3770945041318103.0,25020448055610.69,112101865009856.6,5552964868482153.0,1.771899308956074e+17
12.409280604298411,3052813495443027.5,1.9693328702840275e+17,1958038160103040.0,3771781030566238.5,25739128189882.402,115322306023317.1,5712534486796834.0,1.822970584212805e+17
12.75746621638438,3053466715514500.5,2.0231100846381408e+17,1958457127821633.8,3772588092265112.5,26472148573182.26,118607032121138.67,5875289475757793.0,1.8750612787176064e+17
13.112615540712067,3054097757995276.5,2.0779597201563594e+17,1958861871092632.2,3773367753267076.0,27219795651476.082,121957328431015.56,6041293513278340.0,1.9281917399592026e+17
13.474867851526309,3054707782290822.0,2.133903228604277e+17,1959253133545104.8,3774121446031768.5,27982361565194.55,125374505670639.0,6210611545534348.0,1.9823827208579008e+17
13.844365208556836,3055297877292355.5,2.190962486392625e+17,1959631613581103.0,3774850515897615.0,28760144262254.59,128859900657286.6,6383309812210036.0,2.0376553877536163e+17
14.221252512727972,3055869066735154.0,2.2491598031454013e+17,1959997967812439.0,3775556227702118.5,29553447613304.48,132414876827506.39,6559455872245070.0,2.0940313285560445e+17
14.605677562982532,3056422314083877.0,2.308517930424251e+17,1960352814194046.0,3776239771817675.5,30362581529233.285,136040824767082.25,6739118630092313.0,2.1515325610594096e+17
14.997791114242183,3056958526992592.5,2.369060070613137e+17,1960696734884599.5,3776902269662035.5,31187862080986.14,139739162751475.81,6922368362495615.0,2.2101815414244653e+17
15.397746936527026,3057478561381978.5,2.4308098859674218e+17,1961030278861591.8,3777544778735722.0,32029611621727.855,143511337296935.88,7109276745797256.0,2.270001172830468e+17
15.805701875257567,3057983225171343.0,2.4937915078313376e+17,1961353964314992.2,3778168297232974.5,32888158911398.766,147358823722483.03,7299916883785125.0,2.3310148142999533e+17
16.221815912762718,3058473281698941.0,2.558029546027881e+17,1961668280841015.2,3778773768267609.5,33763839243707.457,151283126722971.34,7494363336089682.0,2.393246289699243e+17
16.64625223101797,3058949452860497.0,2.6235490984251542e+17,1961973691455112.2,3779362083750687.0,34656994575606.082,155285780953443.0,7692692147141319.0,2.4567198969177834e+17
17.079177275638333,3059412421992540.5,2.6903757606831085e+17,1962270634441326.8,3779934087952909.0,35567973659295.27,159368351624987.44,7894980875698649.0,2.5214604172294106e+17
17.5207608211511,3059862836524417.0,2.758535636184806e+17,1962559525053255.8,3780490580781225.5,36497132176806.14,163532435112331.84,8101308624958771.0,2.5874931248387382e+17
17.97117603757412,3060301310420312.5,2.828055346156146e+17,1962840757080326.2,3781032320795946.0,37444832877208.43,167779659573383.66,8311756073260623.0,2.6548437966160682e+17
18.430599558325603,3060728426430343.5,2.8989620399781843e+17,1963114704291641.8,3781560027992062.0,38411445716494.61,172111685580958.44,8526405505392852.0,2.7235387220241408e+17
18.899211549492115,3061144738168040.5,2.97128340569614e+17,1963381721768429.8,3782074386365902.5,39397348000190.0,176530206766928.75,8745340844517820.0,2.7936047132402646e+17
19.37719578048196,3061550772029487.0,3.045047680729168e+17,1963642147134967.0,3782576046286336.0,40402924528741.51,181036950479031.75,8968647684723671.0,2.8650691154773475e+17
19.864739696091597,3061947028968144.0,3.120283662785168e+17,1963896301696938.0,3783065626687559.0,41428567745737.336,185633678450581.0,9196413324216486.0,2.937959817507516e+17
20.36203449001343,3062333986137863.5,3.1970207209847264e+17,1964144491495232.0,3783543717099040.0,42474677889011.01,190322187483335.6,9428726799165052.0,3.0123052623920275e+17
20.869275179813698,3062712098415354.5,3.275288807198537e+17,1964387008282436.8,3784010879526578.0,43541663144685.125,195104310143772.3,9665678918210666.0,3.088134458421306e+17
21.38666068340997,3063081799812412.0,3.3551184676026266e+17,1964624130428629.5,3784467650197103.5,44629939804210.07,199981915473032.0,9907362297654878.0,3.165476990268924e+17
21.91439389707817,3063443504787078.5,3.4365408544556365e+17,1964856123762348.5,3784914541178647.0,45739932424454.0,204956909710792.88,1.0153871397338372e+16,3.24436303036362e+17
22.452681775019734,3063797609462179.0,3.519587738102762e+17,1965083242352127.8,3785352041885849.5,46872073990903.06,210031237033346.9,1.0405302557224216e+16,3.324823350483277e+17
23.00173541052013,3064144492758811.0,3.604291519210669e+17,1965305729233521.5,3785780620480403.5,48026806084029.63,215206880306152.84,1.0661754034699054e+16,3.406889333575047e+17
23.561770118730532,3064484517451699.0,3.690685241238038e+17,1965523817085983.0,3786200725174952.0,49204579048888.3,220485861851140.34,1.0923326042606224e+16,3.490592985805846e+17
24.133005521105144,3064818031152666.5,3.778802603146315e+17,1965737728863666.0,3786612785448198.0,50405852168001.445,225870244229056.9,1.1190120788024792e+16,3.5759669488474496e+17
24.715665631527248,3065145367228003.5,3.8686779723553466e+17,1965947678383797.0,3787017213178285.5,51631093837595.68,231362131037142.56,1.1462242511808956e+16,3.663044512400613e+17
25.309978944157795,3065466845654831.0,3.96034639794868e+17,1966153870875950.8,3787414403700888.5,52880781747251.76,236963667722428.47,1.1739797528902378e+16,3.751859626962638e+17
25.91617852304095,3065782773821319.5,4.053843624133261e+17,1966356503495302.2,3787804736797892.0,54155403063033.69,242677042410961.72,1.2022894269442566e+16,3.8424469168429485e+17
26.53450209350177,3066093447275037.5,4.1492061039585965e+17,1966555765802588.5,3788188577621917.0,55455454614160.27,248504486753258.75,1.2311643320670116e+16,3.934841693431226e+17
27.165192135371807,3066399150423342.0,4.246471013300148e+17,1966751840213361.8,3788566277561761.0,56781443083287.26,254448276786306.2,1.2606157469658772e+16,4.029079968722877e+17
27.808495978079243,3066700157189578.0,4.345676265112152e+17,1966944902418836.0,3788938175053070.5,58133885200466.44,260510733812417.38,1.2906551746881642e+16,4.1251984691065926e+17
28.464665897640828,3066996731628224.0,4.446860523954958e+17,1967135121780464.0,3789304596338385.0,59513307940851.33,266694225295275.6,1.3212943470629844e+16,4.223234649418829e+17
29.133959215593645,3067289128502180.5,4.550063220802042e+17,1967322661700178.8,3789665856180379.5,60920248726218.29,273001165773489.25,1.352545229229983e+16,4.3232267072702195e+17
29.816638399905518,3067577593824885.0,4.655324568132093e+17,1967507679968110.0,3790022258531661.5,62355255630374.88,279434017791994.94,1.3844200242566156e+16,4.425213597648961e+17
30.51297116790363,3067862365369859.0,4.762685575311425e+17,1967690329089412.2,3790374097164315.5,63818887588527.89,285995292851649.94,1.4169311778456312e+16,4.5292350478062234e+17
31.223230591261704,3068143673150047.5,4.872188064272281e+17,1967870756591685.2,3790721656262125.5,65311714610683.484,292687552377361.0,1.4500913831345326e+16,4.635331572428905e+17
31.947695203086937,3068421739869092.0,4.983874685492528e+17,1968049105314429.2,3791065210978140.0,66834317999155.61,299513408705102.3,1.4839135855887248e+16,4.7435444891049946e+17
32.686649107148675,3068696781346519.5,5.097788934282381e+17,1968225513681757.0,3791405027959998.0,68387290570257.02,306475526088185.7,1.5184109879901686e+16,4.8539159340868966e+17
33.44038208929165,3068969006918739.5,5.2139751673839315e+17,1968400115959588.2,3791741365845377.0,69971236880251.95,313576621723143.7,1.5535970555233474e+16,4.966488878358325e+17
34.20918973107749,3069238619817490.0,5.3324786198892224e+17,1968573042498363.5,3792074475729518.0,71586773455647.22,320819466795605.44,1.5894855209603914e+16,5.081307144010216e+17
34.993373525699035,3069505817527287.0,5.4533454224828717e+17,1968744419962343.0,3792404601606928.5,73234529027902.92,328206887546540.2,1.6260903899472698e+16,5.198415420931434e+17
35.793240996213015,3069770792123399.0,5.5766226190152064e+17,1968914371546333.5,3792731980788891.0,74915144772642.69,335741766359251.75,1.663425946392932e+16,5.3178592838200083e+17
36.60910581613728,3070033730591553.5,5.702358184412007e+17,1969083017180797.5,3793056844298521.5,76629274553447.14,343427042867527.8,1.7015067579633858e+16,5.439685209520752e+17
37.44128793246003,3070294815130756.0,5.830601042927112e+17,1969250473726029.2,3793379417244863.0,78377585170313.25,351265715085334.4,1.7403476816826808e+16,5.5639405946952774e+17
38.29011369110923,3070554223440255.5,5.96140108674415e+17,1969416855156238.0,3793699919177444.5,80160756612865.42,359260840558463.0,1.7799638696428204e+16,5.690673773830408e+17
39.15591596493141,3070812128991754.0,6.094809194933728e+17,1969582272734131.8,3794018564422604.5,81979482318404.67,367415537538551.5,1.8203707748246764e+16,5.819934037591208e+17
40.03903428423004,3071068701287821.5,6.230877252772854e+17,1969746835176670.2,3794335562402779.0,83834469434883.31,375732986179895.56,1.8615841570319732e+16,5.951771651524842e+17
40.93981496991464,3071324106107509.0,6.369658171432795e+17,1969910648812581.0,3794651117939929.0,85726439088894.69,384216429759477.3,1.903620088940497e+16,6.086237875121663e+17
