t(s),Total solute volume 1,Total retention volume 1,Total 1 volume 1,Total 2 volume 1,Total 3 volume 1,Total 4 volume 1,Total 5 volume 1,Total 6 volume 1
0.1,1063829490026819.8,1368988609462191.8,135960145783138.03,169198973652234.8,0.0,0.0,0.0,0.0
0.202,1601937828127650.2,2062053563659478.0,204731776760853.06,254783538178700.06,519494795.7440284,1189027618.038508,22419517931.430645,576292551929.6271
0.30604000000000003,2011711189425955.8,2590293115632957.5,257101866936709.6,319956796436601.1,1317787900.0679586,3016174897.426988,56871835162.29765,1462057035733.8567
0.41216080000000005,2358165503323544.5,3037309829752336.5,301379619850750.1,375059344612293.0,2340312221.3649487,5356547149.348192,101001597088.15489,2596663509284.9224
0.5204040160000001,2665690131385956.5,3434461070354764.0,340682058716931.3,423970239731518.44,3562790903.490824,8154579085.246121,153761019889.18866,3953162130479.7666
0.6308120963200001,2946441156624306.5,3797374779318624.5,376562762236650.7,468622871388609.56,4972157871.553593,11380364910.703447,214586185251.92972,5517050361019.216
0.7434283382464002,3207484759168122.0,4135135381404996.0,409924806418006.06,510141094938299.3,6560900817.602935,15016710409.563786,283152872353.54175,7279990396975.938
0.8582969050113283,3453347704018563.5,4453563189550477.0,441346723478752.56,549244879156573.8,8324736290.202997,19053811639.357838,359276214433.1296,9237228134219.738
0.9754628431115548,3687131773594997.0,4756647186950625.0,471224929194895.25,586427553492720.6,10261463892.636328,23486632397.593563,442861246684.8615,11386321325032.111
1.094972099973786,3911070106751013.0,5047260217723367.0,499844824459038.3,622044292169104.4,12370331527.436295,28313451381.63132,533875510841.9246,13726435050464.01
1.2168715419732616,4126832661495845.0,5327551630265339.0,527419834202439.2,656360697136823.2,14651653803.305353,33534988791.701603,632332586087.1414,16257918201545.883
1.3412089728127268,4335706394146672.0,5599178859046087.0,554114434754405.2,689581455044667.0,17106568421.863018,39153848744.84309,738281575043.1414,18982033108125.53
1.4680331522689813,4538707666336648.0,5863451887294458.0,580058519747237.0,721868215246029.2,19736873382.771236,45174146667.48954,851800077791.6547,21900774866707.152
1.597393815314361,4736655606479268.0,6121427521855627.0,605356775900174.2,753351257725925.6,22544914275.491306,51601251327.28959,972989327567.8868,25016746257081.895
1.729341691620648,4930221798360624.0,6373973242186391.0,630095033349368.4,784137395926685.6,25533504059.663063,58441601225.50243,1101970728619.195,28333068715810.58
1.863928525453061,5119964998300743.0,6621811808673041.0,654344702590450.8,814315498411241.8,28705864728.959908,65702571076.71292,1238883338522.9016,31853317596265.816
2.001207095962122,5306356041450755.0,6865553263435986.0,678165957567394.9,843960450137029.5,32065584191.742683,73392373117.0535,1383882007238.337,35581474316262.37
2.1412312378813647,5489796120927284.0,7105718415546063.0,701610071792954.9,873136059699040.0,35616584026.11848,81519983301.98499,1537135985481.509,39521890573972.586
2.284055862638992,5670630471425556.0,7342756421697749.0,724721167149617.2,901897235668547.5,39363095193.94298,90095085720.67484,1698827876595.4373,43679261396509.49
2.4297369798917723,5849158792333772.0,7577058177990107.0,747537545990450.6,930291644359065.5,43309639704.49282,99128030628.11623,1869152845198.928,48058604791286.32
2.578331719489608,6025643310416804.0,7808966679429402.0,770092721570824.6,958360992172666.0,47461016811.16261,108629802852.541,2048318021473.6726,52665246427970.1
2.7298983538794,6200315102802353.0,8038785144765431.0,792416226142323.2,986142031252489.6,51822292722.205765,118611998245.87485,2236542057112.1187,57504808220184.11
2.884496320956988,6373379117080448.0,8266783467909076.0,814534252534372.0,1013667357914930.2,56398793079.50779,129086806469.74426,2434054800729.5356,62583199979053.05
3.0421862473761276,6545018201505084.0,8493203398059066.0,836470169224375.6,1040966053641438.6,61196097650.58425,140066998847.18884,2641097068795.658,67906613522882.516
3.2030299723236504,6715396373244753.0,8718262741387357.0,858244938028555.8,1068064204884252.2,66220036815.377304,151565920322.3764,2857920494027.538,73481518778620.89
3.3670905717701234,6884661493160316.0,8942158800720036.0,879877455945443.9,1094985328482008.1,71476689528.30907,163597484796.95352,3084787437452.539,79314661520486.77
3.5344323832055258,7052947473316971.0,9165071215337806.0,901384837281581.8,1121750722758075.6,76972382508.80887,176176173278.1893,3321970953491.1074,85413062471897.14
3.7051210308696363,7220376112939070.0,9387164323835866.0,922782648291289.9,1148379759523827.0,82713690467.80927,189317034398.3099,3569754799750.8706,91784017557064.7
3.879223451487029,7387058636210367.0,9608589144326392.0,944085103711479.2,1174890128661265.8,88707437218.69237,203035686958.21997,3828433484992.9736,98435099134111.05
4.0568079205167695,7553096988801171.0,9829485045042368.0,965305232461164.8,1201298044331907.8,94960697552.46193,217348324220.45187,4098312350082.187,105374158076292.75
4.237944078927105,7718584937626870.0,1.0049981162502474e+16,986455018193440.0,1227618419890150.5,101480799781.1005,232271719731.51654,4379707677775.499,112609326594741.25
4.422702960505647,7883609008967703.0,1.027019761235421e+16,1007545519189596.5,1253865017088495.5,108275328871.88069,247823234496.89902,4672946828016.638,120149021717031.3
4.61115701971576,8048249292911150.0,1.0490246528805632e+16,1028586971168912.8,1280050574021754.5,115352130110.23817,264020825365.8849,4978368396043.212,128001949352324.69
4.803380160110075,8212580136543149.0,1.071023296144635e+16,1049588875880314.0,1306186915377114.0,122719313240.54042,280883054510.2762,5296322391120.505,136177108886874.98
4.9994477633122765,8376670744005992.0,1.0930255652724e+16,1070560077791272.1,1332285047871548.8,130385257043.5024,298429099902.55707,5627170434121.307,144683798264112.12
5.199436718578522,8540585698157515.0,1.1150407715000422e+16,1091508830757223.1,1358355243220243.8,138358614316.54803,316678766716.41455,5971285972497.579,153531619511914.62
5.403425452950093,8704385415892129.0,1.1370777222673718e+16,1112442856212756.9,1384407110554049.8,146648317229.56766,335652499586.5284,6329054511454.961,162730484686498.28
5.611493962009095,8868126547052983.0,1.1591447732118874e+16,1133369394153620.0,1410449659865298.5,155263583033.5311,355371395676.0572,6700873860357.381,172290622207895.9
5.823723841249277,9031862325156482.0,1.1812498740005012e+16,1154295247960200.8,1436491357789522.0,164213920103.52444,375857218509.64795,7087154393566.665,182222583566604.4
6.040198318074262,9195642876772030.0,1.2034006088777122e+16,1175226823937069.8,1462540176811391.0,173509134301.20493,397132412537.6006,7488319325068.863,192537250384713.9
6.261002284435747,9359515495280646.0,1.2256042326654334e+16,1196170166300037.2,1488603638805237.5,183159335644.47232,419220118403.28577,7904804996361.646,203245841818007.2
6.486222330124463,9523524883823554.0,1.2478677028323914e+16,1217130988225594.8,1514688853675309.2,193174945274.54135,442144188891.3539,8337061177178.614,214359922288122.22
6.715946776726952,9687713371501620.0,1.2701977081548102e+16,1238114699481767.0,1540802553741652.0,203566702712.5722,465929205538.7679,8785551378712.622,225891409536092.25
6.950265712261491,9852121106268912.0,1.2926006944107348e+16,1259126431080411.8,1566951124419283.2,214345673399.7078,490600495894.61957,9250753179072.186,237852582990420.12
7.18927102650672,1.0016786227451526e+16,1.315082887484703e+16,1280171057325560.0,1593140631656807.5,225523256515.77304,516184151417.8402,9733158560766.879,250256092444441.16
7.433056447036854,1.0181745020396142e+16,1.3376503142045054e+16,1301253215577900.2,1619376846532802.0,237111193073.12415,542707046004.78577,10233274260069.674,263114967039065.66
7.681717575977592,1.0347032055396092e+16,1.3603088211863306e+16,1322377324009889.8,1645665267351614.8,249121574283.1464,570196855140.9946,10751622128148.97,276442624548142.53
7.935351927497144,1.0512680312744216e+16,1.3830640919259136e+16,1343547597587824.2,1672011139532648.5,261566850193.82483,598682075673.472,11288739503901.785,290252880964678.9
8.194058966047088,1.0678721295508328e+16,1.4059216623410414e+16,1364768062484865.0,1698419473546999.8,274459838597.54047,628192046201.6257,11845179598452.52,304559960386998.44
8.45794014536803,1.0845185131412742e+16,1.4288869349434096e+16,1386042569101705.8,1724895061121371.5,287813734208.94794,658756968086.4722,12421511891310.08,319378505204663.5
8.72709894827539,1.1012100665027264e+16,1.451965191794439e+16,1407374803848606.2,1751442489900485.8,301642118113.33905,690407927079.0892,13018322538201.96,334723586584626.1
9.0016409272409,1.1179495541310864e+16,1.475161606380013e+16,1428768299822477.0,1778066156734475.5,315958967486.41376,723176915570.4072,13636214790624.836,350610715258625.25
9.281673745785717,1.1347396281425604e+16,1.4984812545220074e+16,1450226446496083.8,1804770279736840.8,330778665586.81635,757096855465.4597,14275809427170.111,367055852613342.8
9.567307220701432,1.1515828351622304e+16,1.5219291244300358e+16,1471752498521827.2,1831558909240543.0,346116012023.1767,792201621686.0754,14937745196699.87,384075422085253.44
9.85865336511546,1.1684816225903222e+16,1.5455101259843224e+16,1493349583740185.8,1858435937764285.8,361986233297.7264,828526066306.7772,15622679273463.326,401686320862468.0
10.155826432417769,1.1854383443081502e+16,1.5692290993298684e+16,1515020710472063.8,1885405109087685.5,378404993628.87006,866106043329.3259,16331287724255.46,419905931896213.2
10.458942961066125,1.2024552658786228e+16,1.5930908228526664e+16,1536768774165165.8,1912470026522511.8,395388406055.3365,904978434101.9266,17064265987732.36,438752136224866.25
10.768121820287448,1.2195345692897104e+16,1.6171000206007356e+16,1558596563456281.5,1939634160457022.8,412953043824.7671,945181173389.6483,17822329366006.184,458243325613720.25
11.083484256693197,1.2366783572839294e+16,1.6412613692056362e+16,1580506765704466.8,1966900855241917.2,431115952069.79706,986753276103.0544,18606213528652.14,478398415513866.8
11.405153941827061,1.2538886573120528e+16,1.6655795043540592e+16,1602501972044001.0,1994273335478543.0,449894659774.8624,1029734864692.4766,19416675029266.832,499236858343808.6
11.733257020663602,1.2711674251450746e+16,1.6900590268536468e+16,1624584682000549.2,2021754711763682.8,469307192037.1087,1074167197215.6423,20254491834724.22,520778657097518.5
12.067922161076874,1.2885165481748418e+16,1.7147045083325858e+16,1646757307709476.0,2049347985939065.2,489372082624.92395,1120092696086.7224,21120463867281.445,543044379282896.9
12.409280604298411,1.3059378484305074e+16,1.7395204966083626e+16,1669022177770929.0,2077056055888952.2,510108386837.72064,1167554977515.1304,22015413559690.76,566055171194616.0
12.75746621638438,1.3234330853351394e+16,1.764511520757403e+16,1691381540772887.0,2104881719924469.5,531535694670.67566,1216598881642.596,22940186423478.94,589832772525518.6
13.112615540712067,1.3410039582243844e+16,1.7896820959142394e+16,1713837568510047.0,2132827680789468.0,553674144288.268,1267270503387.2156,23895651630557.81,614399531320779.4
13.474867851526309,1.3586521086468266e+16,1.8150367278258436e+16,1736392358923748.5,2160896549319118.2,576544435810.4537,1319617224003.4124,24882702608335.52,639778419279146.5
13.844365208556836,1.3763791224636998e+16,1.8405799171844904e+16,1759047938785477.5,2189090847779532.0,600167845415.4202,1373687743366.719,25902257648494.9,665993047405623.0
14.221252512727972,1.394186531764053e+16,1.866316163760105e+16,1781806266144468.2,2217413012913697.0,624566239762.8939,1429532112992.6016,26955260529614.242,693067682019982.9
14.605677562982532,1.4120758166096994e+16,1.8922499703511596e+16,1804669232557828.5,2245865398716830.8,649762090741.9944,1487201769798.3604,28042681153800.184,721027261125591.0
14.997791114242183,1.4300484066231504e+16,1.9183858465715e+16,1827638665119925.8,2274450278961889.0,675778490547.6332,1546749570617.4143,29165516197508.35,749897411142980.4
15.397746936527026,1.448105682430326e+16,1.9447283124887588e+16,1850716328306238.5,2303169849494192.5,702639167089.524,1608229827475.1643,30324789776725.113,779704464012643.4
15.805701875257567,1.4662489769689134e+16,1.9712819021288436e+16,1873903925645424.2,2332026230312317.5,730368499737.7969,1671698343635.6104,31521554126684.016,810475474671524.0
16.221815912762718,1.484479576672142e+16,1.9980511668594336e+16,1897203101232282.5,2361021467450852.5,758991535409.203,1737212450427.999,32756890296291.027,842238238907666.9
16.64625223101797,1.5027987225369962e+16,2.025040678664699e+16,1920615441092908.5,2390157534679385.5,788534004997.957,1804831044862.5742,34031908857430.03,875021311597426.4
17.079177275638333,1.521207611085023e+16,2.0522550333220624e+16,1944142474412644.5,2419436335030580.0,819022340155.1073,1874614628044.5042,35347750629320.445,908854025329679.4
17.5207608211511,1.5397073952232398e+16,2.0796988534912504e+16,1967785674636338.0,2448859702169519.0,850483690420.3862,1946625344394.9949,36705587418095.2,943766509421317.5
17.97117603757412,1.558299185012041e+16,2.107376791724763e+16,1991546460449760.2,2478429401614921.0,882945940710.3632,2020927021688.3591,38106622771766.26,979789709328381.2
18.430599558325603,1.5769840483463848e+16,2.1352935334085492e+16,2015426196650156.5,2508147131822665.0,916437729166.7388,2097585211913.851,39552092750743.47,1016955406456991.2
18.899211549492115,1.5957630115561148e+16,2.1634537996405776e+16,2039426194913495.2,2538014525140485.0,950988465368.4579,2176667232970.731,41043266714064.17,1055296238378279.1
19.37719578048196,1.6146370599307244e+16,2.191862350054797e+16,2063547714465124.0,2568033148642683.0,986628348911.3262,2258242211204.9634,42581448121496.445,1094845719451309.5
19.864739696091597,1.633607138173593e+16,2.22052398559715e+16,2087791962660289.5,2598204504852491.5,1023388388358.6698,2342381124795.721,44167975351665.7,1135638261858006.8
20.36203449001343,1.6526741507902148e+16,2.2494435512600864e+16,2112160095480301.2,2628530032359591.0,1061300420566.5018,2429156847999.6265,45804222536356.59,1177709197053896.8
20.869275179813698,1.6718389624146996e+16,2.278625938781245e+16,2136653217949824.8,2659011106339416.5,1100397130386.534,2518644196260.38,47491600411135.2,1221094797638403.0
21.38666068340997,1.6911023980785298e+16,2.308076089311985e+16,2161272384480332.8,2689649038980527.0,1140712070750.2917,2610919972191.314,49231557182430.44,1265832299648288.0
21.91439389707817,1.7104652434252268e+16,2.3377989960607356e+16,2186018599144484.8,2720445079826132.5,1182279683137.4087,2706063012437.885,51025579411211.375,1311959925277720.2
22.452681775019734,1.7299282448744058e+16,2.367799706916023e+16,2210892815885778.0,2751400416034933.0,1225135318431.1118,2804154235427.0625,52875192913387.29,1359516906028227.8
23.00173541052013,1.7494921097384318e+16,2.398083327053562e+16,2235895938667627.0,2782516172566722.5,1269315258163.6982,2905276690009.9824,54781963677055.04,1408543506291745.5
23.561770118730532,1.7691575062947248e+16,2.428655021531797e+16,2261028821565810.5,2813793412297318.0,1314856736154.6753,3009515605004.15,56747498796708.06,1459081047369693.8
24.133005521105144,1.788925063816573e+16,2.4595200178796756e+16,2286292268807774.0,2845233136067616.5,1361797960544.1184,3116958439640.921,58773447424517.69,1511171931930892.0
24.715665631527248,1.8087953725651184e+16,2.4906836086805372e+16,2311687034762477.0,2876836282670849.0,1410178136223.5222,3227694934923.6313,60861501738788.36,1564859668910919.8
25.309978944157795,1.8287689837451388e+16,2.522151154155602e+16,2337213823883837.5,2908603728782225.5,1460037487666.3806,3341817165901.4385,63013397929679.305,1620188898855336.0
25.91617852304095,1.8488464094269976e+16,2.5539280847504028e+16,2362873290610974.5,2940536288834832.5,1511417282160.4233,3459419594863.27,65230917202280.46,1677205419708933.0
26.53450209350177,1.869028122437091e+16,2.586019903727348e+16,2388666039228197.0,2972634714845341.5,1564359853443.2761,3580599125456.221,67515886797118.375,1735956213053025.8
27.165192135371807,1.8893145562190056e+16,2.618432189767497e+16,2414592623687598.5,3004899696193238.0,1618908625743.1382,3705455157731.809,69870181028162.6,1796489470792466.5
27.808495978079243,1.9097061046675236e+16,2.6511705995843544e+16,2440653547396849.5,3037331859356785.0,1675108138225.851,3834089644123.3057,72295722338389.11,1858854622293966.5
28.464665897640828,1.930203121937464e+16,2.6842408705524736e+16,2466849262974960.5,3069931767608994.5,1733004069849.4128,3966607146356.849,74794482372952.66,1923102361976904.0
29.133959215593645,1.950805922229394e+16,2.7176488233534676e+16,2493180171978357.5,3102699920676811.0,1792643264626.9185,4103114893298.282,77368483070005.92,1989284677357624.0
29.816638399905518,1.9715147795540256e+16,2.7514003646420716e+16,2519646624599792.5,3135636754366376.5,1854073757298.538,4243722839737.426,80019797769197.61,2057454877547996.5
30.51297116790363,1.9923299274772596e+16,2.785501489734468e+16,2546248919342532.5,3168742640157553.5,1917344799412.9502,4388543726110.695,82750552337863.06,2127667622208603.8
31.223230591261704,2.013251558847516e+16,2.8199582853213956e+16,2572987302671839.5,3202017884770248.0,1982506885818.4202,4537693139162.442,85562926314921.14,2199978950956768.5
31.947695203086937,2.034279825507279e+16,2.854776932208153e+16,2599861968646321.5,3235462729705583.5,2049611781563.3562,4691289573544.992,88459154072468.81,2274446313229262.0
32.686649107148675,2.0554148379904012e+16,2.889963708083761e+16,2626873058531137.0,3269077350764565.5,2118712549206.0422,4849454494356.315,91441525995061.5,2351128598599231.5
33.44038208929165,2.076656665207016e+16,2.9255249903212604e+16,2654020660395208.5,3302861857546841.0,2189863576532.8237,5012312400614.176,94512389676650.28,2430086167546589.0
34.20918973107749,2.098005334117532e+16,2.9614672588112616e+16,2681304808694673.0,3336816292932268.0,2263120604683.912,5179990889664.529,97674151135136.61,2511380882680838.5
34.993373525699035,2.1194608293975304e+16,2.9977970988306244e+16,2708725483844515.0,3370940632547914.0,2338540756685.4614,5352620722521.435,100929276044495.56,2595076140414789.0
35.793240996213015,2.141023093094979e+16,3.034521203948183e+16,2736282611780606.0,3405234784222886.0,2416182566386.5337,5530335890135.181,104280290984398.38,2681236903087601.0
36.60910581613728,2.1626920242815616e+16,3.071646378969384e+16,2763976063513964.5,3439698587433741.5,2496106007799.0303,5713273680584.43,107729784707262.3,2769929731534907.0
37.44128793246003,2.1844674786994852e+16,3.1091795429215276e+16,2791805654679447.5,3474331812742765.5,2578372524838.531,5901574747187.621,111280409422632.83,2861222818103586.0
38.29011369110923,2.2063492684054856e+16,3.1471277320813764e+16,2819771145080747.5,3509134161231812.0,2663045061463.595,6095383177528.2705,114934882098795.47,2955186020108587.0
39.15591596493141,2.2283371614135336e+16,3.1854981030468308e+16,2847872238233753.0,3544105263933938.5,2750188092210.739,6294846563387.55,118695985781501.44,3051890893728233.0
40.03903428423004,2.2504308813376476e+16,3.224297935854134e+16,2876108580910121.0,3579244681265446.0,2839867653122.038,6500116071577.727,122566570929670.52,3151410728334925.5
40.93981496991464,2.272630107036611e+16,3.2635346371423524e+16,2904479762683102.5,3614551902460673.0,2932151373061.9116,6711346515668.156,126549556767928.81,3253820581256918.5
41.85861126931294,2.2949344722617244e+16,3.303215743366344e+16,2932985315477462.0,3650026345011851.5,3027108505419.3394,6928696428595.681,130647932655816.0,3359197312967039.0
42.7957834946992,2.3173435653093868e+16,3.343348924059932e+16,2961624713125434.5,3685667354116501.5,3124809960191.3833,7152328136149.914,134864759473488.92,3467619622693618.5
43.751699164593184,2.3398569286797904e+16,3.3839419851502788e+16,2990397370930477.5,3721474202134593.5,3225328336443.4624,7382407831323.142,139203171023724.98,3579168084448343.5
