t(s),Total solute volume 1,Total retention volume 1,Total 1 volume 1,Total 2 volume 1,Total 3 volume 1,Total 4 volume 1,Total 5 volume 1,Total 6 volume 1
0.1,1360095892163908.8,3176178273173015.0,653029631800972.5,1163052749208134.2,0.0,0.0,0.0,-4.1755110825714755e-98
0.202,1910909303531013.2,4972666826671836.0,917494485172349.6,1634067988661401.2,84488757717.34897,335562127404.02374,14175627707976.43,495599370713972.56
0.30604000000000003,2254014184095619.0,6502958516230570.0,1082231167149549.0,1927465970807872.2,201309269262.7993,799559514658.7985,33834446040963.117,1204411879352645.5
0.41216080000000005,2495057553150987.0,7924013814442228.0,1197964538929500.8,2133588473774101.2,337606538795.77936,1340923377430.5024,56786274847635.66,2038938443823779.0
0.5204040160000001,2675364680161167.0,9293234998153258.0,1284536312202374.2,2287773829742401.0,487526074038.88745,1936398773492.7136,82041017768800.28,2961095233430980.0
0.6308120963200001,2815738248895704.5,1.0638054318487798e+16,1351934584644011.5,2407810957995879.5,647853817065.7687,2573219198004.6724,109055614030217.23,3950293839906919.5
0.7434283382464002,2928182422512559.0,1.1973773922801072e+16,1405922975649499.5,2503964931355323.0,816653910507.4996,3243695294077.027,137502932682075.88,4994140311397041.0
0.8582969050113283,3020235061543010.5,1.3309856011004776e+16,1450120676186924.2,2582681570609296.5,992694121470.3997,3942932557002.38,167174651831048.34,6084708424156028.0
0.9754628431115548,3096913007117578.5,1.465261116624861e+16,1486936447472928.8,2648250907217051.5,1175161973267.264,4667703790774.445,197933330240123.2,7216734608436884.0
1.094972099973786,3161702065398769.5,1.6006505917495936e+16,1518043947193239.2,2703653744825243.5,1363510015580.8389,5415834514365.642,229686291264673.84,8386640524284070.0
1.2168715419732616,3217106678889612.5,1.7374860868522044e+16,1544645645957572.0,2751031697506164.0,1557365515612.1104,6185844251035.306,262370379950397.28,9591963256451648.0
1.3412089728127268,3264975434487769.5,1.876025071541038e+16,1567629115120656.0,2791965540153060.5,1756474988353.9663,6976726199603.6875,295942598827312.44,1.0831004825633622e+16
1.4680331522689813,3306703678312561.0,2.016474653328026e+16,1587664309259034.2,2827648469680629.0,1960668735156.851,7787806379189.426,330374119795868.06,1.2102607481117826e+16
1.597393815314361,3343364769609034.0,2.1590069268712708e+16,1605266585768703.2,2858998343646743.5,2169837424996.8293,8618650607976.528,365646328273653.4,1.3406004753381614e+16
1.729341691620648,3375797943143387.0,2.3037690665603144e+16,1620838890679331.5,2886732813668918.5,2383916204343.102,9469001385944.027,401748138086014.4,1.4740719962435186e+16
1.863928525453061,3404668768565336.0,2.4508901745488052e+16,1634700787312324.8,2911421025796009.5,2602873664423.742,10338734071504.504,438674126443152.5,1.61064954296353e+16
2.001207095962122,3430511745086276.5,2.600486054410664e+16,1647108907478206.8,2933520044325022.0,2826704027582.532,11227825844653.72,476423212563834.56,1.7503242104781072e+16
2.1412312378813647,3453760929503658.0,2.752662617995651e+16,1658271657064254.8,2953401042621522.5,3055421516998.514,12136333342677.887,514997705146616.8,1.893100309076076e+16
2.284055862638992,3474772357896687.5,2.9075183678884704e+16,1668359981476258.0,2971368476495386.5,3289056237673.205,13064376298820.309,554402605232525.7,2.038992682524732e+16
2.4297369798917723,3493840722707639.5,3.065146240232994e+16,1677515372889670.8,2987674345207552.5,3527651122499.195,14012125411624.172,594645089118937.0,2.1880247095872012e+16
2.578331719489608,3511211954554609.0,3.2256349959456548e+16,1685855911218826.0,3002528950506142.0,3771259641170.393,14979793244427.535,635734120275968.4,2.3402267970015396e+16
2.7298983538794,3527092836709773.5,3.3890702873012384e+16,1693480880364880.2,3016109118217731.0,4019944063486.1235,15967627327034.139,677680155048061.6,2.495635231128142e+16
2.884496320956988,3541658437828146.5,3.555535487394033e+16,1700474336929402.5,3028564554167797.5,4273774130942.4663,16975904879205.604,720494917448558.4,2.6542912948556308e+16
3.0421862473761276,3555057919135221.5,3.725112343872257e+16,1706907898448707.0,3040022810058646.0,4532826032687.94,18004928743178.52,764191225478879.4,2.816240583082524e+16
3.2030299723236504,3567419115777017.5,3.8978815007366136e+16,1712842943060579.0,3050593201101672.5,4797181610930.532,19055024227639.746,808782856304169.6,2.9815324685284136e+16
3.3670905717701234,3578852183481293.5,4.073922919903645e+16,1718332360394163.5,3060369924372803.5,5066927741129.558,20126536646014.47,854284441038230.1,3.1502196825362796e+16
3.5344323832055258,3589452525247802.0,4.253316225795518e+16,1723421956776550.2,3069434561502007.5,5342155846628.011,21219829388812.168,900711382311124.1,3.3223579846882264e+16
3.7051210308696363,3599303158231090.0,4.4361409902397336e+16,1728151591656187.0,3077858102656829.5,5622961517639.737,22335282410522.934,948079789527133.1,3.4980059016397984e+16
3.879223451487029,3608476641547265.5,4.622476970668228e+16,1732556103210487.5,3085702595060501.0,5909444211937.784,23473291041079.758,996406427977533.2,3.67722452036335e+16
4.0568079205167695,3617036656901858.5,4.812404311482669e+16,1736666067260690.8,3093022494628353.0,6201707020033.231,24634265053521.293,1045708678893312.2,3.860077324506893e+16
4.237944078927105,3625039312623880.5,5.006003716155009e+16,1740508423384336.0,3099865781081579.0,6499856481658.907,25818627935479.484,1096004508203977.0,4.046630065183922e+16
4.422702960505647,3632534225780519.5,5.20335659592307e+16,1744106994476468.8,3106274883291939.0,6804002443377.047,27026816324050.656,1147312442277174.2,4.23695065946372e+16
4.61115701971576,3639565425058124.0,5.40454519965711e+16,1747482920254471.5,3112287451359076.5,7114257949392.725,28259279572597.094,1199651549296819.8,4.431109111308063e+16
4.803380160110075,3646172107982353.0,5.609652728499618e+16,1750655020825996.2,3117937004129364.0,7430739159372.034,29516479424847.91,1253041425228290.2,4.6291774508245976e+16
4.9994477633122765,3652389279066894.5,5.818763438135619e+16,1753640103086558.0,3123253474893712.0,7753565288377.983,30798889776886.72,1307502183541765.8,4.831229688570203e+16
5.199436718578522,3658248290087773.0,6.031962730976358e+16,1756453220124164.0,3128263673390320.5,8082858565049.57,32106996511636.105,1363054448036329.0,5.037341782304837e+16
5.403425452950093,3663777299485646.5,6.249337240092726e+16,1759107891794482.5,3132991678651753.0,8418744204934.394,33441297393566.31,1419719348240530.2,5.2475916141156296e+16
5.611493962009095,3669001664614099.5,6.470974906385052e+16,1761616293053001.5,3137459174426759.0,8761350396499.041,34802302013794.598,1477518516969080.2,5.462058976237732e+16
5.823723841249277,3673944277962873.5,6.696965050200826e+16,1763989415387584.2,3141685736693655.0,9110808297822.582,36190531777652.86,1536474089697031.5,5.680825564219161e+16
6.040198318074262,3678625856432388.5,6.92739843839266e+16,1766237205709333.2,3145689081026604.0,9467252042359.838,37606519928315.63,1596608705477372.5,5.903974976331025e+16
6.261002284435747,3683065191098418.0,7.162367347635115e+16,1768368686273355.8,3149485276175975.0,9830818752463.26,39050811601280.56,1657945509179309.5,6.131592718327031e+16
6.486222330124463,3687279363592869.5,7.401965624678453e+16,1770392058570770.8,3153088929101296.0,10201648559594.088,40523963905455.82,1720508154865534.0,6.363766212818905e+16
6.715946776726952,3691283934168197.0,7.64628874410473e+16,1772314793625040.0,3156513345790098.5,10579884630347.545,42026546027377.74,1784320810159662.2,6.6005848126646584e+16
6.950265712261491,3695093105655370.5,7.89543386405976e+16,1774143710713928.0,3159770671462699.5,10965673197573.201,43559139355705.49,1849408161481699.0,6.8421398178730616e+16
7.18927102650672,3698719866827307.0,8.14949988035993e+16,1775885046203323.0,3162872013166090.5,11359163595999.229,45122337623643.3,1915795420050883.2,7.088524495613212e+16
7.433056447036854,3702176118108946.5,8.408587479311742e+16,1777544513905052.8,3165827547271953.0,11760508301871.502,46716747067351.98,1983508328572849.0,7.339834102988936e+16
7.681717575977592,3705472782106344.0,8.672799189531221e+16,1779127358145779.5,3168646613992987.0,12169862976204.293,48342986598746.03,2052573168542429.5,7.596165912294973e+16
7.935351927497144,3708619901040647.5,8.94223943300947e+16,1780638400548471.0,3171337800701329.5,12587386511307.693,50001687991350.47,2123016768105146.8,7.857619238519654e+16
8.194058966047088,3711626722852720.0,9.217014575635541e+16,1782082081374253.8,3173909015558869.0,13013241080314.955,51693496078117.37,2194866510430300.8,8.124295468898088e+16
8.45794014536803,3714501777478313.5,9.497232977359526e+16,1783462496144794.2,3176367552742191.5,13447592189479.615,53419068960290.87,2268150342556500.5,8.396298094352365e+16
8.72709894827539,3717252944571656.5,9.783005042154736e+16,1784783428158783.0,3178720150354807.0,13890608733052.424,55179078226566.65,2342896784677277.0,8.673732742682515e+16
9.0016409272409,3719887513769821.5,1.0074443267917739e+17,1786048377426948.2,3180973041960813.0,14342463050580.123,56974209181921.66,2419134939839931.5,8.956707213394738e+16
9.281673745785717,3722412238434049.5,1.037166229642836e+17,1787260586475177.2,3183132002540528.0,14803330986496.502,58805161085599.87,2496894504035549.5,9.245331514072619e+16
9.567307220701432,3724833383672975.5,1.0674778963477122e+17,1788423063402138.8,3185202389556437.0,15273391951898.459,60672647397830.72,2576205776661990.5,9.5397178982128e+16
9.85865336511546,3727156769341466.5,1.0983912349256446e+17,1789538602524533.0,3187189179722636.0,15752828988420.094,62577396034937.266,2657099671344965.0,9.83998090446077e+16
10.155826432417769,3729387808614671.0,1.1299183829100632e+17,1790609802897859.2,3189097001990519.5,16241828834133.871,64520149632552.086,2739607727105223.5,1.0146237397193144e+17
10.458942961066125,3731531542656829.0,1.162071712465219e+17,1791639084962103.2,3190930167195017.5,16740581991421.902,66501665816720.89,2823762119862177.5,1.0458606608403754e+17
10.768121820287448,3733592671835982.5,1.1948638355523949e+17,1792628705529054.5,3192692694747122.0,17249282796772.73,68522717482715.125,2909595674266362.0,1.0777210180858142e+17
11.083484256693197,3735575583877568.5,1.2283076091520594e+17,1793580771299789.2,3194388336708753.5,17768129492469.24,70584093081421.12,2997141875854914.5,1.1102172212489112e+17
11.405153941827061,3737484379299568.5,1.2624161405477635e+17,1794497251077010.5,3196020599543071.5,18297324300141.445,72686596913205.36,3086434883525737.5,1.1433619302011758e+17
11.733257020663602,3739322894429117.0,1.29720279267716e+17,1795379986816120.0,3197592763796562.0,18837073496166.723,74831049429185.9,3177509542327268.0,1.1771680595742166e+17
12.067922161076874,3741094722263292.0,1.33268118955512e+17,1796230703641212.0,3199107901937666.5,19387587488905.348,77018287539868.31,3270401396561991.5,1.211648783560791e+17
12.409280604298411,3742803231404895.0,1.368865221773588e+17,1797051018936813.2,3200568894549270.0,19949080897765.934,79249164931125.84,3365146703202777.5,1.2468175408343618e+17
12.75746621638438,3744451583276240.0,1.4057690520825416e+17,1797842450612822.2,3201978445048668.5,20521772634100.08,81524552387521.62,3461782445621948.0,1.282688039586729e+17
13.112615540712067,3746042747790093.5,1.4434071210561914e+17,1798606424628677.5,3203339093088217.5,21105885983929.363,83845338122994.48,3560346347633767.0,1.3192742626837133e+17
13.474867851526309,3747579517635879.0,1.4817941528483197e+17,1799344281852665.5,3204653226771835.0,21701648692512.758,86212428118938.19,3660876887851789.0,1.3565904729390837e+17
13.844365208556836,3749064521321217.0,1.5209451610405283e+17,1800057284323632.0,3205923093807180.0,22309293050765.473,88626746469722.1,3763413314362885.0,1.394651218507176e+17
14.221252512727972,3750500235092855.5,1.5608754545869734e+17,1800746620974624.2,3207150811699556.0,22929055983542.516,91089235735714.3,3867995659720573.0,1.433471338394904e+17
14.605677562982532,3751888993847315.0,1.601600643859054e+17,1801413412871480.5,3208338377081882.0,23561179139804.77,93600857303874.38,3974664756260537.0,1.473065968094004e+17
14.997791114242183,3753233001129209.0,1.6431366467934662e+17,1802058718013377.2,3209487674264554.0,24205908984686.133,96162591755999.11,4083462251741693.5,1.513450545334569e+17
15.397746936527026,3754534338304736.5,1.6854996951468547e+17,1802683535737349.2,3210600483079911.0,24863496893483.668,98775439244709.34,4194430625316699.5,1.5546408159610874e+17
15.805701875257567,3755794972988301.0,1.728706340860301e+17,1803288810764187.8,3211678486088083.5,25534199247594.04,101440419877275.73,4307613203835892.5,1.5966528399322854e+17
16.221815912762718,3757016766791934.0,1.7727734625367834e+17,1803875436919232.0,3212723275203726.5,26218277532421.867,104158574107389.3,4423054178489229.0,1.639502997446345e+17
16.64625223101797,3758201482460010.5,1.8177182720347504e+17,1804444260557981.5,3213736357797098.0,26915998437287.18,106930963134988.6,4540798621790934.0,1.6832079951929715e+17
17.079177275638333,3759350790445164.5,1.8635583211808352e+17,1804996083723436.8,3214719162317308.5,27627633957360.688,109758669314263.53,4660892504911945.0,1.727784872734139e+17
17.5207608211511,3760466274975657.5,1.9103115086047654e+17,1805531667059236.5,3215673043480702.5,28353461497656.8,112642796569958.86,4783382715365375.0,1.7732510090152778e+17
17.97117603757412,3761549439659360.0,1.9579960866995366e+17,1806051732500345.8,3216599287062939.5,29093763979117.09,115584470822111.77,4908317075050691.0,1.819624129008792e+17
18.430599558325603,3762601712665033.5,2.006630668709816e+17,1806556965760768.5,3217499114329686.0,29848829946815.773,118584840419355.6,5035744358662181.0,1.8669223104919776e+17
18.899211549492115,3763624451517520.0,2.0562342359515808e+17,1807048018635870.0,3218373686137077.0,30618953680322.863,121645076580934.83,5165714312467984.0,1.9151639909613837e+17
19.37719578048196,3764618947539984.0,2.1068261451660736e+17,1807525511135273.5,3219224106730422.5,31404435306259.355,124766373847576.5,5298277673465713.0,1.9643679746858208e+17
19.864739696091597,3765586429973084.5,2.1584261360109965e+17,1807990033460603.0,3220051427266592.0,32205580913081.76,127949950541368.78,5433486188921135.0,2.0145534399002387e+17
20.36203449001343,3766528069798096.0,2.2110543386920675e+17,1808442147841115.8,3220856649083315.0,33022702668133.523,131197049234804.3,5571392636296612.0,2.0657399461428467e+17
20.869275179813698,3767444983288577.5,2.2647312817379014e+17,1808882390238966.2,3221640726736260.5,33856118937001.72,134508937229146.66,5712050843576071.0,2.1179474417378397e+17
21.38666068340997,3768338235312758.0,2.3194778999213504e+17,1809311271934802.5,3222404570823004.0,34706154405219.88,137886907042288.34,5855515709993526.0,2.1711962714262346e+17
21.91439389707817,3769208842406827.5,2.3753155423303402e+17,1809729281003369.5,3223149050611118.5,35573140202356.37,141332276906264.7,6001843227172305.0,2.2255071841473168e+17
22.452681775019734,3770057775637529.5,2.4322659805913453e+17,1810136883687925.0,3223874996486012.5,36457414028531.69,144846391274602.03,6151090500682504.0,2.280901340973374e+17
23.00173541052013,3770885963270734.0,2.490351417248639e+17,1810534525681535.5,3224583202232910.5,37359320283406.305,148430621339675.56,6303315772024043.0,2.3374003232003174e+17
23.561770118730532,3771694293261197.5,2.5495944943024774e+17,1810922633322472.0,3225274427165923.0,38279210197683.72,152086365560256.47,6458578441043133.0,2.3950261405969712e+17
24.133005521105144,3772483615577393.5,2.6100183019094538e+17,1811301614710465.5,3225949398116060.5,39217441967173.12,155815050199441.38,6616939088790158.0,2.4538012398158477e+17
24.715665631527248,3773254744374103.0,2.6716463872482557e+17,1811671860749832.8,3226608811289077.5,40174380889456.9,159618129873142.8,6778459500826964.0,2.513748512968231e+17
25.309978944157795,3774008460024313.0,2.7345027635540886e+17,1812033746125064.0,3227253334003013.0,41150399503211.35,163497088109349.2,6943202690991697.0,2.574891306366524e+17
25.91617852304095,3774745511021045.0,2.7986119193251306e+17,1812387630213958.2,3227883606314474.0,42145877730225.5,167453437918339.4,7111232925629995.0,2.6372534294368496e+17
26.53450209350177,3775466615758757.5,2.863998827704358e+17,1812733857942936.2,3228500242541977.0,43161203020169.586,171488722374060.66,7282615748300684.0,2.7008591638049715e+17
27.165192135371807,3776172464203254.5,2.9306889560401536e+17,1813072760588823.8,3229103832693935.5,44196770498159.98,175604515206877.44,7457418004965154.0,2.7657332725585914e+17
27.808495978079243,3776863719458245.5,2.9987082756291795e+17,1813404656531016.8,3229694943808256.5,45252983115172.95,179802421407897.22,7635707869669083.0,2.8319010096892806e+17
28.464665897640828,3777541019236054.0,3.0680832716449696e+17,1813729851957596.5,3230274121209967.0,46330251801357.55,184084077845090.94,7817554870725920.0,2.899388129717207e+17
29.133959215593645,3778204977239236.0,3.1388409532558726e+17,1814048641528734.5,3230841889692727.0,47428995622300.125,188451153891425.44,8003029917411112.0,2.968220897502013e+17
29.816638399905518,3778856184459652.5,3.211008863935866e+17,1814361309000382.2,3231398754629636.5,48549641938293.39,192905352065232.84,8192205327176948.0,3.038426098243163e+17
30.51297116790363,3779495210400597.0,3.2846150919719706e+17,1814668127811079.0,3231945203018351.0,49692626566665.14,197448408683040.28,8385154853397293.0,3.1100310476731955e+17
31.223230591261704,3780122604227458.0,3.3596882811718995e+17,1814969361634429.8,3232481704465041.5,50858393947221.22,202082094525094.9,8581953713652471.0,3.183063602447383e+17
31.947695203086937,3780738895851890.0,3.436257641775804e+17,1815265264899630.5,3233008712111469.0,52047397310857.13,206808215513818.6,8782678618563939.0,3.2575521707332864e+17
32.686649107148675,3781344596953919.5,3.514352961575826e+17,1815556083282247.0,3233526663509052.5,53260098851398.805,211628613405430.62,8987407801189298.0,3.333525723003909e+17
33.44038208929165,3781940201946372.0,3.594004617247392e+17,1815842054167244.8,3234035981443555.5,54496969900727.19,216545166494984.88,9196221046987804.0,3.411013803037988e+17
34.20918973107749,3782526188885374.5,3.675243585896242e+17,1816123407086168.2,3234537074713686.0,55758491107247.05,221559790335068.28,9409199724367166.0,3.490046539131293e+17
34.993373525699035,3783103020330626.0,3.758101456824983e+17,1816400364130180.0,3235030338866720.5,57045152617760.305,226674438468416.25,9626426815822230.0,3.5706546555226234e+17
35.793240996213015,3783671144158722.0,3.842610443523483e+17,1816673140340563.2,3235516156894036.5,58357454262803.35,231891103174698.84,9847986949676696.0,3.6528694840384096e+17
36.60910581613728,3784230994332629.0,3.928803395887016e+17,1816941944078194.5,3235994899889085.5,59695905745511.41,237211816231742.84,1.0073966432438952e+16,3.7367229759598554e+17
37.44128793246003,3784782991630243.5,4.016713812666407e+17,1817206977373313.0,3236466927670376.5,61061026834072.47,242638649691454.25,1.0304453281783302e+16,3.8222477141165824e+17
38.29011369110923,3785327544334508.0,4.106375854154413e+17,1817468436256914.2,3236932589371698.5,62453347557834.07,248173716670715.16,1.0539537260168288e+16,3.9094769252108134e+17
39.15591596493141,3785865048887822.5,4.1978243551126176e+17,1817726511074918.2,3237392224001632.5,63873408407128.88,253819172157526.6,1.0779309909103982e+16,3.998444492376287e+17
40.03903428423004,3786395890512793.5,4.2910948379432275e+17,1817981386786227.0,3237846160974405.0,65321760536883.27,259577213832682.78,1.1023864584079698e+16,4.0891849679759974e+17
40.93981496991464,3786920443801565.5,4.386223526110152e+17,1818233243245693.0,3238294720613875.0,66798965974077.61,265450082907257.84,1.1273296490164978e+16,4.18173358664308e+17
41.85861126931294,3787439073275739.0,4.48324735781393e+17,1818482255472944.0,3238738214632273.0,68305597829124.47,271440064976199.75,1.1527702718295716e+16,4.276126278569109e+17
