t(s),Total solute volume 1,Total retention volume 1,Total 1 volume 1,Total 2 volume 1,Total 3 volume 1,Total 4 volume 1,Total 5 volume 1,Total 6 volume 1
0.1,1388605447609674.5,1.2965503955258198e+16,3123970752525701.5,8452927755122823.0,0.0,0.0,0.0,-0.03849354864423057
0.202,1973741679866139.2,1.8433447714482616e+16,4440369720636811.0,1.2015033500693556e+16,4741597718.776256,34848133461.23935,847265538945.8188,3415958015987.8306
0.30604000000000003,2443558594804146.5,2.282786736540315e+16,5497328176578380.0,1.4875041633892996e+16,11858932395.553612,87360485162.71265,2287572861625.001,9552167848450.762
0.41216080000000005,2847073804406435.0,2.660604890435652e+16,6405125815536420.0,1.7331432043792648e+16,20934473627.872173,154358920119.75494,4203497850593.392,18038449376673.492
0.5204040160000001,3207525030383383.0,2.998472749383415e+16,7216041301021174.0,1.95256690053947e+16,31763511670.63239,234321675996.96268,6537435179012.209,28688636668212.938
0.6308120963200001,3537645318272795.5,3.3082663495822532e+16,7958720525364285.0,2.1535266116564564e+16,44233395759.908,326413051689.6685,9257758934169.664,41403130239271.02
0.7434283382464002,3845150758037754.5,3.597183083420402e+16,8650522579006458.0,2.3407195430804804e+16,58278812946.935875,430148772340.8038,12345895327217.66,56127743442491.77
0.8582969050113283,4135091436038521.5,3.869934478050927e+16,9302808768763918.0,2.5172199457235276e+16,73862249980.6861,545250644408.49255,15790791512619.152,72835214064545.48
0.9754628431115548,4410971771995215.0,4.129791090736867e+16,9923463074032066.0,2.6851611375029876e+16,90964197146.06218,671573829985.8464,19586185453439.074,91515962830941.61
1.094972099973786,4675335757129348.0,4.379128290138053e+16,1.0518208773540316e+16,2.8460917724298748e+16,109577686365.10745,809066341113.3309,23729100505820.02,112172901878800.69
1.2168715419732616,4930096870124838.0,4.619733898336436e+16,1.1091350666152436e+16,3.0011766789226796e+16,129704995104.5543,957744611654.7809,28218944222901.05,134818264030635.86
1.3412089728127268,5176736002991697.0,4.85299273573663e+16,1.1646220349827684e+16,3.151317347952564e+16,151355535723.0564,1117677861564.0762,33056935094746.387,159471556529245.16
1.4680331522689813,5416426404285806.0,5.080003104918149e+16,1.218545730955651e+16,3.297227992541248e+16,174544441316.2934,1288977624036.164,38245720853997.4,186158167007369.12
1.597393815314361,5650115935649127.0,5.301653469976413e+16,1.2711193971953116e+16,3.4394856215516564e+16,199291584285.4313,1471790478899.3638,43789115064803.36,214908379517290.44
1.729341691620648,5878583160492413.0,5.518674737229122e+16,1.3225181889347786e+16,3.578564183713638e+16,225620876154.4274,1666292869225.8394,49691910101132.39,245756661468120.62
1.863928525453061,6102476743138033.0,5.731676976028038e+16,1.3728880376999892e+16,3.714858551856973e+16,253559757147.29166,1872687323140.975,55959741329334.945,278741133163110.8
2.001207095962122,6322343837822012.0,5.9411758756253624e+16,1.422352038052296e+16,3.848701804706563e+16,283138817893.42725,2091199653857.1042,62598986700149.05,313903165671130.9
2.1412312378813647,6538650999853335.0,6.147612231703971e+16,1.4710151520222614e+16,3.980377956535536e+16,314391515655.2411,2322076859393.0557,69616691497277.59,351287071736050.2
2.284055862638992,6751799887944841.0,6.3513665780443256e+16,1.518967741700597e+16,4.110131515942951e+16,347353959794.5268,2565585534748.943,77020511386140.88,390939865182266.9
2.4297369798917723,6962139256826095.0,6.552770360910814e+16,1.5662882672448314e+16,4.238174786341403e+16,382064749030.06934,2822010667354.4414,84818669056989.69,432911071946336.44
2.578331719489608,7169974255443358.0,6.752114602650966e+16,1.6130453787174154e+16,4.364693526222254e+16,418564848170.1511,3091654724613.4155,93019921159857.53,477252580936921.56
2.7298983538794,7375573733693684.0,6.949656709760656e+16,1.6592995598989608e+16,4.489851397117655e+16,456897495451.9382,3374836967903.427,101633533167098.77,524018526116283.06
2.884496320956988,7579176054023980.0,7.145625888040249e+16,1.7051044357373812e+16,4.613793501400703e+16,497108133988.93134,3671892944930.651,110669260440252.97,573265193478462.2
3.0421862473761276,7780993764569724.0,7.340227497279027e+16,1.750507823674903e+16,4.736649227049392e+16,539244362488.2931,3983174124634.6626,120137334225119.11,625050948265378.2
3.2030299723236504,7981217394265106.0,7.53364658819015e+16,1.7955525874428974e+16,4.858534557911903e+16,583355901585.3136,4309047647612.5786,130048451616450.42,679436178922748.8
3.3670905717701234,8180018562851803.0,7.72605080139493e+16,1.840277336727839e+16,4.979553966917594e+16,629494573002.2913,4649896171397.649,140413768762623.83,736483255136162.0
3.5344323832055258,8377552550600122.0,7.91759276341174e+16,1.884717005287482e+16,5.099801980388814e+16,677714289372.08,5006117794611.902,151244896748169.44,796256497922144.8
3.7051210308696363,8573960437759981.0,8.108412082174896e+16,1.928903332268141e+16,5.219364480426634e+16,728071053038.7328,5378126047506.646,162553899716320.9,858822160224417.1
3.879223451487029,8769370898255397.0,8.298637020840502e+16,1.972865265736326e+16,5.338319796817901e+16,780622962504.2671,5766349939043.401,174353294887016.62,924248416818821.4
4.0568079205167695,8963901713210911.0,8.488385910999493e+16,2.016629303180302e+16,5.456739628390698e+16,835430225462.8423,6171234052682.249,186656054196536.97,992605362599236.4
4.237944078927105,9157661055694254.0,8.677768353181653e+16,2.060219780541646e+16,5.5746898250980984e+16,892555177573.7113,6593238684598.921,199475607339189.72,1063965018523507.2
4.422702960505647,9350748587286090.0,8.866886242495134e+16,2.103659118913075e+16,5.6922310555520824e+16,952062306287.9142,7032840019262.141,212825846033420.9,1138401344654719.8
4.61115701971576,9543256398836230.0,9.055834649556078e+16,2.1469680361825744e+16,5.809419379706381e+16,1014018279172.221,7490530338253.728,226721129367464.47,1215990259850149.8
4.803380160110075,9735269821388176.0,9.24470258092017e+16,2.190165729468961e+16,5.926306742504554e+16,1078491976275.768,7966818258967.968,241176290105413.97,1296809667737685.0
4.9994477633122765,9926868128282696.0,9.433573638594043e+16,2.2332700330757444e+16,6.042941401283564e+16,1145554526166.1323,8462229000428.027,256206641855035.78,1380939488683103.8
5.199436718578522,1.0118125145545354e+16,9.62252659456441e+16,2.2762975558114548e+16,6.159368297345477e+16,1215279345327.1262,8977304673941.96,271827987015001.7,1468461697495186.8
5.403425452950093,1.0309109784572178e+16,9.811635893399966e+16,2.319263800829123e+16,6.275629380228285e+16,1287742180663.6582,9512604596713.383,288056625432413.8,1559460366643643.0
5.611493962009095,1.0499886508663232e+16,1.0000972093684059e+17,2.3621832705834636e+16,6.391763891706861e+16,1363021154902.3933,10068705626842.516,304909363712249.0,1654021714780095.5
5.823723841249277,1.0690515742978124e+16,1.0190602257191402e+17,2.405069559059483e+16,6.507808615352124e+16,1441196814712.5889,10646202518417.346,322403525129202.3,1752234160357350.8
6.040198318074262,1.0881054235891712e+16,1.038059029323347e+17,2.4479354330675068e+16,6.623798096505219e+16,1522352181401.1091,11245708295613.172,340556960099786.44,1854188380138883.2
6.261002284435747,1.1071555378433486e+16,1.0570997264387666e+17,2.4907929041082044e+16,6.739764836735222e+16,1606572804060.2622,11867854644901.828,359388057178777.3,1959977372381158.2
6.486222330124463,1.1262069487436554e+16,1.0761881658836774e+17,2.5336532920732576e+16,6.85573946620519e+16,1693946815067.9626,12513292324625.45,378915754549431.4,2069696524457541.8
6.715946776726952,1.145264405715491e+16,1.0953299633734794e+17,2.576527281852289e+16,6.9717508968433336e+16,1784564987857.333,13182691591320.588,399159551981554.0,2183443684676049.5
6.950265712261491,1.1643323983391568e+16,1.1145305233344896e+17,2.619424973755461e+16,7.087826458780255e+16,1878520796887.9937,13876742642290.018,420139523235608.94,2301319238025413.0
7.18927102650672,1.1834151763587506e+16,1.1337950585140688e+17,2.662355928527972e+16,7.203992022152457e+16,1975910479764.2815,14596156074016.354,441876328894748.7,2423426185566522.5
7.433056447036854,1.2025167675827306e+16,1.1531286076599154e+17,2.7053292076213284e+16,7.320272106071277e+16,2076833101456.9973,15341663356095.168,464391229610013.56,2549870227170567.5
7.681717575977592,1.2216409939303682e+16,1.1725360515027104e+17,2.7483534092934556e+16,7.436689976305226e+16,2181390620595.168,16114017320438.99,487706099747033.4,2680759847292498.5
7.935351927497144,1.240791485843659e+16,1.1920221272437795e+17,2.7914367010314652e+16,7.55326773301183e+16,2289687957802.9897,16913992665568.03,511843441425438.1,2816206403459636.5
8.194058966047088,1.2599716952548324e+16,1.2115914417220608e+17,2.8345868487249852e+16,7.670026389676923e+16,2401833066064.8813,17742386475860.613,536826398944840.8,2956324217151816.5
8.45794014536803,1.2791849072747848e+16,1.2312484834114642e+17,2.8778112429618816e+16,7.78698594426758e+16,2517937003108.306,18600018755686.74,562678773593735.25,3101230666751396.5
8.72709894827539,1.2984342507465078e+16,1.2509976333800042e+17,2.9211169227705388e+16,7.904165443475566e+16,2638114005800.0674,19487732978393.254,589425038839934.9,3251046282250078.5
9.0016409272409,1.3177227077894248e+16,1.270843175325307e+17,2.9645105970919864e+16,8.021583040818234e+16,2762481566557.147,20406396650148.1,617090355903271.1,3405894841414280.0
9.281673745785717,1.3370531224449294e+16,1.2907893047867267e+17,3.0079986642299544e+16,8.139256049267787e+16,2891160511777.6567,21356901888685.867,645700589713138.9,3565903467132231.0
9.567307220701432,1.356428208519906e+16,1.3108401376219826e+17,3.051587229496611e+16,8.257200988998512e+16,3024275082301.6577,22340166017027.223,675282325255159.9,3731202725693364.0
9.85865336511546,1.3758505567132894e+16,1.33099971782564e+17,3.09528212124536e+16,8.3754336307693e+16,3161953015914.982,23357132172269.387,705862884312634.0,3901926725783632.5
10.155826432417769,1.3953226411005242e+16,1.351272024757611e+17,3.1390889054590692e+16,8.49396903539763e+16,3304325631912.013,24408769929567.71,737470342609656.5,4078213218017685.0
10.458942961066125,1.4148468250418378e+16,1.371660979841908e+17,3.1830128990420416e+16,8.612821589725898e+16,3451527917735.906,25496075941444.977,770133547363675.1,4260203694870156.5
10.768121820287448,1.4344253665724316e+16,1.3921704527890698e+17,3.227059181946461e+16,8.73200503943404e+16,3603698617716.433,26620074592579.13,803882135255978.4,4448043490911304.0
11.083484256693197,1.4540604233258194e+16,1.4128042673896494e+17,3.2712326082485384e+16,8.851532519010166e+16,3760980323927.161,27781818670230.97,838746550828994.6,4641881883296549.0
11.405153941827061,1.4737540570354734e+16,1.4335662069209802e+17,3.3155378162759516e+16,8.971416579154158e+16,3923519569184.6035,28982390050480.258,874758065319506.5,4841872192502988.0
11.733257020663602,1.4935082376546498e+16,1.4544600192048698e+17,3.359979237876341e+16,9.091669211856984e+16,4091466922212.588,30222900400442.88,911948795936874.2,5048171883347659.0
12.067922161076874,1.513324847129549e+16,1.4754894213498838e+17,3.4045611069058396e+16,9.212301873369696e+16,4264977084995.331,31504491896644.47,950351725595141.4,5260942666360900.0
12.409280604298411,1.5332056828568636e+16,1.4966581042083923e+17,3.449287467007635e+16,9.333325505251206e+16,4444208992342.775,32828337959724.402,990000723107578.8,5480350599622516.0
12.75746621638438,1.5531524608531854e+16,1.517969736575417e+17,3.494162178742232e+16,9.45475055366193e+16,4629325913691.294,34195644005643.203,1030930563851732.9,5706566191197495.0
13.112615540712067,1.5731668186605274e+16,1.5394279691537168e+17,3.5391889261240784e+16,9.576586987051035e+16,4820495557162.735,35607648213562.22,1073176950912532.1,5939764502331952.0
13.474867851526309,1.5932503180095112e+16,1.5610364383069677e+17,3.584371222613026e+16,9.698844312368758e+16,5017890175903.761,37065622310560.66,1116776536710378.8,6180125251587035.0
13.844365208556836,1.6134044472593936e+16,1.582798769620996e+17,3.629712416603662e+16,9.821531589919792e+16,5221686676727.205,38570872373349.38,1161766945120608.8,6427832920100476.0
14.221252512727972,1.633630623631946e+16,1.6047185812909094e+17,3.6752156964509976e+16,9.94465744696222e+16,5432066731076.135,40124739647135.63,1208186794090096.5,6683076858170978.0
14.605677562982532,1.6539301952545452e+16,1.626799487350475e+17,3.720884095066786e+16,1.0068230090144693e+17,5649216888330.661,41728601381787.23,1256075718756286.0,6946051393361116.0
14.997791114242183,1.6743044430261444e+16,1.6490451007585277e+17,3.76672049411748e+16,1.01922573168656e+17,5873328691476.657,43383871685438.695,1305474395073420.8,7216955940310212.0
15.397746936527026,1.694754582318593e+16,1.6714590363558397e+17,3.812727627851749e+16,1.031674652562986e+17,6104598795155.013,45092002395676.75,1356424563950453.5,7495995112440536.0
15.805701875257567,1.715281764524527e+16,1.6940449137047862e+17,3.8589080865827496e+16,1.0441704725471739e+17,6343229086108.977,46854483968435.66,1408969055904715.0,7783378835729146.0
16.221815912762718,1.7358870784621384e+16,1.7168063598230157e+17,3.905264319848535e+16,1.0567138544506416e+17,6589426806046.613,48672846384729.48,1463151816235261.0,8079322464704385.0
16.64625223101797,1.7565715516462232e+16,1.7397470118213664e+17,3.951798639271535e+16,1.0693054237667538e+17,6843404676934.688,50548660075340.68,1519017930719659.8,8384046900811784.0
17.079177275638333,1.777336151434198e+16,1.7628705194555517e+17,3.9985132211367704e+16,1.0819457693683621e+17,7105381028739.273,52483536863580.88,1576613651837893.5,8697778713279090.0
17.5207608211511,1.79818178605508e+16,1.7861805476001747e+17,4.045410108706793e+16,1.0946354441342046e+17,7375579929627.959,54479130926232.29,1635986425527014.0,9020750262595306.0
17.97117603757412,1.8191093055288796e+16,1.809680778653152e+17,4.092491214290055e+16,1.1073749655085907e+17,7654231318647.431,56537139772774.484,1697184918470199.2,9353199826704986.0
18.430599558325603,1.840119502483303e+16,1.8333749148778787e+17,4.139758321078303e+16,1.1201648159985842e+17,7941571140889.518,58659305242992.74,1760259045923918.5,9695371730005524.0
18.899211549492115,1.8612131128742584e+16,1.8572666806899606e+17,4.187213084767447e+16,1.1330054436125944e+17,8237841485157.776,60847414523058.58,1825260000086902.2,1.0047516475224524e+16
19.37719578048196,1.8823908166160716e+16,1.8813598248948384e+17,4.234857034975467e+16,1.1458972622440611e+17,8543290724145.713,63103301180166.41,1892240279014690.5,1.0409890878243236e+16
19.864739696091597,1.9036532381271836e+16,1.9056581228821603e+17,4.282691576470011e+16,1.1588406520036258e+17,8858173657136.611,65428846215800.07,1961253716083576.8,1.0782758205925024e+16
20.36203449001343,1.9250009467964636e+16,1.930165378782422e+17,4.3307179902175144e+16,1.171835959503026e+17,9182751655233.775,67825979137697.44,2032355510007732.0,1.1166388316999334e+16
20.869275179813698,1.9464344573751412e+16,1.954885427590904e+17,4.3789374342649464e+16,1.1848834980936891e+17,9517292809128.574,70296679050567.49,2105602255413316.5,1.1561057806047604e+16
21.38666068340997,1.9679542302989852e+16,1.9798221372637146e+17,4.427350944464553e+16,1.1979835480628531e+17,9862072079412.555,72842975765609.27,2181051973973354.5,1.1967050150632304e+16
21.91439389707817,1.9895606719449732e+16,2.0049794107904275e+17,4.475959435051448e+16,1.2111363567898555e+17,10217371449437.76,75466950928865.28,2258764146107031.0,1.238465586160755e+16
22.452681775019734,2.0112541348266908e+16,2.0303611882474586e+17,4.524763699083042e+16,1.224342138865051e+17,10583480080728.71,78170739168434.77,2338799743247045.5,1.2814172636647328e+16
23.00173541052013,2.0330349177320896e+16,2.055971448836195e+17,4.573764408749087e+16,1.237601076173718e+17,10960694470946.592,80956529260556.3,2421221260678482.5,1.3255905517025936e+16
23.561770118730532,2.0549032658074024e+16,2.0818142129095574e+17,4.622962115560377e+16,1.2509133179471242e+17,11349318614405.285,83826565314556.66,2506092750952513.0,1.3710167047684116e+16
24.133005521105144,2.0768593705904264e+16,2.1078935439905725e+17,4.672357250423728e+16,1.2642789807828198e+17,11749664165136.477,86783147976649.9,2593479857878058.5,1.4177277440613894e+16
24.715665631527248,2.0989033699965476e+16,2.1342135507862698e+17,4.721950123610459e+16,1.2776981486361267e+17,12162050602498.967,89828635652551.52,2683449851094411.5,1.4657564741594948e+16
25.309978944157795,2.1210353482604224e+16,2.1607783892001184e+17,4.771740924625214e+16,1.2911708727846483e+17,12586805399325.37,92965445748861.47,2776071661227440.5,1.5151365000315178e+16
25.91617852304095,2.1432553358362384e+16,2.187592264346016e+17,4.8217297219816024e+16,1.3046971717675698e+17,13024264192596.82,96196055933148.95,2871415915631929.5,1.5659022443908494e+16
26.53450209350177,2.165563309259284e+16,2.2146594325667466e+17,4.871916462890779e+16,1.3182770313013978e+17,13474770956634.195,99523005412657.25,2969554974722207.0,1.6180889653942764e+16
27.165192135371807,2.1879591909714324e+16,2.241984203459701e+17,4.922300972868794e+16,1.3319104041737333e+17,13938678178791.615,102948896231527.06,3070562968892951.5,1.6717327746891336e+16
27.808495978079243,2.2104428491130132e+16,2.2695709419125024e+17,4.9728829552684e+16,1.3455972101165845e+17,14416347037635.607,106476394586417.75,3174515836031863.0,1.7268706558121828e+16
28.464665897640828,2.2330140972834676e+16,2.2974240701511386e+17,5.023661990740588e+16,1.3593373356606832e+17,14908147583590.564,110108232160388.7,3281491359625402.5,1.7835404829435712e+16
29.133959215593645,2.2556726942730796e+16,2.325548069803074e+17,5.074637536631082e+16,1.3731306339721744e+17,15414458922028.26,113847207474878.92,3391569207458597.0,1.8417810400192988e+16
29.816638399905518,2.278418343767962e+16,2.3539474839777494e+17,5.125808926316585e+16,1.3869769246730563e+17,15935669398776.68,117696187259605.14,3504830970909477.5,1.901632040205594e+16
30.51297116790363,2.301250694030481e+16,2.3826269193668022e+17,5.177175368485895e+16,1.4008759936466349e+17,16472176788019.799,121658107840175.94,3621360204838384.0,1.963134145738622e+16
31.223230591261704,2.3241693375571344e+16,2.411591048366287e+17,5.228735946370199e+16,1.4148275928292814e+17,17024388482557.775,125735976543196.36,3741242468071976.5,2.0263289881329548e+16
31.947695203086937,2.3471738107159492e+16,2.4408446112231082e+17,5.280489616927307e+16,1.4288314399896976e+17,17592721686393.062,129932873118616.81,3864565364481363.0,2.0912591887622104e+16
32.686649107148675,2.370263593365306e+16,2.470392418207799e+17,5.332435209984153e+16,1.4428872184968986e+17,18177603609605.652,134251951179053.56,3991418584653393.5,2.1579683798153188e+16
33.44038208929165,2.3934381084561836e+16,2.500239351815823e+17,5.384571427341944e+16,1.4569945770780902e+17,18779471665476.062,138696439655786.67,4121893948153661.0,2.226501225631731e+16
34.20918973107749,2.416696721619653e+16,2.5303903689994374e+17,5.436896841848123e+16,1.4711531295675533e+17,19398773669813.26,143269644271117.5,4256085446379413.0,2.296903444419025e+16
34.993373525699035,2.4400387407415268e+16,2.560850503432163e+17,5.489409896439481e+16,1.4853624546477498e+17,20035968042439.21,147974949026736.03,4394089285999971.5,2.369221830356207e+16
35.793240996213015,2.463463415525972e+16,2.5916248678079046e+17,5.542108903160387e+16,1.499622095583661e+17,20691524010779.92,152815817707736.62,4536003932981952.0,2.4435042760860412e+16
36.60910581613728,2.486969937049937e+16,2.6227186561767e+17,5.594992042160401e+16,1.513931559951565e+17,21365921815508.176,157795795401874.88,4681930157195948.0,2.5197997955996668e+16
37.44128793246003,2.5105574373101824e+16,2.6541371463190506e+17,5.6480573606752e+16,1.528290319363311e+17,22059652918180.92,162918510033657.06,4831971077600922.0,2.598158547516722e+16
38.29011369110923,2.5342249887647304e+16,2.6858857021608246e+17,5.701302771994994e+16,1.5426978091871795e+17,22773220210808.824,168187673912801.34,4986232208002032.0,2.67863185876417e+16
