t(s),Total solute volume 1,Total retention volume 1,Total 1 volume 1,Total 2 volume 1,Total 3 volume 1,Total 4 volume 1,Total 5 volume 1,Total 6 volume 1
0.1,1063829490026819.8,1368988609462191.8,135960145783138.03,169198973652234.8,0.0,0.0,0.0,0.0
0.202,1530501707277509.5,2130817316302199.8,195602056832253.0,243421832291592.94,139548411558.24857,319412796351.333,6022662321974.416,154810096370960.53
0.30604000000000003,1841341116107467.5,2761552508225180.0,235328133411443.84,292859934632619.56,339123029027.7533,776235628606.4276,14636519686627.96,376271445729388.56
0.41216080000000005,2072934562806636.5,3336210756590867.0,264926372038234.1,329694197553832.5,578383138160.3297,1323917160234.276,24963703407836.227,641789620485930.2
0.5204040160000001,2255282009579511.0,3881940022293071.0,288230845124890.9,358696027737993.2,847420857487.9138,1939783951225.7478,36576673083196.32,940367261958762.8
0.6308120963200001,2403811240796314.5,4411829453344223.5,307213263224305.5,382319169328955.25,1140386256871.4065,2610449937918.309,49223018979618.67,1265511924820235.2
0.7434283382464002,2527672766440094.0,4933268192208360.0,323043085062838.6,402018984260451.06,1453485776413.17,3327235426027.3545,62739076610041.15,1613013558632491.5
0.8582969050113283,2632792100802861.5,5450876411987498.0,336477606616850.8,418737908301457.1,1784120283992.9902,4084194399863.9385,77012728555752.36,1979987753026717.8
0.9754628431115548,2723242032018047.0,5967762433782265.0,348037340691392.8,433123706527655.44,2130445063701.7363,4877107500327.892,91964415758351.78,2364387386222791.5
1.094972099973786,2801945600623232.0,6486138468156185.0,358095859389857.56,445641280012697.1,2491119967284.4033,5702910222026.232,107536355500286.14,2764725342440804.0
1.2168715419732616,2871070895011883.0,7007652216437954.0,366930249988763.25,456635456893607.4,2865156812795.501,6559343674498.843,123685956111960.11,3179905157944455.0
1.3412089728127268,2932268424965203.0,7533578681719674.0,374751451886009.9,466368745938733.25,3251821087306.7183,7444729625116.876,140381575154070.84,3609111933063232.5
1.4680331522689813,2986821553785811.0,8064937505448695.0,381723482214688.9,475045262339828.2,3650566002021.1953,8357819584147.415,157599673747484.66,4051739147774714.0
1.597393815314361,3035745901789768.0,8602568058159191.0,387976139865170.7,482826537547500.8,4060986803670.708,9297690248462.219,175322845046320.75,4507337956858298.0
1.729341691620648,3079857303809192.5,9147179317187032.0,393613690628824.7,489842327713780.4,4482788278425.017,10263669137651.814,193538412022238.62,4975581125596915.0
1.863928525453061,3119819599706535.5,9699384050824124.0,398720974948724.3,496198214634006.7,4915761128122.345,11255280535354.611,212237408126462.34,5456236811744926.0
2.001207095962122,3156179054051399.0,1.0259722882257688e+16,403367806842923.4,501981080096027.8,5359764475056.781,12272205456453.297,231413822425840.6,5949149148909988.0
2.1412312378813647,3189389657747688.5,1.0828681627014294e+16,407612207517519.75,507263130030206.06,5814712697181.036,13314251524949.732,251064031616687.5,6454223635880081.0
2.284055862638992,3219832059748372.5,1.1406704041160484e+16,411502824888516.56,512104905543430.25,6280565383551.863,14381329992957.64,271186366693393.97,6971415988910255.0
2.4297369798917723,3247827954469520.0,1.1994201366103896e+16,415080772330370.44,516557571195360.6,6757319576735.289,15473437993796.121,291780778312902.1,7500723532225202.0
2.578331719489608,3273651167179569.0,1.2591559591891332e+16,418381045417261.25,520664678097257.6,7245003716876.598,16590644689709.705,312848575597782.1,8042178477192869.0
2.7298983538794,3297536300723498.0,1.3199145066290614e+16,421433626996697.7,524463539148254.56,7743672869069.767,17733080356772.004,334392220324215.94,8595842625872092.0
2.884496320956988,3319685554914914.5,1.3817308885163382e+16,424264358725381.0,527986313639788.25,8253404930296.446,18900927711881.92,356415163388133.56,9161803161852974.0
3.0421862473761276,3340274158744380.5,1.4446390371996308e+16,426895635319401.44,531260871232481.3,8774297592337.444,20094414970149.59,378921713900760.94,9740169280236806.0
3.2030299723236504,3359454737078400.5,1.5086719867801728e+16,429346962629613.5,534311486466898.4,9306465893970.25,21313810251216.17,401916933720710.7,1.0331069471760894e+16
3.3670905717701234,3377360850137935.5,1.5738620992697892e+16,431635409996096.1,537159401707275.9,9850040236766.018,22559417046878.973,425406551999077.6,1.0934649321573878e+16
3.5344323832055258,3394109884454928.0,1.640241249839649e+16,433775979719840.7,539823286939737.75,10405164768722.896,23831570530878.2,449396895605252.44,1.1551069716377114e+16
3.7051210308696363,3409805430827897.0,1.7078409800810248e+16,435781910971596.2,542319617979197.25,10971996062069.975,25130634542271.38,473894832254839.75,1.2180505378172358e+16
3.879223451487029,3424539253113987.5,1.776692626030041e+16,437664931408556.44,544662989599993.7,11550702028074.627,26456999111581.383,498907723872950.8,1.2823143661165242e+16
4.0568079205167695,3438392928175465.5,1.84682742612003e+16,439435466763746.9,546866376364605.06,12141461024125.273,27811078427370.316,524443388263010.3,1.3479183562181996e+16
4.237944078927105,3451439219652259.5,1.9182766130490624e+16,441102816417692.56,548941351118167.0,12744461117828.244,29193309162559.098,550510067559757.44,1.414883490546235e+16
4.422702960505647,3463743234861120.5,1.9910714926698044e+16,442675301253104.94,550898268989913.5,13359899480125.244,30604149096444.387,577116402258697.1,1.4832317670758654e+16
4.61115701971576,3475363403897831.0,2.0652435123434716e+16,444160388786665.44,552746423116525.06,13987981885058.947,32044075981229.414,604271409856924.2,1.5529861439910502e+16
4.803380160110075,3486352312133826.0,2.140824320691535e+16,445564799564239.9,554494177048299.44,14628922298198.129,33513586611920.113,631984467329381.2,1.6241704941929488e+16
4.9994477633122765,3496757411169830.0,2.2178458202882892e+16,446894598022578.3,556149077824247.8,15282942539173.377,35013196066307.742,660265296813064.6,1.696809568044768e+16
5.199436718578522,3506621628509005.5,2.2963402145338492e+16,448155270407116.9,557717952938841.1,15950272006493.219,36543437087984.47,689123953989076.1,1.7709289630399974e+16
5.403425452950093,3515983892427456.0,2.376340049710215e+16,449351791851777.75,559206993821128.06,16631147454971.73,38104859590283.81,718570818745630.8,1.8465550993210964e+16
5.611493962009095,3524879585515562.0,2.457878253036205e+16,450488684342717.7,560621827969164.9,17325812817826.809,39698030262993.9,748616587779780.2,1.9237152001674036e+16
5.823723841249277,3533340937964295.5,2.5409881673891356e+16,451570066981333.7,561967581501061.0,18034519066898.402,41323532266874.445,779272268855613.6,2.0024372767255324e+16
6.040198318074262,3541397369743278.0,2.6257035832430316e+16,452599699715500.3,563248933577396.9,18757524105559.406,42981965003577.46,810549176485124.1,2.082750116379985e+16
6.261002284435747,3549075789260770.5,2.7120587682783084e+16,453581021509079.6,564470163902234.1,19495092689804.207,44673943950665.64,842458928837438.8,2.1646832742633104e+16
6.486222330124463,3556400854831481.5,2.8000884950415484e+16,454517183758190.3,565635194308802.6,20247496373745.77,46400100553121.99,875013445714181.6,2.2482670674875904e+16
6.715946776726952,3563395204247059.5,2.8898280669716876e+16,455411079630898.0,566747625272015.0,21015013476361.184,48161082164151.21,908224947455171.2,2.3335325717471256e+16
6.950265712261491,3570079656898391.5,2.9813133430586212e+16,456265369898969.4,567810768055444.0,21797929066830.613,49957552029214.79,942105954660352.8,2.4205116199977004e+16
7.18927102650672,3576473392202740.5,3.074580761358401e+16,457082505741322.9,568827673089621.4,22596534966228.508,51790189308205.0,976669288631835.8,2.5092368029644076e+16
7.433056447036854,3582594107512941.5,3.1696673615553828e+16,457864748925220.56,569801155087052.2,23411129763672.37,53659689131446.84,1011928072454832.2,2.5997414712678684e+16
7.681717575977592,3588458158207787.5,3.2666108067331744e+16,458614189710191.7,570733815323167.8,24242018845321.027,55566762685878.08,1047895732648705.8,2.6920597389910684e+16
7.935351927497144,3594080682264238.5,3.3654494044929464e+16,459332762768674.9,571628061449185.2,25089514434855.785,57512137328310.414,1084586001329750.0,2.7862264885354456e+16
8.194058966047088,3599475711278662.0,3.4662221275381016e+16,460022261374821.06,572486125149706.1,25953935644278.13,59496556723134.86,1122012918836064.2,2.8822773766374372e+16
8.45794014536803,3604656269624330.0,3.5689686338277844e+16,460684350077077.4,573310077913428.2,26835608534029.176,61520781002228.516,1160190836772202.2,2.980248841435457e+16
8.72709894827539,3609634463196570.5,3.673729286388277e+16,461320576040037.6,574101845147805.0,27734866181578.277,63585586945145.34,1199134421437543.5,3.0801781104934084e+16
9.0016409272409,3614421558997448.0,3.780545172859435e+16,461932379215587.1,574863218836758.4,28652048757750.355,65691768177954.25,1238858657607572.2,3.182103209700127e+16
9.281673745785717,3619028056643065.0,3.889458124843742e+16,462521101481701.44,575595868913702.9,29587503610164.02,67840135389327.96,1279378852641738.5,3.2860629729757724e+16
9.567307220701432,3623463752732410.5,4.000510737117184e+16,463087994868960.4,576301353499229.1,30541585353242.07,70031516562685.73,1320710640895408.0,3.3920970527259956e+16
9.85865336511546,3627737798894381.5,4.113746386754112e+16,463634228979107.56,576981128133303.4,31514655964328.95,72266757223367.2,1362869988416691.2,3.5002459309929996e+16
10.155826432417769,3631858754224395.5,4.229209252212183e+16,464160897686579.8,577636554115179.1,32507084885516.29,74546720699967.64,1405873197911733.8,3.610550931259848e+16
10.458942961066125,3635834632732314.5,4.3469443324184264e+16,464669025202475.06,578268906049823.0,33519249130831.42,76872288399082.44,1449736913964473.0,3.723054230870517e+16
10.768121820287448,3639672946345674.5,4.466997465893002e+16,465159571570482.8,578879378687478.1,34551533398492.28,79244360092837.8,1494478128499000.0,3.837798874033598e+16
11.083484256693197,3643380743945923.0,4.589415349943391e+16,465633437655802.4,579469093132246.0,35604330187972.75,81663854218657.9,1540114186474389.5,3.954828785381888e+16
11.405153941827061,3646964646857214.0,4.7142455599585496e+16,466091469680714.5,580039102486491.5,36678039921658.42,84131708190820.84,1586662791803525.0,4.07418878406451e+16
11.733257020663602,3650430881157946.5,4.8415365688297624e+16,466534463354077.25,580590396989890.6,37773071070903.24,86648878723419.33,1634142013488743.5,4.195924598351264e+16
12.067922161076874,3653785307141356.0,4.9713377665223464e+16,466963167636455.44,581123908705044.1,38889840286324.53,89216342164404.48,1682570291968410.8,4.320082880732135e+16
12.409280604298411,3657033446214026.5,5.103699479820442e+16,467378288177831.6,581640515795624.9,40028772532197.11,91835094840452.36,1731966445669405.8,4.4467112234974856e+16
12.75746621638438,3660180505488277.5,5.2386729922651864e+16,467780490460573.06,582141046437716.5,41190301224827.57,94506153412435.48,1782349677761693.0,4.575858174786627e+16
13.112615540712067,3663231400295617.0,5.376310564304822e+16,468170402676706.94,582626282400511.9,42374868374808.38,97230555241328.9,1833739583111696.0,4.707573255094747e+16
13.474867851526309,3666190774823172.5,5.516665453674269e+16,468548618365305.94,583096962328470.0,43582924733063.64,100009358764414.89,1886156155432054.2,4.841906974229617e+16
13.844365208556836,3669063021053114.0,5.659791936020049e+16,468915698833006.25,583553784753601.5,44814929940619.12,102843643881688.06,1939619794626021.0,4.978910848711257e+16
14.221252512727972,3671852296165653.5,5.805745325785734e+16,469272175378145.94,583997410863334.0,46071352682031.44,105734512352387.64,1994151314325124.0,5.118637419609082e+16
14.605677562982532,3674562538548997.5,5.954581997372009e+16,469618551336881.0,584428467046866.9,47352670842431.38,108683088201614.02,2049771949619510.2,5.261140270812383e+16
14.997791114242183,3677197482544713.5,6.106359406584393e+16,469955303967682.2,584847547240377.8,48659371668137.64,111690518137010.53,2106503364980549.5,5.406474047730544e+16
15.397746936527026,3679760672043574.0,6.2611361123817224e+16,470282886188919.4,585255215089397.6,49991951930812.67,114757971975509.75,2164367662375949.5,5.554694476421307e+16
15.805701875257567,3682255473035283.0,6.418971798936706e+16,470601728182743.25,585652005944803.0,51350918095132.18,117886643080165.0,2223387389577744.8,5.705858383145112e+16
16.221815912762718,3684685085204771.5,6.5799272980204024e+16,470912238877133.2,586038428707193.5,52736786489952.33,121077748807109.12,2283585548664145.0,5.860023714345371e+16
16.64625223101797,3687052552658922.0,6.7440646117214296e+16,471214807316786.4,586414967532916.2,54150083482960.84,124332530962689.06,2344985604716257.5,6.017249557054367e+16
17.079177275638333,3689360773858863.0,6.9114469355101656e+16,471509803932502.1,586782083413797.8,55591345658804.99,127652256270847.6,2407611494711084.0,6.177596159725579e+16
17.5207608211511,3691612510825972.5,7.082138681658424e+16,471797581717727.4,587140215641312.4,57061120000690.53,131038216850837.64,2471487636612628.5,6.3411249534935016e+16
17.97117603757412,3693810397683086.5,7.256205503024e+16,472078477320144.0,587489783165042.4,58559964075455.586,134491730705354.77,2536638938662837.0,6.507898573862816e+16
18.430599558325603,3695956948586436.0,7.433714317209942e+16,472352812055393.6,587831185854232.9,60088446222119.79,138014142219202.31,2603090808874528.5,6.677980882828749e+16
18.899211549492115,3698054565098771.0,7.614733331107318e+16,472620892849383.7,588164805670461.5,61647145743916.71,141606822668600.53,2670869164728777.5,6.851436991431323e+16
19.37719578048196,3700105543049489.0,7.799332065830923e+16,472883013115022.7,588491007758727.0,63236653103819.13,145271170741263.94,2740000443079043.0,7.028333282746205e+16
19.864739696091597,3702112078923058.0,7.987581382056525e+16,473139453568683.7,588810141463497.9,64857570123567.71,149008613067388.97,2810511610264984.0,7.20873743531541e+16
20.36203449001343,3704076275813692.0,8.179553505767888e+16,473390482991225.0,589122541275801.9,66510510186216.25,152820604761683.84,2882430172438560.5,7.392718447021158e+16
20.869275179813698,3706000148980515.5,8.375322054422933e+16,473636358937951.3,589428527716746.2,68196098442208.99,156708629976603.94,2955784186105715.5,7.580346659406944e+16
21.38666068340997,3707885631034537.5,8.574962063546139e+16,473877328401531.3,589728408162499.6,69914972019006.805,160674202466944.62,3030602268886513.5,7.77169378244903e+16
21.91439389707817,3709734576786055.0,8.778550013756394e+16,474113628431494.9,590022477615251.8,71667780234278.58,164718866165960.7,3106913610497387.5,7.966832919783344e+16
22.452681775019734,3711548767778457.5,8.986163858237718e+16,474345486713677.56,590311019424298.0,73455184812676.73,168844195773183.44,3184747983958564.5,8.165838594391642e+16
23.00173541052013,3713329916532264.0,9.197883050661003e+16,474573122112612.1,590594305961058.4,75277860106215.8,173051797354117.6,3264135757030621.0,8.3687867747513e+16
23.561770118730532,3715079670521338.5,9.413788573564474e+16,474796745179704.0,590872599251459.6,77136493318275.25,177343308952009.4,3345107903883635.5,8.575754901453819e+16
24.133005521105144,3716799615901074.0,9.633962967200907e+16,475016558629693.7,591146151568912.1,79031784731243.56,181720401211863.44,3427696017002862.5,8.78682191429632e+16
24.715665631527248,3718491281006877.5,9.858490358858981e+16,475232757787788.75,591415205990720.9,80964447937827.52,186184778016926.56,3511932319334922.5,9.002068279851474e+16
25.309978944157795,3720156139639904.0,1.0087456492666333e+17,475445531009567.3,591679996920678.0,82935210076043.61,190738177137827.94,3597849676678526.5,9.221576019520086e+16
25.91617852304095,3721795614155220.5,1.0320948759882082e+17,475655060075673.4,591940750580222.8,84944812067913.45,195382370894596.1,3685481610323965.0,9.445428738072315e+16
26.53450209350177,3723411078366766.5,1.0559056229685904e+17,475861520563066.94,592197685470474.2,86994008861885.14,200119166831759.06,3774862309945680.5,9.673711652681936e+16
27.165192135371807,3725003860282088.5,1.0801869680471402e+17,476065082194531.06,592451012807173.2,89083569678993.31,204950408406758.9,3866026646752285.5,9.906511622459226e+16
27.808495978079243,3726575244678822.0,1.104948163165068e+17,476265909167958.94,592700936930467.8,91214278262786.34,209877975691900.1,3959010186898687.5,1.0143917178487603e+17
28.464665897640828,3728126475534026.0,1.1301986375977446e+17,476464160466822.4,592947655691296.6,93386933133029.61,214903786090069.0,4053849205164797.0,1.0386018554369435e+17
29.133959215593645,3729658758316635.5,1.1559480012396115e+17,476659990153154.8,593191360815990.9,95602347843209.86,220029795064457.28,4150580698905725.0,1.063290771728619e+17
29.816638399905518,3731173262152296.0,1.182206047942338e+17,476853547644227.9,593432238250589.9,97861351241851.53,225257996882532.3,4249242402278261.0,1.0884678399578411e+17
30.51297116790363,3732671121869492.5,1.2089827589069765e+17,477044977974042.1,593670468486262.2,100164787737663.72,230590425374507.8,4349872800748556.5,1.11414261308507e+17
31.223230591261704,3734153439934835.5,1.2362883061307714e+17,477234422040670.8,593906226867124.2,102513517568529.77,236029154706561.44,4452511145886277.5,1.1403248270607322e+17
31.947695203086937,3735621288285124.0,1.2641330559093429e+17,477422016840397.8,594139683881603.0,104908417074353.88,241576300169056.94,4557197470450092.0,1.1670244041423366e+17
32.686649107148675,3737075710062904.5,1.2925275723948656e+17,477607895689527.75,594371005438494.4,107350378973776.39,247234018980038.66,4663972603770181.0,1.194251456265719e+17
33.44038208929165,3738517721262113.0,1.3214826212109696e+17,477792188434701.44,594600353128678.1,109840312644761.45,253004511104261.47,4772878187432780.0,1.2220162884708957e+17
34.20918973107749,3739948312289577.5,1.351009173124955e+17,477975021652463.94,594827884473484.6,112379144409076.14,258890020088032.22,4883956691272707.0,1.250329402383102e+17
34.993373525699035,3741368449447980.5,1.3811184077780357e+17,478156518838786.44,595053753160547.0,114967817820653.77,264892833910137.12,4997251429678876.0,1.2792014997494626e+17
35.793240996213015,3742779076345336.0,1.4118217174741608e+17,478336800589201.06,595278109267972.9,117607293957855.86,271015285849142.38,5112806578219267.0,1.3086434860318714e+17
36.60910581613728,3744181115235771.5,1.4431307110281315e+17,478515984770162.56,595501099477607.6,120298551719627.23,277259755367351.1,5230667190590581.0,1.3386664740565218e+17
37.44128793246003,3745575468296044.5,1.475057217673539e+17,478694186682184.9,595722867278036.0,123042588125545.48,283628669011710.8,5350879215898835.0,1.3692817877206136e+17
38.29011369110923,3746963018841870.0,1.507613291031155e+17,478871519215289.75,595943553158060.4,125840418619764.38,290124501331978.0,5473489516276799.0,1.400500965756716e+17
39.15591596493141,3748344632487935.5,1.540811213138371e+17,479048092997265.44,596163294791179.1,128693077378838.73,296749775816415.06,5598545884844666.0,1.4323357655552131e+17
40.03903428423004,3749721158255164.0,1.5746634985402378e+17,479224016535169.5,596382227211699.9,131601617623426.75,303507065845374.2,5726097064019913.0,1.464798167045333e+17
40.93981496991464,3751093429628546.5,1.609182898442618e+17,479399396350533.0,596600482982990.8,134567111933857.81,310398995663028.5,5856192764183049.0,1.4979003766351984e+17
41.85861126931294,3752462265568698.0,1.6443824049280512e+17,479574337108630.1,596818192358352.8,137590652569542.81,317428241367603.0,5988883682705525.0,1.53165483121127e+17
42.7957834946992,3753828471480012.0,1.680275255234807e+17,479748941742217.3,597035483435016.8,140673351792220.84,324597531920418.5,6124221523346509.0,1.566074202197644e+17
43.751699164593184,3755192840138120.5,1.716874936099599e+17,479923311570062.3,597252482301636.2,143816342193007.44,331909650174074.44,6262259016025415.0,1.601171399675575e+17
