t(s),Total solute volume 1,Total retention volume 1,Total 1 volume 1,Total 2 volume 1,Total 3 volume 1,Total 4 volume 1,Total 5 volume 1,Total 6 volume 1
0.1,964857416365797.9,1154672529873703.2,88762465329957.31,101052648177948.16,0.0,0.0,0.0,0.0
0.202,1452830915417715.8,1740097965323627.8,133653793713883.77,152159697649087.06,2014802378.484345,4021210224.467866,61747933363.66102,1385774596974.8704
0.30604000000000003,1823972118487456.5,2186486050609616.2,167797085495940.06,191030520745633.66,5109496991.329591,10197712930.98011,156592332104.19012,3514426338559.5425
0.41216080000000005,2137440405402820.0,2564480970365039.0,196634732973903.38,223861072032934.0,9071347573.460663,18104923891.934505,278013098338.66797,6239570585581.388
0.5204040160000001,2415402203262151.0,2900541351923759.5,222205945987157.75,252972913439448.88,13805323113.308508,27553179453.07967,423097771409.0537,9495832961026.322
0.6308120963200001,2668903665476575.5,3207849286514756.5,245526920088354.66,279522944484060.3,19259926277.093063,38439701943.932816,590268114950.4973,13247788722590.906
0.7434283382464002,2904365143841069.0,3494066585069477.5,267188298254100.8,304183589456500.94,25405209087.253155,50704722658.38957,778606333748.5043,17474837252314.97
0.8582969050113283,3125899101510089.0,3764102169817284.0,287568408269932.9,327385559974532.3,32223735423.444344,64313444544.18307,987578093366.2013,22164984789399.617
0.9754628431115548,3336322825576384.0,4021320801169975.5,306926427652232.44,349423919661582.1,39706124967.58235,79247148684.7001,1216895952281.568,27311779053838.438
1.094972099973786,3537663984104973.5,4268146309948844.5,325448892581269.2,370511032776639.8,47848582977.70817,95498264159.29872,1466443655427.8914,32912609983388.23
1.2168715419732616,3731438216339209.0,4506392725046212.0,343275234929521.8,390805637137873.0,56651413872.181366,113067401422.05875,1736230579296.8337,38967687245010.91
1.3412089728127268,3918812879969058.0,4737459548884006.0,360512846260823.4,410429993905688.56,66118071031.957954,131961455880.64827,2026362610875.5723,45479386610659.305
1.4680331522689813,4100709213425406.0,4962453558977594.0,377246476293789.0,429480587371499.6,76254520667.96317,152192338295.73526,2337022651933.5894,52451812375999.51
1.597393815314361,4277869015746739.0,5182268287079722.0,393544367144323.25,448035108556633.3,87068800300.80968,173776093593.6466,2668457087711.3506,59890493650421.07
1.729341691620648,4450899812735815.0,5397637843307213.0,409462408405286.3,466157185610554.8,98570703439.58292,196732271551.1008,3020966123307.337,67802167457251.14
1.863928525453061,4620306416413820.0,5609174518039541.0,425047040471811.7,483899689134950.0,110771549224.1297,221083467052.94,3394896723993.415,76194620278694.81
2.001207095962122,4786513567368933.0,5817395755057682.0,440337337533734.2,501307103590403.3,123684011103.51859,246854978176.374,3790637364849.763,85076570210477.52
2.1412312378813647,4949882553277715.0,6022743946203524.0,455366536403470.25,518417267808073.2,137321987658.27458,274074548387.47003,4208614072009.4834,94457578106217.48
2.284055862638992,5110723649999857.0,6225601249015271.0,470163181039803.3,535262677985958.1,151700504221.18616,302772170206.84827,4649287407811.312,104347979907409.95
2.4297369798917723,5269305598608985.0,6426300873760079.0,484751994391321.75,551871480249072.5,166835637474.5643,332979934733.0084,5113150160132.45,114758834778355.03
2.578331719489608,5425862936447750.0,6625135814913016.0,499154552819938.94,568268238454664.8,182744457505.96265,364731916010.3831,5600725566789.6045,125701885250354.58
2.7298983538794,5580601746435123.0,6822365699443807.0,513389815010839.0,584474536335815.1,199444983350.56207,398064082315.1258,6112565953283.39,137189526643079.7
2.884496320956988,5733704221696513.0,7018222224997495.0,527474541897558.1,600509455569981.0,216956149109.7775,433014228549.926,6649251694688.771,149234783761100.34
3.0421862473761276,5885332330046893.0,7212913526910899.0,541423633777655.7,616389959572205.2,235297778479.07373,469621925422.92126,7211390435278.975,161851293374957.28
3.2030299723236504,6035630785560271.0,7406627720885793.0,555250403683498.8,632131204717228.2,254490566048.2059,507928482144.00745,7799616515720.322,175053291360885.28
3.3670905717701234,6184729480403283.0,7599535803727868.0,568966801099831.4,647746795033318.0,274556064121.50797,547976920139.03906,8414590569456.139,188855603637718.56
3.5344323832055258,6332745491685730.0,7791794048779314.0,582583596584823.2,663248992386238.4,295516674088.62854,589811955846.8558,9056999258565.17,203273640234030.78
3.7051210308696363,6479784750355779.0,7983545999646809.0,596110535300805.8,678648891268074.9,317395641587.0233,633479991084.8975,9727555125842.906,218323391963634.8
3.879223451487029,6625943438889568.0,8174924141673060.0,609556465595298.9,693956565181786.0,340217054856.669,679029109786.9579,10426996544732.422,234021429297037.78
4.0568079205167695,6771309169504516.0,8366051312713582.0,622929447391255.5,709181190039310.9,364005845808.9928,726509080159.0422,11156087752456.357,250384903100075.44
4.237944078927105,6915961983372587.0,8557041901379988.0,636236844110108.6,724331148812429.0,388787793425.7419,775971361486.4902,11915618954572.89,267431546975378.56
4.422702960505647,7059975202786614.0,8748002870764798.0,649485401067160.0,739414120782894.6,414589529176.4945,827469114971.0626,12706406491417.09,285179680992568.94
4.61115701971576,7203416161714124.0,8939034637902451.0,662681312679194.9,754437158055715.2,441438544200.86456,881057218091.2656,13529293058644.648,303648216632486.8
4.803380160110075,7346346835140253.0,9130231833231350.0,675830280361162.9,769406751472281.1,469363198046.8469,936792282069.6683,14385147975488.307,322856662802025.75
4.9994477633122765,7488824383683501.0,9321683959658914.0,688937562628303.2,784328887649728.0,498392728792.99524,994732672103.4385,15274867495446.352,342825132801036.6
5.199436718578522,7630901626891433.0,9513475967171760.0,702008018637212.9,799209098550752.2,528557264411.24756,1054938530072.358,16199375155016.293,363574352142840.8
5.403425452950093,7772627456191639.0,9705688756037952.0,715046146175428.6,814052504733283.8,559887835250.7761,1117471799485.5945,17159622156808.768,385125667146045.5
5.611493962009095,7914047196534760.0,9898399619344832.0,728056114930936.2,828863853226556.0,592416387542.3754,1182396252466.8374,18156587783962.496,407501054228586.0
5.823723841249277,8055202924213461.0,1.0091682633766202e+16,741041795730054.1,843647550817297.6,626175797838.6508,1249777518608.617,19191279843265.09,430723129845681.75
6.040198318074262,8196133747087044.0,1.0285609005963366e+16,754006786316825.0,858407693398580.5,661199888318.0687,1319683115552.4558,20264735134776.418,454815161022272.6
6.261002284435747,8336876052423949.0,1.048024738081251e+16,766954434153384.6,873148091927167.8,697523442891.751,1392182481172.7485,21378019946080.51,479801076437843.94
6.486222330124463,8477463726744029.0,1.067566411666528e+16,779887856644440.9,887872295448292.5,735182224060.551,1467347007259.989,22532230569563.086,505705478027634.9
6.715946776726952,8617928351360187.0,1.087192353203756e+16,792809959126224.6,902583611575401.8,774212990477.5114,1545250074613.5469,23728493841336.703,532553653069318.56
6.950265712261491,8758299376757900.0,1.1069088127453614e+16,805723450908585.4,917285124753449.4,814653515176.873,1625967089466.7976,24967967700625.957,560371586728434.7
7.18927102650672,8898604278483871.0,1.1267218785619294e+16,818630859616060.5,931979712585656.5,856542604435.9933,1709575521177.4204,26251841768584.23,589185975039503.5
7.433056447036854,9038868696828818.0,1.1466374952636476e+16,831534544038029.0,946670060462923.2,899920117240.9482,1796154941124.66,27581337945645.652,619024238302673.8
7.681717575977592,9179116562263698.0,1.166661480258622e+16,844436705668273.8,961358674701164.9,944826985330.2058,1885787062762.5686,28957711026631.086,649914534878337.8
7.935351927497144,9319370208317286.0,1.1867995387483654e+16,857339399089218.0,976047894363376.9,991305233793.9197,1978555782784.461,30382249332919.832,681885775364267.1
8.194058966047088,9459650473353782.0,1.2070572774336134e+16,870244541334977.9,990739901919098.4,1039398002209.0283,2074547223359.1467,31856275361082.977,714967637141644.8
8.45794014536803,9599976792513750.0,1.2274402170804112e+16,883153920349539.8,1005436732873723.6,1089149566292.5531,2173849775403.9465,33381146447439.125,749190579277939.2
8.72709894827539,9740367280919132.0,1.2479538040769878e+16,896069202641182.2,1020140284482786.0,1140605360057.447,2276554142863.35,34958255448056.2,784585857775798.6
9.0016409272409,9880838809099458.0,1.2686034210951076e+16,908991940221416.2,1034852323651634.5,1193811998456.8738,2382753387965.2134,36589031433767.45,821185541158354.6
9.281673745785717,1.0021407071480078e+16,1.2893943969553998e+16,921923576905536.2,1049574494108410.1,1248817300504.3267,2492542977429.558,38274940399817.914,859022526382211.5
9.567307220701432,1.016208664866719e+16,1.310332015783954e+16,934865454042564.8,1064308322927339.9,1305670312857.9966,2606020829606.879,40017485989788.266,898130555070223.6
9.85865336511546,1.0302891064177364e+16,1.3314215255368452e+16,947818815734137.0,1079055226470251.1,1364421333858.8943,2723287362525.2427,41818210233477.77,938544230056831.4
10.155826432417769,1.0443832836183426e+16,1.3526681459602962e+16,960784813594847.0,1093816515806031.6,1425121938013.1,2844445542827.039,43678694298450.445,980299032239356.9
10.458942961066125,1.0584923524780802e+16,1.3740770760462966e+16,973764511100565.8,1108593401661029.5,1487825000909.1382,2969600935577.5166,45600559254974.51,1023431337729086.4
10.768121820287448,1.0726173775222974e+16,1.39565350103661e+16,986758887565888.9,1123386998947218.0,1552584724562.1829,3098861754928.819,47585466854100.96,1067978435296461.8
11.083484256693197,1.086759335752365e+16,1.41740259902233e+16,999768841787363.1,1138198330909878.2,1619456663177.2368,3232338915623.886,49635120318643.68,1113978544104972.1
11.405153941827061,1.1009191202780618e+16,1.4393295471807856e+16,1012795195385104.6,1153028332931891.5,1688497749323.946,3370146085325.7417,51751265146838.57,1161470831728755.5
11.733257020663602,1.1150975436537564e+16,1.461439527687312e+16,1025838695871944.5,1167877856027855.0,1759766320515.9465,3512399737758.222,53935689928467.13,1210495432449023.0
12.067922161076874,1.1292953409467824e+16,1.4837377333352508e+16,1038900019476188.8,1182747670057664.5,1833322146188.1187,3659219206645.058,56190227173244.1,1261093465824758.8
12.409280604298411,1.1435131725633992e+16,1.506229372894168e+16,1051979773741366.0,1197638466686265.8,1909226455065.2302,3810726740434.4346,58516754151272.85,1313307055533282.2
12.75746621638438,1.1577516268552368e+16,1.5289196762332342e+16,1065078499924056.0,1212550862113445.0,1987541962915.769,3967047557796.9165,60917193745379.23,1367179348476373.8
13.112615540712067,1.1720112225268092e+16,1.5518138992339632e+16,1078196675208669.0,1227485399595298.2,2068332900684.867,4128309903884.729,63393515315144.46,1422754534147848.8
13.474867851526309,1.1862924108627314e+16,1.5749173285141916e+16,1091334714756401.2,1242442551776876.2,2151665043000.4722,4294645107340.8545,65947735572455.836,1480077864258524.2
13.844365208556836,1.200595577791443e+16,1.5982352859829952e+16,1104492973603756.2,1257422722853597.8,2237605737046.9087,4466187638046.703,68581919468404.875,1539195672614665.0
14.221252512727972,1.214921045800769e+16,1.6217731332444696e+16,1117671748424778.6,1272426250577449.8,2326223931800.265,4643075165597.057,71298181091361.03,1600155395246008.2
14.605677562982532,1.2292690757191466e+16,1.6455362758665434e+16,1130871279169692.0,1287453408122542.2,2417590207619.9395,4825448618491.687,74098684576053.78,1663005590779569.2
14.997791114242183,1.2436398683751892e+16,1.6695301675296042e+16,1144091750591642.5,1302504405823240.2,2511776806190.9478,5013452244032.745,76985645023502.11,1727795961055551.0
15.397746936527026,1.2580335661471216e+16,1.6937603140683078e+16,1157333293672077.8,1317579392796895.8,2608857660811.5815,5207233668917.465,79961329431624.58,1794577371981559.2
15.805701875257567,1.2724502544126226e+16,1.7182322774188756e+16,1170595986954568.0,1332678458462360.5,2708908427021.078,5406943960515.875,83028057636377.94,1863401874621657.0
16.221815912762718,1.2868899629087724e+16,1.7429516794830046e+16,1183879857795862.2,1347801633964255.5,2812006513562.07,5612737688823.196,86188203263263.12,1934322726516536.8
16.64625223101797,1.3013526670108976e+16,1.7679242059187032e+16,1197184883542401.0,1362948893512401.8,2918231113672.708,5824772989077.18,89444194689047.17,2007394413231430.0
17.079177275638333,1.315838288938579e+16,1.793155609867392e+16,1210510992639764.2,1378120155644859.5,3027663236703.4087,6043211625030.271,92798516013551.78,2082672670128219.2
17.5207608211511,1.3303466988962556e+16,1.8186517156259816e+16,1223858065681982.5,1393315284422553.0,3140385740053.146,6268219052867.291,96253708041359.23,2160214504358461.0
17.97117603757412,1.3448777161553822e+16,1.844418422271799e+16,1237225936407080.8,1408534090562641.0,3256483361420.711,6499964485759.037,99812369273295.22,2240078217073969.8
18.430599558325603,1.3594311100845784e+16,1.8704617072477716e+16,1250614392644741.5,1423776332517420.0,3376042751365.817,6738620959042.939,103477156907545.81,2322323425851764.0
18.899211549492115,1.374006601133676e+16,1.896787629914614e+16,1264023177221622.8,1439041717504942.0,3499152506175.999,6984365396021.725,107250787850276.97,2407011087330337.5
19.37719578048196,1.388603861777176e+16,1.923402335076331e+16,1277451988829251.2,1454329902497152.5,3625903201034.452,7237378674371.94,111136039735626.73,2494203520054126.5
19.864739696091597,1.4032225174222508e+16,1.950312056484786e+16,1290900482859398.0,1469640495170854.5,3756387423484.7554,7497845693153.977,115135751954942.98,2583964427523520.0
20.36203449001343,1.4178621472860586e+16,1.9775231203288372e+16,1304368272211100.5,1484973054826530.8,3890699807188.588,7765955440416.127,119252826695156.34,2676358921447407.0
20.869275179813698,1.432522285246723e+16,2.005041948713005e+16,1317854928073585.2,1500327093279649.8,4028937065972.398,8041901061385.315,123490229986169.25,2771453545196037.0
21.38666068340997,1.4472024206722362e+16,2.032875063130391e+16,1331359980688781.2,1515702075728753.2,4171198028159.7183,8325879927238.205,127850992757168.78,2869316297451471.5
21.91439389707817,1.4619019992310234e+16,2.061029087934273e+16,1344882920097018.2,1531097421604413.2,4317583671185.733,8618093704446.021,132338211901764.39,2970016656053696.0
22.452681775019734,1.4766204236878294e+16,2.0895107538123576e+16,1358423196869211.8,1546512505402789.0,4468197156491.192,8918748424688.26,136955051351867.62,3073625602040235.0
23.00173541052013,1.491357054688287e+16,2.1183269012676764e+16,1371980222828618.8,1561946657507316.8,4623143864693.165,9228054555330.19,141704743160244.94,3180215643877691.5
23.561770118730532,1.5061112115352992e+16,2.1474844841096692e+16,1385553371765070.2,1577399165001863.2,4782531431030.224,9546227070460.178,146590588591679.53,3289860841883572.0
24.133005521105144,1.5208821729601774e+16,2.1769905729588148e+16,1399141980144397.2,1592869272478338.2,4946469781080.5205,9873485522483.914,151615959222696.84,3402636832837315.5
24.715665631527248,1.5356691778912998e+16,2.2068523587680676e+16,1412745347815541.8,1608356182841740.8,5115071166751.041,10210054114273.096,156784298049817.88,3518620854779563.0
25.309978944157795,1.5504714262228238e+16,2.2370771563641172e+16,1426362738717782.2,1623859058115287.0,5288450202537.475,10556161771867.16,162099120606320.12,3637891771999122.0
25.91617852304095,1.5652880795859282e+16,2.2676724080112244e+16,1439993381590163.2,1639377020248111.5,5466723902054.065,10912042217728.303,167564016087507.84,3760530100207395.0
26.53450209350177,1.580118262124714e+16,2.298645687000469e+16,1453636470685368.0,1654909151927917.8,5650011714833.659,11277934044550.102,173182648484498.0,3886618031900429.5
27.165192135371807,1.5949610612789476e+16,2.33000470126687e+16,1467291166489757.5,1670454497400779.0,5838435563398.742,11654080789621.932,178958757726557.3,4016239461909118.0
27.808495978079243,1.609815528575542e+16,2.361757297036797e+16,1480956596451512.2,1686012063300058.0,6032119880604.751,12040731009752.613,184896160832043.5,4149480013138573.0
28.464665897640828,1.6246806804305674e+16,2.393911462508056e+16,1494631855718447.2,1701580819486394.0,6231191647257.608,12438138356757.773,190998753068014.12,4286427062498002.0
29.133959215593645,1.6395554989634642e+16,2.426475331564734e+16,1508316007887044.2,1717159699900460.2,6435780430008.149,12846561653516.43,197270509118602.2,4427169767023027.0
29.816638399905518,1.654438932824999e+16,2.459457187528945e+16,1522008085764136.5,1732747603430081.8,6646018419526.935,13266264970605.127,203715484262265.5,4571799090192835.0
30.51297116790363,1.6693298980403132e+16,2.4928654669514224e+16,1535707092142486.5,1748343394793222.5,6862040468963.284,13697517703517.416,210337815558055.72,4720407828444927.0
31.223230591261704,1.6842272788683968e+16,2.5267087634428656e+16,1549412000591439.5,1763945905438123.5,7083984132693.582,14140594650479.643,217141723041053.3,4873090637890908.0
31.947695203086937,1.6991299286791076e+16,2.5609958315477492e+16,1563121756263742.2,1779553934461819.0,7311989705364.509,14595776090875.074,224131510927166.7,5029944061237445.0
32.686649107148675,1.714036670848691e+16,2.5957355906623796e+16,1576835276719419.8,1795166249548072.8,7546200261237.396,15063347864289.812,231311568827496.22,5191066554916382.0
33.44038208929165,1.728946299674823e+16,2.630937128998766e+16,1590551452767521.8,1810781587925705.2,7786761693841.228,15543601450195.39,238686372972504.5,5356558516429665.0
34.20918973107749,1.7438575813118206e+16,2.6666097075957504e+16,1604269149326502.5,1826398657348091.5,8033822755942.163,16036834048285.914,246260487446243.53,5526522311914275.0
34.993373525699035,1.758769254726751e+16,2.7027627643789444e+16,1617987206303790.2,1842016137094509.2,8287535099838.553,16543348659487.182,254038565430933.8,5701062303933399.0
35.793240996213015,1.7736800326769004e+16,2.7394059182706644e+16,1631704439495013.5,1857632678993883.5,8548053317991.098,17063454167658.883,262025350462208.53,5880284879500882.0
36.60910581613728,1.7885886027090588e+16,2.776548973351238e+16,1645419641503300.2,1873246908471355.2,8815534983998.693,17597465422011.453,270225677695347.97,6064298478345795.0
37.44128793246003,1.8034936281808044e+16,2.814201923072739e+16,1659131582678799.5,1888857425617936.0,9090140693931.352,18145703320261.098,278644475182880.3,6253213621425510.0
38.29011369110923,1.818393749304007e+16,2.852374954526185e+16,1672839012078683.2,1904462806283354.8,9372034108032.06,18708494892548.324,287286765163923.8,6447142939695223.0
39.15591596493141,1.833287584210512e+16,2.891078452763274e+16,1686540658447500.0,1920061603192240.2,9661381992800.742,19286173386145.94,296157665365690.9,6646201203143231.0
40.03903428423004,1.8481737300398724e+16,2.9303230051732916e+16,1700235231217853.8,1935652347083287.8,9958354263473.361,19879078350985.68,305262390317571.9,6850505350101032.0
40.93981496991464,1.863050764048922e+16,2.9701194059161264e+16,1713921421531150.8,1951233547871383.0,10263124026910.867,20487555726031.617,314606252678264.2,7060174516838290.0
41.85861126931294,1.877917244742751e+16,3.0104786604118564e+16,1727597903278060.5,1966803695832090.2,10575867624912.156,21111957926531.562,324194664576408.56,7275330067453027.0
42.7957834946992,1.8927717130265784e+16,3.0514119898874664e+16,1741263334158167.8,1982361262808062.5,10896764677966.963,21752643932178.2,334033138965221.56,7496095624067352.0
43.751699164593184,1.9076126933778944e+16,3.092930835981126e+16,1754916356758303.0,1997904703436648.5,11225998129463.76,22409979376212.094,344127290991627.0,7722597097340061.0
44.72673314788505,1.9224386950380588e+16,3.1350468654040644e+16,1768555599648749.8,2013432456397898.8,11563754290369.182,23084336635500.68,354482839380403.7,7954962717307127.0
