t(s),Total solute volume 1,Total retention volume 1,Total 1 volume 1,Total 2 volume 1,Total 3 volume 1,Total 4 volume 1,Total 5 volume 1,Total 6 volume 1
0.1,1144268928618327.0,1596229672649425.0,193012778181123.2,258947965849975.12,0.0,0.0,0.0,0.0
0.202,1722721555639934.5,2403314293848318.5,290584903382816.75,389851761674164.3,90861777.47648162,233455268.7859146,5233697629.234277,150515136726.98325
0.30604000000000003,2163537117542376.0,3018482198621137.5,364940708312319.6,489608292606815.5,230502661.9670573,592241611.6011369,13277630352.979193,381979785006.38007
0.41216080000000005,2536413492855299.5,3538943959980249.0,427836679723756.6,573990189733300.4,409404303.2467161,1051902746.2664882,23583268687.726776,678553092159.3783
0.5204040160000001,2867537990567980.5,4001223014275074.0,483690035713022.4,648923639758874.9,623338305.9301262,1601574398.87924,35907002986.7774,1033216319507.5217
0.6308120963200001,3169966900428766.5,4423528691471954.0,534703082698599.44,717363280245880.0,870035525.0083712,2235426325.6165257,50118107296.2258,1442204529558.203
0.7434283382464002,3451290811248946.5,4816447461081717.0,582156184605182.0,781026860939141.0,1148197838.3622482,2950123189.449557,66141797519.01999,1903364169899.619
0.8582969050113283,3716373047393342.5,5186762291088482.0,626869676351689.9,841014951809438.2,1457092012.9804914,3743781055.204493,83935832540.43622,2415478828416.264
0.9754628431115548,3968546484195061.0,5539121834490963.0,669405740060405.4,898081782312350.1,1796349579.4107878,4615453195.153481,103478984760.01913,2977937135604.5747
1.094972099973786,4210211073071274.0,5876873772878670.0,710169194287424.9,952770461284467.4,2165855996.415982,5564845313.408945,124764654881.31987,3590548879316.9883
1.2168715419732616,4443161933618056.5,6202522383044666.0,749462835879953.0,1005487224162984.6,2565684048.6734595,6592144420.88587,147797035013.21054,4253434520176.7056
1.3412089728127268,4668782885038940.0,6517998435936008.0,787520084434479.9,1056545229134973.6,2996051353.05229,7697909653.821785,172588660666.1617,4966954705937.986
1.4680331522689813,4888167183994523.0,6824827574472631.0,824525348093242.5,1106191880104484.5,3457291986.612835,8882999376.038607,199158776291.10315,5731663212728.496
1.597393815314361,5102196323049209.0,7124240201886608.0,860627315093894.9,1154626658775594.5,3949836867.327355,10148520770.061327,227532205052.20746,6548274405223.122
1.729341691620648,5311593401544655.0,7417245908928870.0,895947956251718.8,1202013202477345.5,4474199813.237806,11495794018.160936,257738545725.69284,7417640115590.412
1.863928525453061,5516960415344079.0,7704685474838355.0,930588814912136.5,1248487742830238.0,5030967427.52858,12926326313.531984,289811590002.642,8340732868156.2705
2.001207095962122,5718805008606393.0,7987268172654452.0,964635519381459.9,1294165159670844.2,5620791645.087144,14441792709.777712,323788893114.73865,9318633518287.928
2.1412312378813647,5917560107336926.0,8265599148038937.0,998161094671296.4,1339143424122949.8,6244384182.195111,16044021860.212366,359711454095.1333,10352522047626.502
2.284055862638992,6113598616981037.0,8540199914944808.0,1031228441656469.8,1383506924661906.5,6902512380.282465,17734985339.00682,397623476348.0106,11443670671321.09
2.4297369798917723,6307244618053074.0,8811523967916619.0,1063892225529244.8,1427329000684715.0,7595996092.990689,19516789642.964176,437572188320.591,12593438675513.783
2.578331719489608,6498782026585699.0,9079968859240416.0,1096200336624976.4,1470673902369048.2,8325705369.3232,21391670238.727287,479607710035.67004,13803268575053.793
2.7298983538794,6688461386136316.0,9345885670720876.0,1128195036082879.0,1513598327703841.5,9092558755.135502,23361987198.7197,523782955245.049,15074683296646.361
2.884496320956988,6876505260528644.0,9609586534354474.0,1159913865481901.0,1556152642866303.0,9897522082.907564,25430222091.65722,570153561711.5681,16409284171742.793
3.0421862473761276,7063112563505402.0,9871350670690960.0,1191390377157053.5,1598381862022034.2,10741607653.149075,27598975879.304237,618777844051.9973,17808749578884.2
3.2030299723236504,7248462070122482.0,1.0131429286290494e+16,1222654726493708.8,1640326441953253.8,11625873734.61953,29870967632.378464,669716764945.9395,19274834114737.453
3.3670905717701234,7432715290838539.0,1.0390049582607838e+16,1253734156722741.5,1682022932465074.5,12551424327.827417,32249033922.91335,723033921511.4735,20809368201722.59
3.5344323832055258,7616018843850571.0,1.06474180653199e+16,1284653399080908.5,1723504513244874.0,13519409148.992275,34736128783.069374,778795544380.9978,22414258061227.734
3.7051210308696363,7798506428467980.0,1.0903723297432584e+16,1315435005675256.0,1764801440436697.0,14531023801.14522,37335324144.77022,837070507557.5793,24091485997146.57
3.879223451487029,7980300478359144.0,1.115913820609386e+16,1346099628349158.0,1805941420770848.5,15587510106.21346,40049810692.96536,897930347545.0797,25843110946365.695
4.0568079205167695,8161513555760576.0,1.1413822028296438e+16,1376666253854449.2,1846949927073308.0,16690156577.415628,42882899079.40135,961449290561.1963,27671269261919.87
4.237944078927105,8342249534444010.0,1.1667921962115784e+16,1407152403391725.0,1887850465971114.8,17840299015.52838,45838021454.66372,1027704286886.3005,29578175701551.613
4.422702960505647,8522604609169879.0,1.1921574576090212e+16,1437574302882764.2,1928664806331596.2,19039321215.88825,48918733284.73745,1096775051591.4468,31566124599892.66
4.61115701971576,8702668161654838.0,1.2174907018614668e+16,1467947029040010.0,1969413175230774.0,20288655775.595364,52128715425.02343,1168744111038.6802,33637491206800.22
4.803380160110075,8882523507137925.0,1.2428038060928766e+16,1498284635295742.8,2010114426901223.8,21589784992.453617,55471776430.05905,1243696854665.9988,35794733177808.414
4.9994477633122765,9062248541001400.0,1.268107900083036e+16,1528600260872656.5,2050786189062324.0,22944241848.838493,58951855081.4493,1321721591664.7656,38040392205405.8
5.199436718578522,9241916301270168.0,1.293413444917756e+16,1558906225665022.5,2091444990213834.2,24353611075.02364,62573023119.95711,1402909612234.4697,40377095782068.51
5.403425452950093,9421595459940772.0,1.3187303017238812e+16,1589214113115010.8,2132106370823620.2,25819530287.585907,66339488170.498695,1487355253162.579,42807559087787.04
5.611493962009095,9601350753802760.0,1.3440677919759806e+16,1619534842882665.5,2172784980822481.8,27343691199.404602,70255596851.09026,1575155967528.6875,45334586996306.83
5.823723841249277,9781243363580952.0,1.3694347506056668e+16,1649878734798837.0,2213494665404023.2,28927840898.507797,74325838058.68889,1666412398374.7412,47961076195529.85
6.040198318074262,9961331248746386.0,1.3948395729383448e+16,1680255565340310.8,2254248540792377.0,30573783193.634113,78554846426.45453,1761228456218.6416,50690017418540.484
6.261002284435747,1.0141669444142702e+16,1.4202902563144424e+16,1710674617664143.2,2295059061368689.0,32283380024.895588,82947405948.27356,1859711400317.977,53524497782578.125
6.486222330124463,1.032231032359348e+16,1.4457944371155582e+16,1741144726072318.5,2335938079325443.5,34058552938.359653,87508453767.5238,1961971923616.1204,56467703234000.07
6.715946776726952,1.0503303834851638e+16,1.4713594238037716e+16,1771674315642550.5,2376896897835547.0,35901284623.74039,92243084127.98587,2068124241323.7996,59522921097888.85
6.950265712261491,1.0684697709588368e+16,1.4969922264897422e+16,1802271437648728.5,2417946318572750.5,37813620514.70652,97156552485.64398,2178286183107.8398,62693542731486.27
7.18927102650672,1.0866537651568524e+16,1.5226995834686444e+16,1832943801301946.0,2459096684295763.0,39797670451.58512,102254279780.80417,2292579288874.4556,65983066281094.02
7.433056447036854,1.1048867505702172e+16,1.5484879850990352e+16,1863698802265717.5,2500357917104557.0,41855610406.4814,107541856870.58495,2411128908148.0303,69395099542465.22
7.681717575977592,1.1231729410278374e+16,1.5743636953465334e+16,1894543548334480.2,2541739552890944.0,43989684271.038345,113025049122.35254,2534064303058.5483,72933362925066.89
7.935351927497144,1.1415163934366702e+16,1.6003327712691982e+16,1925484882610136.8,2583250772432430.5,46202205707.24742,118709801169.16335,2661518754961.205,76601692520891.61
8.194058966047088,1.1599210202100012e+16,1.6264010806838732e+16,1956529404465860.8,2624900429517493.0,48495560061.88566,124602241828.68251,2793629674721.3164,80404043278770.8
8.45794014536803,1.1783906005324098e+16,1.6525743182207334e+16,1987683488547525.2,2666697076438120.5,50872206345.29533,130708689187.42912,2930538716706.0103,84344492285381.42
8.72709894827539,1.196928790590363e+16,1.6788580199461832e+16,2018953302030491.0,2708648987141665.0,53334679275.36298,137035655852.5395,3072391896531.703,88427242154363.38
9.0016409272409,1.215539132880912e+16,1.7052575767110396e+16,2050344820321303.2,2750764178296412.5,55885591387.66637,143589854373.54913,3219339712623.5347,92656624525156.94
9.281673745785717,1.2342250646967342e+16,1.7317782463613688e+16,2081863841370059.0,2793050428493241.5,58527635212.87581,150378202836.9713,3371537271649.0767,97037103673360.34
9.567307220701432,1.2529899258735906e+16,1.7584251649321292e+16,2113515998738681.2,2835515295778084.0,61263585522.593544,157407830636.72614,3529144417894.6787,101573280234568.97
9.85865336511546,1.2718369658758598e+16,1.7852033569294246e+16,2145306773552592.8,2878166133686504.5,64096301644.91258,164686084423.7047,3692325866658.149,106269895043827.11
10.155826432417769,1.2907693502866766e+16,1.8121177447944664e+16,2177241505448204.0,2921010105930897.5,67028729851.06423,172220534237.98975,3861251341736.7603,111131833092955.61
10.458942961066125,1.3097901667615562e+16,1.8391731576315196e+16,2209325402615289.8,2964054199873464.0,70063905814.60904,180018979827.4688,4036095717094.3237,116164127608171.86
10.768121820287448,1.3289024304973994e+16,1.8663743392726292e+16,2241563551022032.0,3007305238902644.0,73204957144.70555,188089457156.78918,4217039162795.7217,121371964250549.3
11.083484256693197,1.3481090892630772e+16,1.8937259557436948e+16,2273960922900493.0,3050769893817309.5,76455105995.0673,196440245110.77774,4404267295301.755,126760685441981.95
11.405153941827061,1.3674130280325296e+16,1.921232602189415e+16,2306522384561619.0,3094454693311433.0,79817671750.29454,205079872396.67896,4597971332221.341,132335794819452.64
11.733257020663602,1.3868170732568642e+16,1.948898809308235e+16,2339252703601308.0,3138366033641854.5,83296073791.33545,214017124649.70084,4798348251622.276,138102961820519.31
12.067922161076874,1.4063239968079672e+16,1.976729049342997e+16,2372156555552428.5,3182510187552689.0,86893834341.90381,223261051746.57944,5005600956005.738,144068026403041.94
12.409280604298411,1.4259365196227416e+16,2.0047277416681572e+16,2405238530031854.0,3226893312522212.0,90614581397.74649,232820975332.01263,5219938441053.691,150237003902298.06
12.75746621638438,1.4456573150739986e+16,2.032899258010386e+16,2438503136426360.0,3271521458391208.5,94462051740.722,242706496563.0159,5441575969262.001,156616090028732.38
13.112615540712067,1.4654890120913272e+16,2.0612479273352012e+16,2471954809156873.5,3316400574425471.0,98440094039.71448,252927504076.38718,5670735248576.14,163211666009703.53
13.474867851526309,1.4854341980529378e+16,2.0897780404294896e+16,2505597912556384.0,3361536515860059.0,102552672040.47441,263494182184.674,5907644616149.786,170030303878692.94
13.844365208556836,1.5054954214673704e+16,2.1184938542065104e+16,2539436745393341.0,3406935049968001.0,106803867846.54181,274417019306.1557,6152539227350.473,177078771915549.97
14.221252512727972,1.5256751944620258e+16,2.1473995957574904e+16,2573475545069316.0,3452601861691850.0,111197885293.46683,285706816634.5622,6405661250140.205,184364040241457.0
14.605677562982532,1.5459759950939366e+16,2.1764994661716828e+16,2607718491516709.5,3498542558872899.0,115739053418.61415,297374697054.3723,6667260064962.263,191893286572385.56
14.997791114242183,1.5664002694965958e+16,2.205797644144506e+16,2642169710819985.0,3544762677109534.5,120431830028.88838,309432114307.7349,6937592470269.326,199673902134948.1
15.397746936527026,1.5869504338754126e+16,2.2352982893918828e+16,2676833278581602.5,3591267684272887.5,125280805368.79764,321890862419.1811,7216922893831.903,207713497748625.03
15.805701875257567,1.6076288763632066e+16,2.2650055458869416e+16,2711713223051756.0,3638062984705870.0,130290705891.31567,334763085384.4774,7505523609968.816,216019910078471.16
16.221815912762718,1.628437958746034e+16,2.29492354493391e+16,2746813528039518.5,3685153923128650.5,135466398134.08307,348061287130.1555,7803674962846.291,224601208062502.7
16.64625223101797,1.6493800180687e+16,2.325056408092846e+16,2782138135620964.5,3732545788272005.0,140812892703.54138,361798341750.3487,8111665595994.9,233465699518066.72
17.079177275638333,1.6704573681285836e+16,2.3554082499674664e+16,2817690948658897.5,3780243816257776.5,146335348369.65906,375987504027.8015,8429792688197.615,242621937931616.75
17.5207608211511,1.6916723008654044e+16,2.3859831808673944e+16,2853475833147113.0,3828253193743946.5,152039076273.97586,390642420246.03937,8758362195906.046,252078729436392.75
17.97117603757412,1.7130270876541422e+16,2.416785309355174e+16,2889496620391267.0,3876579060850526.5,157929544253.7519,405777139299.8589,9097689102345.336,261845139982648.84
18.430599558325603,1.734523980507481e+16,2.447818744687651e+16,2925757109037078.5,3925226513880620.0,164012381285.0667,421406124111.4792,9448097673471.99,271930502705143.9
18.899211549492115,1.756165213193699e+16,2.4790875991602508e+16,2962261066956046.0,3974200607850325.5,170293382047.80005,437544263359.8134,9809921720952.676,282344425492737.7
19.37719578048196,1.7779530022754322e+16,2.5105959903623724e+16,2999012232997544.5,4023506358839322.5,176778511615.45093,454206883530.56647,10183504872335.63,293096798765037.25
19.864739696091597,1.799889548074173e+16,2.5423480433512404e+16,3036014318615752.5,4073148746173626.5,183473910272.86597,471409761294.9445,10569200848590.297,304197803461133.94
20.36203449001343,1.8219770355650932e+16,2.5743478927509972e+16,3073271009378993.5,4123132714450553.0,190385898464.9705,489169136224.9886,10967373749194.162,315657919245616.2
20.869275179813698,1.8442176352062656e+16,2.606599684783418e+16,3110785966368506.5,4173463175415228.0,197520981879.68445,507501723853.69324,11378398344950.234,327487932937093.2
21.38666068340997,1.866613503706159e+16,2.6391075792360964e+16,3148562827472933.5,4224145009697377.0,204885856668.26404,526424729088.2324,11802660378721.121,339698947164634.25
21.91439389707817,1.889166784732716e+16,2.6718757513734496e+16,3186605208584528.0,4275183068416142.0,212487414806.38144,545955859984.80853,12240556874271.553,352302389257598.3
22.452681775019734,1.9118796095675e+16,2.7049083937956944e+16,3224916704702377.0,4326582174660194.5,220332749599.31476,566113341893.7823,12692496453412.715,365310020374461.94
23.00173541052013,1.934754097707496e+16,2.738209718250381e+16,3263500890947695.0,4378347124849789.5,228429161334.68372,586915931983.9326,13158899661646.805,378733944876334.56
23.561770118730532,1.9577923574175904e+16,2.771783957400904e+16,3302361323495537.0,4430482689986867.0,236784163086.25128,608382934154.8593,13640199302514.887,392586619951007.44
24.133005521105144,1.980996486235894e+16,2.8056353665560464e+16,3341501540427358.0,4482993616798809.0,245405486672.35556,630534214346.7228,14136840780852.55,406880865493439.06
24.715665631527248,2.00436857143454e+16,2.839768225364341e+16,3380925062508130.0,4535884628780963.0,254301088772.61578,653390216256.6492,14649282455164.174,421629874248736.7
25.309978944157795,2.0279106904376748e+16,2.874186839476882e+16,3420635393891500.5,4589160427142808.0,263479157206.62848,676971977471.381,15177995999329.473,436847222223772.44
25.91617852304095,2.0516249111989244e+16,2.908895542181854e+16,3460636022756400.0,4642825691661962.0,272948117378.41324,701301146025.8157,15723466773858.91,452546879373718.56
26.53450209350177,2.0755132925398196e+16,2.9438986960139364e+16,3500930421877974.0,4696885081450172.0,282716638890.4698,726399997397.3574,16286194206920.639,468743220569835.56
27.165192135371807,2.099577884451039e+16,2.9792006943415668e+16,3541522049135686.5,4751343235634943.0,292793642331.33624,752291451946.0796,16866692185363.28,485451036855039.9
27.808495978079243,2.123820728357837e+16,3.014805962934852e+16,3582414347961010.0,4806204773960252.0,303188306240.6397,778999092810.9539,17465489455963.385,502685546993820.0
28.464665897640828,2.148243857351118e+16,3.0507189615166696e+16,3623610747727217.0,4861474297309445.0,313910074255.6629,806547184272.504,18083130037131.594,520462409323200.25
29.133959215593645,2.172849296385365e+16,3.0869441852996076e+16,3665114664083268.0,4917156388153162.0,324968662443.5548,834960690592.4287,18720173641312.46,538797733911583.1
29.816638399905518,2.1976390624447136e+16,3.1234861665109e+16,3706929499233887.5,4973255610925119.0,336374066823.3278,864265295340.9407,19377196108319.625,557708095032371.0
30.51297116790363,2.2226151646780896e+16,3.1603494759078052e+16,3749058642167560.0,5029776512328055.0,348136571081.91315,894487421222.6926,20054789849849.586,577210543959401.2
31.223230591261704,2.247779604504593e+16,3.197538724285382e+16,3791505468834280.0,5086723621572003.0,360266754488.53125,925654250412.3142,20753564305421.918,597322622091314.9
31.947695203086937,2.273134375689895e+16,3.2350585639788236e+16,3834273342274352.0,5144101450547372.0,372775500011.78564,957793745410.8256,21474146409998.01,618062374412107.1
32.686649107148675,2.2986814643945724e+16,3.272913690362171e+16,3877365612700039.5,5201914493934183.0,385674002643.8615,990934670434.2264,22217181073531.477,639448363295187.1
33.44038208929165,2.324422849195105e+16,3.3111088433454064e+16,3920785617530895.5,5260167229249786.0,398973777936.34344,1025106613345.8502,22983331672710.83,661499682658362.2
34.20918973107749,2.350360501078381e+16,3.3496488088715824e+16,3964536681384487.0,5318864116836134.0,412686670752.18365,1060340008144.1189,23773280555154.453,684235972477324.4
34.993373525699035,2.376496383410135e+16,3.3885384204157028e+16,4008622116023220.5,5378009599788633.0,426824864238.4317,1096666158017.5457,24587729556324.08,707677433665219.1
35.793240996213015,2.4028324518781744e+16,3.4277825604871236e+16,4053045220258538.5,5437608103827488.0,441400889024.3694,1134117258978.952,25427400529424.656,731844843326034.2
36.60910581613728,2.429370654410791e+16,3.4673861621369244e+16,4097809279813281.0,5497664037113144.0,456427632649.7911,1172726424091.0337,26293035888562.844,756759570389610.1
37.44128793246003,2.4561129310709016e+16,3.5073542104718056e+16,4142917567143182.5,5558181790006731.0,471918349228.17413,1212527708295.4875,27185399165438.13,782443591636186.5
38.29011369110923,2.483061213926482e+16,3.547691744176132e+16,4188373341218250.5,5619165734776785.0,487886669349.56995,1253556133858.163,28105275579844.402,808919508118402.2
39.15591596493141,2.5102174268975492e+16,3.588403857043303e+16,4234179847264698.5,5680620225253067.0,504346610228.0943,1295847716442.648,29053472624263.29,836210561988846.5
40.03903428423004,2.5375834855802668e+16,3.629495699518146e+16,4280340316468286.5,5742549596428500.0,521312586098.9158,1339439491825.017,30030820662830.98,864340653741271.4
40.93981496991464,2.5651612970484692e+16,3.670972480251482e+16,4326857965639467.5,5804958164009903.0,538799418869.71136,1384369543262.452,31038173544965.55,893334359873605.8
41.85861126931294,2.592952759632905e+16,3.712839467668222e+16,4373735996841025.5,5867850223918518.0,556822349031.5991,1430677029528.5808,32076409233941.91,923216950981080.9
42.7957834946992,2.6209597626785708e+16,3.755101991550423e+16,4420977596978800.0,5931230051740855.0,575397046834.5793,1478402213628.5244,33146430450705.47,954014410287716.0
43.751699164593184,2.649184186280374e+16,3.797765444636371e+16,4468585937355790.0,5995101902130513.0,594539623732.5751,1527586492206.6672,34249165333216.484,985753452624525.8
