t(s),Total solute volume 1,Total retention volume 1,Total 1 volume 1,Total 2 volume 1,Total 3 volume 1,Total 4 volume 1,Total 5 volume 1,Total 6 volume 1
0.1,821307387244814.4,914309965951331.9,46537842289353.97,46464736417161.86,0.0,0.0,0.0,0.0
0.202,1237574636823001.5,1377736881461774.0,70124845125113.52,70014686811341.86,62994978.95966813,102739355.78239393,1165429924.7019112,21381538056.3193
0.30604000000000003,1554558340999567.8,1730649861445598.2,88086132074911.16,87947758602058.81,159838593.057589,260682928.3417544,2957074715.1211743,54252172825.78002
0.41216080000000005,1822666031953540.0,2029162064443726.0,103277951421162.28,103115713303057.95,283920686.70357066,463050125.64476717,5252642793.369912,96368152359.90816
0.5204040160000001,2060757072217726.5,2294267377566622.5,116768933565359.5,116585502624311.64,432308212.63865924,705057405.6371863,7997871521.04611,146733922083.67554
0.6308120963200001,2278225949482849.5,2536423527119148.0,129091399529435.03,128888611372674.23,603428003.1337698,984139072.5657218,11163656674.793295,204815510438.90564
0.7434283382464002,2480532359533421.0,2761708125478707.0,140554712733017.28,140333916993008.3,796380689.9227482,1298828339.5183833,14733359618.831842,270307650609.89807
0.8582969050113283,2671173672910384.0,2974014392813230.0,151357045116929.38,151119280120409.94,1010658863.0487638,1648297669.8842876,18697593115.35356,343038115862.3086
0.9754628431115548,2852546403749315.0,3176010126206671.5,161634190658910.44,161380281415569.84,1246008219.4036505,2032132322.661603,23051652512.13564,422920589827.4755
1.094972099973786,3026376145837511.5,3369616292764248.5,171483926893768.9,171214544815776.72,1502350673.1708524,2450204952.273087,27794093253.201794,509928568317.6426
1.2168715419732616,3193953586478036.0,3556269752377229.0,180979388196247.25,180695089809878.0,1779738157.3409724,2902600262.865045,32925876187.70486,604079678468.283
1.3412089728127268,3356273699986039.5,3737078202479888.0,190176952919373.62,189878206186828.06,2078323151.6141953,3389566941.8949904,38449822324.1239,705425675224.7535
1.4680331522689813,3514122574861779.5,3912916830197686.5,199121163293335.44,198808366205961.12,2398339007.373525,3911485571.8935924,44370248834.41631,814045763188.4274
1.597393815314361,3668134075171877.5,4084491385002255.0,207847936036357.22,207521430164359.56,2740086344.7617674,4468846445.302135,50692717394.63989,930041979477.1903
1.729341691620648,3818828214791264.0,4252380894862206.0,216386736759129.6,216046817385536.28,3103923389.0755606,5062233803.995413,57423855404.58818,1053535913681.2882
1.863928525453061,3966637967435441.5,4417067509642057.5,224762099104994.6,224409022973225.9,3490258961.3509283,5692314407.561965,64571226311.078674,1184666328712.6428
2.001207095962122,4111928499258459.0,4578957909684926.0,232994714529027.62,232628705878542.75,3899547315.3934216,6359829112.976055,72143234091.23999,1323587408379.4272
2.1412312378813647,4255011283189696.5,4738399017234123.0,241102232062125.88,240723487411466.84,4332284296.044233,7065586617.477344,80149053880.41492,1470467646039.511
2.284055862638992,4396154665320163.0,4895689757485213.0,249099857028692.34,248708549002844.84,4789004460.595796,7810458730.398775,88598571924.555,1625488098397.561
2.4297369798917723,4535591911865001.0,5051090017196464.0,257000807022983.56,256597087487552.56,5270278932.529613,8595376922.978382,97502356048.18385,1788842809018.2668
2.578331719489608,4673527435335180.0,5204827574513876.0,264816664696458.22,264400667321995.66,5776713799.520968,9421329682.287127,106871619242.6586,1960737497520.447
2.7298983538794,4810141676644335.0,5357103533693880.0,272557654394984.06,272129496790732.6,6308948944.880971,10289360613.78744,116718199739.9047,2141389354530.3235
2.884496320956988,4945594981538536.0,5508096640189862.0,280232861809453.72,279792647312047.9,6867657217.275807,11200567087.25451,127054545652.329,2331026759869.888
3.0421862473761276,5080030712853844.0,5657966745131983.0,287850410326029.44,287398229511170.25,7453543872.538988,12156099326.459337,137893704646.5831,2529889093097.6743
3.2030299723236504,5213577774611085.0,5806857615122089.0,295417604049228.1,294953536018683.4,8067346237.094929,13157159860.28252,149249317717.2488,2738226619269.5005
3.3670905717701234,5346352678031346.0,5954899232143733.0,302941044868817.75,302465158353523.56,8709833554.500196,14205003272.479399,161135616348.30533,2956300436853.6963
3.5344323832055258,5478461246914327.0,6102209692052888.0,310426729091886.0,309939083403248.56,9381806985.43368,15300936201.709059,173567422513.48575,3184382477730.364
3.7051210308696363,5610000036270854.0,6248896783899571.0,317880127826987.94,317380773681909.0,10084099738.049889,16446317554.176855,186560151088.43616,3422755551439.16
3.879223451487029,5741057520877561.0,6395059313158483.0,325306254331362.06,324795234571480.25,10817577310.585981,17642558899.355255,200129814339.64578,3671713427528.4336
4.0568079205167695,5871715097665503.0,6540788217748241.0,332709720809407.7,332187071031101.5,11583137831.914629,18891125025.448532,214293028225.43927,3931560951149.7046
4.237944078927105,6002047936298131.0,6686167515080452.0,340094786609087.7,339560535717774.6,12381712488.67372,20193534636.05939,229067020298.71527,4202614188038.3115
4.422702960505647,6132125705057020.0,6831275110324646.0,347465399352880.5,346919570052704.44,13214266029.895973,21551361173.254574,244469639043.49966,4485200595799.532
4.61115701971576,6262013193618405.0,6976183489913620.0,354825230226248.3,354267839454330.75,14081797341.869108,22966233755.17268,260519364510.82578,4779659219032.745
4.803380160110075,6391770850031880.0,7120960319558586.0,362177704404519.2,361608763717412.44,14985340087.392483,24439838218.66097,277235320146.01263,5086340906313.178
4.9994477633122765,6521455245884952.0,7265668962339658.0,369526027410572.8,368945543329312.44,15925963404.747135,25973918259.302208,294637285720.713,5405608547442.226
5.199436718578522,6651119481027230.0,7410368929532226.0,376873208047773.8,376281182366900.5,16904772662.627125,27570276662.71373,312745711300.3036,5737837329692.349
5.403425452950093,6780813537162555.0,7555116274530001.0,384222078435606.0,383618508500717.1,17922910268.03808,29230776622.23481,331581732191.2373,6083415012030.454
5.611493962009095,6910584587972895.0,7699963938396113.0,391575311582259.44,390960190539954.25,18981556524.79045,30957343139.133213,351167184824.4699,6442742216514.524
5.823723841249277,7040477272119202.0,7844962054104980.0,398935436853717.06,398308753877243.1,20081930540.73003,32751964502.303127,371524623540.5873,6816232736233.233
6.040198318074262,7170533934400776.0,7990158215353980.0,406304853638593.56,405666594132027.9,21225291182.27785,34616693845.123184,392677338250.22986,7204313859303.219
6.261002284435747,7300794839490725.0,8135597714862596.0,413685843459052.7,413035989242456.1,22412938075.20918,36553650777.73327,414649372950.0231,7607426708561.915
6.486222330124463,7431298361960284.0,8281323756291834.0,421080580738186.56,420419110215843.44,23646212650.90915,38565023093.48223,437465545079.88904,8026026596695.918
6.715946776726952,7562081155726914.0,8427377643273554.0,428491142401464.0,427818030715041.6,24926499237.599022,40653068548.72562,461151465712.4007,8460583396633.907
6.950265712261491,7693178305583240.0,8573798948507735.0,435919516462842.25,435234735631058.75,26255226196.25044,42820116715.51007,485733560568.9457,8911581927108.303
7.18927102650672,7824623463069408.0,8720625665446258.0,443367609723713.9,442671128769915.94,27633867101.099262,45068570907.001045,511239091861.0644,9379522353354.945
7.433056447036854,7956448968621656.0,8867894344715049.0,450837254694227.44,450129039763094.4,29063941964.835613,47400910175.780426,537696180958.3916,9864920602977.605
7.681717575977592,8088685961655369.0,9015640217120524.0,458330215830940.25,457610230295384.8,30547018508.697174,49819691385.38302,565133831887.396,10368308797053.973
7.935351927497144,8221364480009406.0,9163897304829028.0,465848195171639.9,465116399730864.9,32084713477.82106,52327551355.65165,593581955667.5043,10890235696603.86
8.194058966047088,8354513549984082.0,9312698522091150.0,473392837437181.3,472649190206717.06,33678694002.32874,54927209082.686806,623071395493.3798,11431267164580.605
8.45794014536803,8488161268040225.0,9462075766699718.0,480965734660808.06,480210191255280.1,35330679004.72079,57621468034.33026,653633952774.0453,11991986643581.932
8.72709894827539,8622334875087137.0,9612060003214224.0,488568430397543.94,487800944006822.6,37042440654.25666,60413218522.28467,685302414041.3418,12572995649508.549
9.0016409272409,8757060824167653.0,9762681338852046.0,496202423559436.8,495422945018769.6,38815805869.08052,63305440152.110085,718110578741.7872,13174914281429.793
9.281673745785717,8892364842247232.0,9913969092833396.0,503869171916716.9,503077649771360.25,40652657866.93468,66301204352.472595,752093287927.4398,13798381747941.428
9.567307220701432,9028271986725678.0,1.0065951859869352e+16,511570095299942.2,510766475864754.06,42554937765.37769,69403676985.13823,787286453862.7365,14444056910327.08
9.85865336511546,9164806697216160.0,1.0218657568399172e+16,519306578533940.9,518490805948376.06,44524646232.497055,72616121037.32704,823727090565.5532,15112618842859.084
10.155826432417769,9301992843069932.0,1.0372113534110734e+16,527079974130726.3,526251990409593.5,46563845189.16631,75941899398.14485,861453345302.0695,15804767410595.744
10.458942961066125,9439853767070422.0,1.0526346509214828e+16,534891604765328.25,534051349845660.8,48674659563.96949,79384477720.91728,900504531056.0203,16521223865055.303
10.768121820287448,9578412325670366.0,1.0681382727890878e+16,542742765555764.94,541890177340113.4,50859279101.966225,82947427373.34573,940921159994.2336,17262731458165.92
11.083484256693197,9717690926104496.0,1.0837247948274384e+16,550634726165955.06,549769740562367.25,53119960228.53918,86634428477.50935,982744977951.289,18030056074911.645
11.405153941827061,9857711560672290.0,1.0993967491313952e+16,558568732748295.1,557691283707254.56,55459027969.61356,90449273041.81462,1026018999957.2546,18823986885114.348
11.733257020663602,9998495838454116.0,1.1151566276791992e+16,566546009740784.1,565656029289316.6,57878877929.59993,94395868187.10126,1070787546833.47,19645337014807.844
12.067922161076874,1.0140065014694498e+16,1.131006885676997e+16,574567761531974.0,573665179805150.0,60381978328.46396,98478239469.18996,1117096282882.346,20494944237682.375
12.409280604298411,1.0282440018062514e+16,1.1469499446691984e+16,582635174005642.6,581719919275637.5,62970872099.376915,102700534300.248,1164992254698.1194,21373671687092.984
12.75746621638438,1.0425641475977428e+16,1.1629881954356752e+16,590749415975804.5,589821414678718.4,65648179048.46098,107067025471.43681,1214523931126.5295,22282408589143.63
13.112615540712067,1.0569689738166918e+16,1.1791240006945326e+16,598911640521602.8,597970817282179.8,68416598078.18654,111582114779.38937,1265741244402.2668,23222071017378.152
13.474867851526309,1.0714604898610416e+16,1.1953596976274518e+16,607122986230685.4,606169263885072.9,71278909476.03717,116250336759.1467,1318695632494.1284,24193602669625.277
13.844365208556836,1.0860406816003026e+16,1.2116976002427274e+16,615384578358757.0,614417877975452.6,74237977270.10828,121076362526.273,1373440082688.5916,25197975667562.65
14.221252512727972,1.1007115132863268e+16,1.2281400015898322e+16,623697529912278.0,622717770811372.2,77296751653.35298,126065003730.9497,1430029176443.6643,26236191379582.586
14.605677562982532,1.115474929339528e+16,1.2446891758378546e+16,632062942660604.8,631070042431425.8,80458271478.24771,131221216626.93182,1488519135545.719,27309281267559.926
14.997791114242183,1.1303328560205906e+16,1.2613473802290454e+16,640481908083209.5,639475782600501.1,83725666823.69359,136550106258.33583,1548967869602.921,28418307758139.605
15.397746936527026,1.1452872029966938e+16,1.278116856917646e+16,648955508257180.5,647936071695857.9,87102161636.02669,142056930767.31335,1611435024909.993,29564365139178.484
15.805701875257567,1.1603398648105158e+16,1.2949998347031946e+16,657484816689585.6,656451981538203.1,90591076446.06024,147747105825.74435,1675982034719.7559,30748580481994.34
16.221815912762718,1.1754927222593974e+16,1.3119985306666272e+16,666070899098946.9,665024576171940.2,94195831164.12796,153626209194.17017,1742672170958.072,31972114590091.2
16.64625223101797,1.1907476436913964e+16,1.3291151517167858e+16,674714814149649.4,673654912598405.6,97919947955.15808,159699985411.2676,1811570597419.6052,33236162975047.996
17.079177275638333,1.2061064862243794e+16,1.3463518960541576e+16,683417614142686.9,682344041465545.4,101767054195.84897,165974350617.253,1882744424482.7524,34541956860274.52
17.5207608211511,1.2215710968935536e+16,1.363710954558033e+16,692180345665914.4,691093007717137.6,105740885516.06628,172455397514.6638,1956262765383.0713,35890764213354.19
17.97117603757412,1.2371433137324894e+16,1.3811945121027038e+16,701004050206571.1,699902851204366.1,109845288926.63768,179149400470.08167,2032196794085.3318,37283890807710.65
18.430599558325603,1.2528249667919948e+16,1.3988047488076708e+16,709889764728609.5,708774607262224.8,114084226035.75511,186062820760.38763,2110619804795.1697,38722681314348.95
18.899211549492115,1.2686178791008128e+16,1.416543841226419e+16,718838522217075.8,717709307253049.2,118461776356.24425,193202311967.24646,2191607273152.1638,40208520424437.87
19.37719578048196,1.2845238675716424e+16,1.4344139634775822e+16,727851352191457.5,726707979079066.6,122982140705.9949,200574725523.56036,2275236919146.8037,41742834003512.07
19.864739696091597,1.3005447438554494e+16,1.4524172883221032e+16,736929281189787.2,735771647665734.8,127649644703.88754,208187116415.69727,2361588771804.417,43327090278084.37
20.36203449001343,1.3166823151466644e+16,1.4705559881891354e+16,746073333224887.0,744901335417254.8,132468742363.56499,216046749045.33655,2450745235679.795,44962801055466.95
20.869275179813698,1.3329383849413064e+16,1.4888322361532344e+16,755284530213940.6,754098062645486.5,137444019787.43433,224161103254.80875,2542791159206.375,46651522977610.61
21.38666068340997,1.3493147537496432e+16,1.5072482068646074e+16,764563892382310.0,763362847973134.5,142580198963.28052,232537880519.83145,2637813904944.2505,48394858809767.92
21.91439389707817,1.3658132197645054e+16,1.5258060774337616e+16,773912438642225.4,772696708711816.6,147882141665.88272,241185010313.5295,2735903421771.1484,50194458764793.36
22.452681775019734,1.3824355794857718e+16,1.5445080282712804e+16,783331186946638.9,782100661215390.0,153354853465.99896,250110656645.60834,2837152319060.2793,52052021863881.95
23.00173541052013,1.3991836283010512e+16,1.5633562438827266e+16,792821154618254.4,791575721208447.9,159003487849.0643,259323224780.50128,2941655942888.2734,53969297334541.99
23.561770118730532,1.416059161021925e+16,1.5823529136181822e+16,802383358653377.4,801122904089696.9,164833350445.88632,268831368138.21927,3049512454315.661,55948086046575.125
24.133005521105144,1.433063972374497e+16,1.6015002323749682e+16,812018815999882.1,810743225209485.4,170849903377.55048,278643995381.5224,3160822909780.805,57990241986818.38
24.715665631527248,1.450199857442266e+16,1.620800401251559e+16,821728543808150.2,820437700120354.6,177058769716.65994,288770277692.8564,3275691343646.418,60097673773361.43
25.309978944157795,1.4674686120586144e+16,1.640255628149582e+16,831513559653469.1,830207344799074.5,183465738066.87738,299219656244.3028,3394224852935.4834,62272346209914.42
25.91617852304095,1.4848720331453536e+16,1.6598681283201968e+16,841374881727867.0,840053175838193.1,190076767262.6051,310001849863.5008,3516533684290.192,64516281880942.87
26.53450209350177,1.502411918992998e+16,1.679640124849886e+16,851313528998919.4,849976210604576.5,196897991190.4176,321126862898.20404,3642731323183.937,66831562788119.97
27.165192135371807,1.5200900694773996e+16,1.6995738490799478e+16,861330521332500.0,859977467361979.8,203935723733.62357,332604993281.7089,3772934585411.919,69220332028561.93
27.808495978079243,1.5379082862065556e+16,1.7196715409526376e+16,871426879575971.5,870057965354100.1,211196463841.04944,344446840800.9364,3907263710880.551,71684795515217.03
28.464665897640828,1.5558683725903246e+16,1.739935449276065e+16,881603625597686.0,880218724844022.4,218686900720.7947,356663315568.412,4045842459709.513,74227223739663.36
29.133959215593645,1.5739721338248292e+16,1.7603678318985768e+16,891861782278144.6,890460767105378.8,226413919159.32895,369265646698.71204,4188798210653.363,76849953577435.45
29.816638399905518,1.5922213767821634e+16,1.780970955782294e+16,902202373447507.5,900785114359974.0,234384604965.8249,382265391189.25696,4336262061840.9624,79555390135854.25
30.51297116790363,1.6106179097952032e+16,1.8017470969643244e+16,912626423763658.0,911192789656026.2,242606250541.16074,395674443004.49115,4488368933821.846,82346008644152.39
31.223230591261704,1.6291635423260236e+16,1.822698540392846e+16,923134958524312.8,921684816680577.0,251086360570.40082,409505042361.5263,4645257674898.0625,85224356385505.81
31.947695203086937,1.6478600845055834e+16,1.843827579624322e+16,933729003406203.5,932262219499085.8,259832657836.97614,423769785214.34845,4807071168708.19,88193054670354.97
32.686649107148675,1.6667093465313676e+16,1.8651365163668324e+16,944409584123749.2,942926022214638.2,268853089156.0475,438481632932.503,4973956444017.228,91254800850171.58
33.44038208929165,1.6857131379086996e+16,1.8866276598535716e+16,955177725999173.2,953677248538727.2,278155831423.79736,453653922168.9155,5146064786652.239,94412370370556.19
34.20918973107749,1.7048732665207138e+16,1.9083033260296236e+16,966034453435503.5,964516921265099.5,287749297778.536,469300374910.1873,5323551853507.396,97668618862280.45
34.993373525699035,1.7241915375111948e+16,1.930165836534294e+16,976980789283577.9,975446061637736.2,297642143868.6224,485435108701.1957,5506577788526.392,101026484268568.36
35.793240996213015,1.74366975196403e+16,1.9522175174606172e+16,988017754093753.9,986465688603753.5,307843274221.23517,502072647034.25165,5695307340551.578,104488989006596.02
36.60910581613728,1.7633097053624908e+16,1.9744606978731916e+16,999146365242913.5,997576817941765.6,318361848704.9954,519227929891.47015,5889909982910.6045,108059242160838.11
37.44128793246003,1.7831131858113872e+16,1.996897708065066e+16,1010367635927062.0,1008780461256073.6,329207289078.37866,536916324427.13214,6090560034591.339,111740441705515.89
38.29011369110923,1.8030819720050684e+16,2.0195308775344996e+16,1021682574009945.0,1020077624827095.6,340389285614.703,555153635775.0697,6297436782834.79,115535876753030.62
39.15591596493141,1.8232178309243856e+16,2.042362532662393e+16,1033092180718071.1,1031469308308420.6,351917803793.32135,573956117964.1515,6510724606954.181,119448929824854.25
40.03903428423004,1.843522515246144e+16,2.0653949940715588e+16,1044597449172820.0,1042956503261248.9,363803091045.412,593340484922.9406,6730613103165.468,123483079140944.86
40.93981496991464,1.863997760449148e+16,2.0886305736497972e+16,1056199362750656.4,1054540191517155.2,376055683541.5458,613323921552.597,6957297210192.149,127641900923329.2
41.85861126931294,1.884645281601864e+16,2.112071571219456e+16,1067898893262896.8,1066221343360734.1,388686413006.89734,633924094845.0479,7190977335383.194,131929071709065.05
42.7957834946992,1.905466769817729e+16,2.1357202708375716e+16,1079696998947195.6,1078000915524230.6,401706413548.7405,655159165021.2916,7431859481059.691,136348370667362.36
43.751699164593184,1.926463888365702e+16,2.1595789367118904e+16,1091594622263641.9,1089879848987109.6,415127128479.54285,677047796662.7148,7680155370781.811,140903681915207.16
44.72673314788505,1.9476382684249676e+16,2.183649808720079e+16,1103592687489262.4,1101859066574324.1,428960317117.739,699609169806.1268,7936082575204.611,145598996825404.9
