t(s),Total solute volume 1,Total retention volume 1,Total 1 volume 1,Total 2 volume 1,Total 3 volume 1,Total 4 volume 1,Total 5 volume 1,Total 6 volume 1
0.1,821307387244814.4,914309965951331.9,46537842289353.97,46464736417161.86,0.0,0.0,0.0,0.0
0.202,1237584319281608.0,1377729131504606.0,70125393763464.37,70015234587838.39,11604207.748646993,18925456.79736475,214682031.28667593,3938659998.0616045
0.30604000000000003,1554582914814126.2,1730630204137488.0,88087524504008.88,87949148843796.2,29443856.74436042,48020380.513259366,544722483.2571841,9993788837.869696
0.41216080000000005,1822709686882944.5,2029127152283623.8,103280425045834.22,103118183041925.84,52301439.50835728,85299120.9585512,967596776.4585824,17752115580.928944
0.5204040160000001,2060823546409095.5,2294214223073222.5,116772700200699.08,116589263342664.42,79636785.20394175,129880706.26890455,1473311508.5009665,27030291759.23903
0.6308120963200001,2278318738873394.0,2536349335944861.5,129096657266165.34,128893860850056.55,111160219.41876128,181292702.66340178,2056507579.5027924,37729994742.29989
0.7434283382464002,2480654821555312.5,2761610213666891.0,140561651813733.69,140340845173163.9,146706187.27538198,239265104.61045355,2714122155.6273866,49795031238.00841
0.8582969050113283,2671329086802771.0,2973890138650850.0,151365851353566.22,151128072523382.22,186181338.43614298,303645665.9503261,3444428217.907942,63193715910.514946
0.9754628431115548,2852738009498017.5,3175856939126653.0,161645047639185.38,161391121340679.78,229538951.08777216,374358187.6238628,4246561394.7472816,77910190229.77208
1.094972099973786,3026607171281236.5,3369431591690975.5,171497017517106.1,171227614875133.78,276764769.3918373,451379419.77893037,5120257948.683255,93939615357.45135
1.2168715419732616,3194227267304952.5,3556050949746416.0,180994895806846.97,180710573059667.06,327868494.25997216,534725183.96126467,6065697352.138034,111285283914.49585
1.3412089728127268,3356593295194981.5,3736822691878546.0,190195062182289.72,189896287002014.8,382878355.14427465,624441520.1748325,7083401863.272897,129956777520.53212
1.4680331522689813,3514491379195567.0,3912621976420875.5,199142060898989.1,198829230983696.1,441837486.46066886,720598777.1425654,8174169488.319925,149968736868.77316
1.597393815314361,3668555429457246.5,4084154515780649.5,207871811286427.72,207545267908948.06,504801422.5080193,823287526.7369738,9339027636.556036,171340011444.60538
1.729341691620648,3819305514791381.0,4251999293776529.0,216413782068165.75,216073820209265.8,571836318.0265627,932615661.8657773,10579200199.908821,194093055542.95544
1.863928525453061,3967174671623479.5,4416638409898379.5,224792510440889.94,224439386536145.03,643017657.6786311,1048706291.7475224,11896083677.828407,218253490237.0894
2.001207095962122,4112528135796219.5,4578478488523837.0,233028691808453.1,232662629783273.44,718429305.6676829,1171696191.923412,13291229594.859688,243849780798.0864
2.1412312378813647,4255677456448566.0,4737866390802137.0,241139979520023.06,240761175572124.06,798162798.7803688,1301734652.8166494,14766331735.225237,270913032243.77805
2.284055862638992,4396891061416897.5,4895100976089363.0,249141583531951.78,248750209958206.9,882316816.7437164,1438982609.7603168,16323215092.081366,299476667789.45654
2.4297369798917723,4536402304689218.0,5050442060789825.0,257046726411979.72,256642934742074.75,970996787.7580104,1583612008.900163,17963830445.126225,329576507301.83746
2.578331719489608,4674415691773317.0,5204117348389271.0,264866996081056.62,264450919641344.3,1064314594.0678258,1735805320.8528905,19690247664.832226,361250525975.8804
2.7298983538794,4811111761764641.0,5356327864320566.0,272612622448337.22,272184378495122.56,1162388357.53316,1895755192.5296707,21504652057.333057,394538816866.4589
2.884496320956988,4946650963647491.0,5507252271151617.0,280292697054517.22,279852388562308.5,1265342287.5252573,2063664199.068653,23409341550.44783,429483539261.1489
3.0421862473761276,5081176768465976.0,5657050333133181.0,287915349417162.1,287463066589901.5,1373306578.9833453,2239744677.575638,25406724807.70344,466128884078.3337
3.2030299723236504,5214818193365977.0,5805865726034436.0,295487890050808.5,295023711608436.2,1486417351.336085,2424218627.51165,27499320098.371822,504521053135.73175
3.3670905717701234,5347691867586216.0,5953828337071243.0,303016927532474.56,302540921813591.8,1604816621.1999087,2617317666.1676865,29689754792.39412,544708249883.55615
3.5344323832055258,5479903737835577.0,6101056163396104.0,310508465133664.9,310020691046403.75,1728652303.391758,2819283030.317996,31980765379.134163,586740679748.2258
3.7051210308696363,5611550486944766.0,6247656891403033.0,317967981205606.56,317468489052221.0,1858078236.006817,3030365617.1212816,34375197931.34525,630670558644.2712
3.879223451487029,5742720722457131.0,6393729219927580.0,325400496528515.75,324889328724172.9,1993254226.2281685,3250826058.8339667,36876008952.686035,676552128523.1226
4.0568079205167695,5873495979068573.0,6539363976223464.0,332810631112979.8,332287822815327.44,2134346114.2359846,3480934827.0423474,39486266560.08798,724441679065.2682
4.237944078927105,6003951569270166.0,6684645062958203.0,340202652400019.6,339668232063030.44,2281525853.125075,3720972363.0030556,42209151962.28334,774397574806.0436
4.422702960505647,6134157309310098.0,6829650266415189.0,347580516396365.7,347034506259567.7,2434971603.1621995,3971229231.370591,45047961203.62697,826480287128.6194
4.61115701971576,6264178142057528.0,6974451949927468.0,354947902967865.9,354390319490127.9,2594867839.047476,4232006295.133395,48006107148.49954,880752430670.884
4.803380160110075,6394074674078124.0,7119117651813230.0,362308246271868.6,361739100517384.6,2761405469.1086564,4503614910.011713,51087121686.47654,937278803782.6343
4.9994477633122765,6523903640904769.0,7263710603379440.0,369664761120909.75,369084059103759.44,2934781965.569661,4786377136.916458,54294658142.37471,996126432741.5497
5.199436718578522,6653718311876456.0,7408290179654290.0,377020465922149.4,376428208914831.9,3115201505.2058854,5080625971.348357,57632493878.460815,1057364619494.752
5.403425452950093,6783568843852890.0,7552912293209830.0,384378202719952.1,383774387530433.06,3302875119.8388834,5386705588.8442135,61104533078.69445,1121064992740.0068
5.611493962009095,6913502591469026.0,7697629739606271.0,391740654775868.25,391125273997008.0,3498020856.2377577,5704971605.76509,64714809707.00015,1187301562199.826
5.823723841249277,7043564380273588.0,7842492501521215.0,399110362045526.25,398483404280199.75,3700863945.0896564,6035791354.875178,68467490633.32241,1256150775973.7517
6.040198318074262,7173796748033506.0,7987548017442590.0,406489734851691.2,405851184916423.2,3911636978.780782,6379544175.290289,72366878922.68207,1327691580881.2312
6.261002284435747,7304240158621337.0,8132841419843311.0,413881066003787.44,413230905113357.7,4130580097.7961106,6736621716.482865,76417417283.68307,1402005485729.7861
6.486222330124463,7434933192198552.0,8278415746970822.0,421286541574292.5,420624747509404.1,4357941185.602144,7107428256.122045,80623691673.96129,1479176627462.5625
6.715946776726952,7565912714829256.0,8424312131740564.0,428708250509568.44,428034797769422.75,4593976071.925158,7492381031.606437,84990435060.95494,1559291840155.5056
6.950265712261491,7697214030181792.0,8570569970692176.0,436148193225751.6,435463053167120.7,4838948744.378615,7891910585.213665,89522531337.14027,1642440726848.3943
7.18927102650672,7828871015580129.0,8717227075526305.0,443608289317853.75,442911430282038.94,5093131568.42915,8306461122.849812,94225019389.53743,1728715734206.2268
7.433056447036854,7960916244338555.0,8864319809374446.0,451090384491621.0,450381771920527.06,5356805515.721895,8736490886.432116,99103097323.86746,1818212230017.922
7.681717575977592,8093381096037470.0,9011883209647412.0,458596256812109.2,457875853354498.1,5630260400.813085,9182472539.983837,104162126844.25423,1911028583548.6729
7.935351927497144,8226295856167274.0,9159951099051054.0,466127622349816.8,465395387958696.3,5913795126.382926,9644893569.559305,109407637789.81076,2007266248770.6519
8.194058966047088,8359689806372811.0,9308556186141188.0,473686140294217.56,472942032316195.0,6207717937.022496,10124256697.153595,114845332829.85896,2107029850504.0144
8.45794014536803,8493591306366001.0,9457730156606516.0,481273417595184.4,480517390852527.3,6512346681.709471,10621080308.782164,120481092319.89308,2210427273507.0215
8.72709894827539,8628027868434175.0,9607503756311844.0,488891013184867.56,488123020050936.4,6828009085.104297,11135898896.946955,126320979320.7308,2317569754560.0654
9.0016409272409,8763026225353016.0,9757906867002258.0,496540441825850.8,495760432294480.56,7155043027.815725,11669263517.730314,132371244783.60318,2428571977594.07
9.281673745785717,8898612392410498.0,9908968575455034.0,504223177625623.94,503431099374993.3,7493796835.799165,12221742262.784956,138638332904.212,2543552171918.891
9.567307220701432,9034811724161236.0,1.0060717236768182e+16,511940657252456.94,511136455703899.8,7844629579.066748,12793920746.509634,145128886649.0539,2662632213612.1025
9.85865336511546,9171648966455362.0,1.0213180532392164e+16,519694282883525.56,518877901255712.3,8207911379.899632,13386402608.72362,151849753457.55438,2785937730133.38
10.155826432417769,9309148304221092.0,1.0366385523437922e+16,527485424912420.6,526656804271284.25,8584023730.768104,13999810033.173147,158807991123.79077,2913598208233.63
10.458942961066125,9447333405424512.0,1.0520358699732532e+16,535315424440034.8,534474503744790.2,8973359822.174837,14634784282.222637,166010873861.81564,3045747105232.4556
10.768121820287448,9586227461580356.0,1.0675126025039432e+16,543185595570044.94,542332311715596.7,9376324880.650274,15291986248.103277,173465898558.7895,3182521963741.4756
11.083484256693197,9725853225146614.0,1.083071297881291e+16,551097227527802.25,550231515383826.8,9793336517.139374,15972097021.109198,181180791220.37396,3324064529914.606
11.405153941827061,9866233044097868.0,1.098714459481601e+16,559051586619359.6,558173379066307.25,10224825086.030228,16675818475.150656,189163513612.99942,3470520875310.559
11.733257020663602,1.0007388893940124e+16,1.1144445496893938e+16,567049918045541.4,566159146007790.4,10671234055.086155,17403873871.089443,197422270107.86383,3622041522456.159
12.067922161076874,1.0149342407402168e+16,1.1302639932165014e+16,575093447584342.9,574190040060710.2,11133020386.553015,18157008478.301083,205965514731.6763,3778781574202.7544
12.409280604298411,1.0292114902012936e+16,1.1461751801862356e+16,583183383153542.4,582267267245346.9,11610654929.724276,18935990214.924114,214801958429.3843,3940900846971.729
12.75746621638438,1.0435727405752838e+16,1.1621804690035768e+16,591320916264212.2,590392017201034.5,12104622825.256872,19741610307.274036,223940576544.29608,4108564007988.378
13.112615540712067,1.0580200680948186e+16,1.1782821890301766e+16,599507223374614.0,598565464537955.1,12615423921.540726,20574683968.916367,233390616521.21017,4281940716607.1304
13.474867851526309,1.0725555246559278e+16,1.1944826430810494e+16,607743467153147.6,606788770098085.9,13143573203.435736,21436051099.910988,243161605838.35376,4461205769834.4375
13.844365208556836,1.087181139900013e+16,1.210784109758175e+16,616030797658032.5,615063082133028.9,13689601233.700075,22326577006.75445,253263360174.1166,4646539252159.419
14.221252512727972,1.1018989231611316e+16,1.22718884563471e+16,624370353440717.8,623389537405702.1,14254054607.443504,23247153143.56703,263705991814.7691,4838126689805.337
14.605677562982532,1.1167108652898212e+16,1.2436990873021756e+16,632763262579316.2,631769262222127.8,14837496419.951004,24198697875.084293,274499918309.53088,5036159209519.244
14.997791114242183,1.1316189403634744e+16,1.2603170532918966e+16,641210643647744.6,640203373399074.0,15440506748.23081,25182157262.034424,285655871379.56146,5240833702019.795
15.397746936527026,1.1466251072923224e+16,1.2770449458806936e+16,649713606625741.5,648692979172618.8,16063683146.652435,26198505869.495247,297184906087.6292,5452352990227.483
15.805701875257567,1.1617313113293204e+16,1.2938849527901364e+16,658273253754392.5,657239180052354.5,16707641157.05095,27248747598.843964,309098410275.40765,5670926002404.674
16.221815912762718,1.1769394854913106e+16,1.310839248787597e+16,666890680341439.2,665843069625411.1,17373014833.68244,28333916543.930725,321408114275.5457,5896767950336.535
16.64625223101797,1.19225155189835e+16,1.327909997196651e+16,675566975520144.6,674505735314144.8,18060457283.428413,29455077872.121014,334126100905.84717,6130100512687.207
17.079177275638333,1.2076694230371274e+16,1.3450993513236756e+16,684303222965215.8,683228259090934.2,18770641221.65511,30613328730.871643,347264815753.08405,6371152023669.508
17.5207608211511,1.2231950029541932e+16,1.3624094558067698e+16,693100501568909.8,692011718153213.1,19504259544.14558,31809799180.51985,360837077754.1569,6620157667169.609
17.97117603757412,1.2388301883838424e+16,1.3798424478925752e+16,701959886080133.2,700857185561572.2,20262025915.53012,33045653153.98209,374856090082.5154,6877359676471.155
18.430599558325603,1.2545768698151534e+16,1.3974004586459884e+16,710882447709053.4,709765730843432.6,21044675374.652863,34322089444.073986,389335451347.87897,7143007539727.435
18.899211549492115,1.2704369325021508e+16,1.4150856140971666e+16,719869254699499.5,718738420564521.8,21852964957.319317,35640342719.17863,404289167117.5402,7417358211332.457
19.37719578048196,1.2864122574206204e+16,1.4329000363297516e+16,728921372871107.0,727776318870193.6,22687674336.879032,37001684568.00348,419731661767.6247,7700676329344.846
19.864739696091597,1.3025047221745108e+16,1.4508458445137114e+16,738039866132933.2,736880487998217.1,23549606483.104958,38407424574.17833,435677790672.85333,7993234439121.338
20.36203449001343,1.3187162018546078e+16,1.4689251558856416e+16,747225796969989.1,746051988764554.1,24439588339.837585,39858911421.458626,452142852743.4599,8295313223318.528
20.869275179813698,1.3350485698514472e+16,1.4871400866788896e+16,756480226903877.2,755291881023269.6,25358471521.866276,41357534030.30393,469142603318.0322,8607201738423.2705
21.38666068340997,1.3515036986241536e+16,1.5054927530052636e+16,765804216928433.8,764601224101493.5,26307133031.52583,42904722726.61074,486693267421.06244,8929197657973.557
21.91439389707817,1.3680834604262542e+16,1.523985271689601e+16,775198827920987.9,773981077210023.1,27286475995.483574,44501950443.37765,504811553394.0664,9261607522631.363
22.452681775019734,1.384789727988953e+16,1.5426197610577568e+16,784665121029546.6,783432499829914.2,28297430422.194954,46150733956.07776,523514666909.0723,9604746997269.514
23.00173541052013,1.4016243751619496e+16,1.5613983416780086e+16,794204158035877.8,792956552074983.9,29340953980.498833,47852635152.51163,542820325373.19727,9958941135232.209
23.561770118730532,1.418589277511007e+16,1.5803231370551888e+16,803817001694135.0,802554295029906.5,30418032799.815372,49609262337.893135,562746772732.901,10324524649926.379
24.133005521105144,1.4356863128710318e+16,1.599396274276013e+16,813504716044235.1,812226791063097.4,31529682292.399097,51422271575.90556,583312794686.2561,10701842193897.256
24.715665631527248,1.4529173618525644e+16,1.6186198846033658e+16,823268366698852.9,821975104113258.5,32676947998.0798,53293368066.437935,604537734311.2744,11091248645534.816
25.309978944157795,1.4702843082988624e+16,1.637996104016471e+16,833109021102422.2,831800299947967.9,33860906451.903854,55224307560.66871,626441508117.8701,11493109403551.13
25.91617852304095,1.4877890396899292e+16,1.6575270736927388e+16,843027748760067.6,841703446392260.5,35082666075.05647,57216897814.12198,649044622530.5765,11907800689357.424
26.53450209350177,1.5054334474889096e+16,1.6772149404264024e+16,853025621433889.0,851685613524594.4,36343368089.41251,59273000078.26226,672368190808.365,12335709857458.932
27.165192135371807,1.5232194274254236e+16,1.6970618569777302e+16,863103713303498.5,861747873837141.4,37644187456.01574,61394530631.11477,696433950407.167,12777235713968.965
27.808495978079243,1.5411488797092894e+16,1.717069982345702e+16,873263101087132.9,871891302356705.0,38986333837.73739,63583462347.3236,721264280789.7311,13232788843327.361
28.464665897640828,1.5592237091672178e+16,1.737241481955721e+16,883504864119101.5,882116976722050.9,40371052586.29926,65841826307.94769,746882221686.2115,13702791943285.846
29.133959215593645,1.5774458252938684e+16,1.7575785277529362e+16,893830084378709.1,892425977212778.9,41799625753.777336,68171713450.18503,773311491807.6919,14187680168199.828
29.816638399905518,1.595817142207588e+16,1.7780832981903408e+16,904239846465197.5,902819386724311.4,43273373128.61566,70575276257.07376,800576508013.1332,14687901480636.42
30.51297116790363,1.6143395785002088e+16,1.798757978099759e+16,914735237512614.2,913298290682886.4,44793653296.09034,73054730487.07056,828702404928.6688,15203917011277.898
31.223230591261704,1.6330150569689638e+16,1.8196047584325216e+16,925317347037922.5,923863776893907.4,46361864723.050446,75612356943.22658,857715055016.0397,15736201427062.37
31.947695203086937,1.6518455042177098e+16,1.840625835855512e+16,935987266715025.2,934516935316335.9,47979446866.65024,78250503281.49326,887641089084.8784,16285243307463.996
32.686649107148675,1.6708328501135342e+16,1.8618234121870676e+16,946746090066888.9,945258857755277.4,49647881306.65117,80971585857.47104,918507917241.0441,16851545528769.686
33.44038208929165,1.68997902708397e+16,1.8831996936562284e+16,957594912067290.0,956090637464363.4,51368692900.73001,83778091610.6823,950343750260.5966,17435625656161.326
34.20918973107749,1.7092859692389874e+16,1.9047568899677924e+16,968534828643329.0,967013368649053.4,53143450962.070404,86672579985.19078,983177621376.0095,18038016343357.59
34.993373525699035,1.7287556113014144e+16,1.9264972131548364e+16,979566936069376.4,978028145861520.8,54973770458.346375,89657684885.11069,1017039408458.177,18659265739513.188
35.793240996213015,1.7483898873286898e+16,1.9484228761996656e+16,990692330242757.1,989136063277481.8,56861313231.02408,92736116663.25818,1051959856574.2911,19299937903010.6
36.60910581613728,1.7681907292083322e+16,1.9705360914035636e+16,1001912105831255.8,1000338213845042.0,58807789233.71226,95910664140.87341,1087970600898.1754,19960613221714.04
37.44128793246003,1.788160064909368e+16,1.9928390684855044e+16,1013227355282316.8,1011635688295437.1,60814957788.08992,99184196656.0104,1125104189945.7864,20641888839185.37
38.29011369110923,1.8082998164717172e+16,2.015334012389688e+16,1024639167683758.6,1023029574005560.0,62884628855.71906,102559666137.84364,1163394109104.6414,21344379086288.656
39.15591596493141,1.828611897715767e+16,2.038023120782126e+16,1036148627465955.9,1034520953702165.2,65018664323.83355,106040109203.76683,1202874804421.7915,22068715917534.3
40.03903428423004,1.8490982116546016e+16,2.060908581216608e+16,1047756812935529.6,1046110903997865.8,67218979302.95539,109628649275.78848,1243581706610.65,22815549351434.58
40.93981496991464,1.8697606475920644e+16,2.083992567951247e+16,1059464794630999.8,1057800493749373.8,69487543433.95555,113328498712.3351,1285551255232.563,23585547914061.36
41.85861126931294,1.890601077890505e+16,2.107277238397637e+16,1071273633491320.1,1069590782228903.0,71826382201.93402,117142960951.1794,1328820923004.5862,24379399084914.754
42.7957834946992,1.9116213543933724e+16,2.1307647291858012e+16,1083184378828780.9,1081482817100267.6,74237578254.04414,121075432658.80876,1373429240180.2366,25197809744128.08
43.751699164593184,1.93282330448895e+16,2.154457151829762e+16,1095198066098616.4,1093477632191978.9,76723272718.14471,125129405881.1451,1419415818945.5725,26041506619949.656
44.72673314788505,1.95420872680331e+16,2.1783565879802016e+16,1107315714458479.4,1105576245060569.8,79285666518.911,129308470190.12836,1466821377768.376,26911236735360.582
