t(s),Total solute volume 1,Total retention volume 1,Total 1 volume 1,Total 2 volume 1,Total 3 volume 1,Total 4 volume 1,Total 5 volume 1,Total 6 volume 1
0.1,1117071271046687.6,1512117690109863.2,171218609237430.47,223827809825744.56,0.0,0.0,0.0,0.0
0.202,1562877848287234.8,2400386123751506.0,239549418835852.78,313154180054412.25,190016151667.85022,469140907177.6698,9908072623318.63,274237446891837.9
0.30604000000000003,1837708892447458.8,3164269028551051.0,281674027372890.5,368222139432565.75,451309919942.94104,1114286219957.3555,23534132304614.6,651564240853618.2
0.41216080000000005,2029589951638885.0,3879688219707307.0,311084513109371.8,406669391291846.8,755116906920.2437,1864425665399.4434,39378021468589.85,1090346799626294.2
0.5204040160000001,2172543489407726.0,4573336175601642.0,332995654343621.6,435313024589634.25,1088537438513.0085,2687715735975.653,56767118481319.13,1571940635604854.5
0.6308120963200001,2283573872489872.0,5257750342640790.0,350013787969886.4,457560208148197.2,1444588083273.0396,3566918725390.7866,75337321900277.67,2086253645323891.0
0.7434283382464002,2372412466189765.5,5939857575356365.0,363630484757547.25,475360817826168.2,1819107015141.5154,4491762818305.274,94871666858216.5,2627271269891223.5
0.8582969050113283,2445122718668662.0,6623919541528502.0,374775117076620.44,489929788096350.6,2209464963594.245,5455759768996.629,115233106411123.86,3191193586543148.0
0.9754628431115548,2505713279672407.5,7312774033863964.0,384062108967217.6,502070333011843.75,2613937269597.7817,6454654684886.532,136331767571807.19,3775527952686200.0
1.094972099973786,2556954033252817.0,8008432439468740.0,391916013198673.4,512337454865978.75,3031365908712.987,7485591662088.201,158107327749965.28,4378600652830498.5
1.2168715419732616,2600826124795708.5,8712396047561337.0,398640488965709.4,521128116208668.8,3460964321091.6885,8546631971997.319,180518837795274.66,4999274883502891.0
1.3412089728127268,2638786662803763.0,9425836015743316.0,404458873938587.44,528734278201830.2,3902198566352.7036,9636460672673.527,203538524954129.28,5636779016605976.0
1.4680331522689813,2671932434918924.0,1.014970173193314e+16,409539277764923.44,535375704435375.4,4354711860215.784,10754200317573.506,227147857945347.8,6290597544690788.0
1.597393815314361,2701105345762002.5,1.0884789125523072e+16,414010743008507.44,541221087530748.25,4818274992784.253,11899288558826.451,251334961627860.72,6960399424042345.0
1.729341691620648,2726962630085222.5,1.1631785400943614e+16,417974007039595.0,546402117766028.0,5292752809298.607,13071395404332.207,276092869248427.78,7645989628590706.0
1.863928525453061,2750024945430158.0,1.2391299289394502e+16,421508873416052.3,551023119412603.2,5778080993460.859,14270365909170.203,301418311924077.8,8347275592308964.0
2.001207095962122,2770710118499641.5,1.3163882080928516e+16,424679384343783.9,555167812503313.44,6274249647070.196,15496179645398.992,327310862527599.75,9064243473761716.0
2.1412312378813647,2789357326778919.0,1.3950042603987052e+16,427537527104158.56,558904158109327.7,6781291463289.188,16748921512484.7,353772319118235.75,9796941059900620.0
2.284055862638992,2806244748604844.5,1.4750258124382348e+16,430125939360664.94,562287894888507.75,7299273071623.645,18028760378074.32,380806253772026.5,1.0545465254306612e+16
2.4297369798917723,2821602658139518.0,1.5564982428379954e+16,432479916285281.0,565365162928235.1,7828288614596.946,19335933228494.555,408417677794502.4,1.1309952791389324e+16
2.578331719489608,2835623283818504.5,1.6394651922209504e+16,434628921607826.25,568174479084927.5,8368454921454.2705,20670733262187.43,436612790221052.2,1.209057325929355e+16
2.7298983538794,2848468328499701.5,1.7239690308522786e+16,436597740263501.9,570748243797973.4,8919907842265.56,22033500848181.645,465398786836709.56,1.2887523800434446e+16
2.884496320956988,2860274774716426.5,1.8100512225086964e+16,438407368190523.25,573113904289624.8,9482799436917.262,23424616595396.727,494783713784460.9,1.3701025048073634e+16
3.0421862473761276,2871159415025906.5,1.8977526115473524e+16,440075706717310.6,575294862311946.8,10057295801931.25,24844495996933.387,524776354443374.44,1.4531317985176126e+16
3.2030299723236504,2881222422751429.5,1.98711365237859e+16,441618109866441.25,577311189617260.4,10643575378728.676,26293585263300.477,555386141422017.06,1.5378661499486692e+16
3.3670905717701234,2890550192211254.5,2.078174595222688e+16,443047819689488.2,579180197055439.6,11241827629226.744,27772358062885.324,586623087716876.8,1.624333046986174e+16
3.5344323832055258,2899217617013683.5,2.1709756383220596e+16,444376315471715.44,580916891076434.5,11852251994520.926,29281312961699.29,618497732642841.8,1.7125614262059668e+16
3.7051210308696363,2907289931921659.0,2.2655570541576364e+16,445613596043064.9,582534342785097.1,12475057073778.307,30820971407196.16,651021099257347.4,1.802581554308825e+16
3.879223451487029,2914824212730484.0,2.3619592953379124e+16,446768409671264.9,584043988472034.4,13110459975946.223,32391876139174.574,684204660806959.0,1.8944249345583204e+16
4.0568079205167695,2921870605940174.5,2.4602230844627668e+16,447848442539319.0,585455876003325.8,13758685808216.96,33994589938761.035,718060314316375.1,1.9881242330081476e+16
4.237944078927105,2928473343286308.5,2.5603894912609012e+16,448860474247288.44,586778868102326.1,14419967273574.953,35629694647174.09,752600359877102.0,2.0837132205175204e+16
4.422702960505647,2934671583734981.0,2.6624999995533156e+16,449810506868691.94,588020811060372.9,15094544356017.557,37297790401437.13,787837484519802.5,2.1812267274591868e+16
4.61115701971576,2940500116173927.0,2.7665965660358052e+16,450703872655192.9,589188675535175.6,15782664076762.004,38999495045861.89,823784749800508.2,2.280700608707059e+16
4.803380160110075,2945989948917250.0,2.8727216724487944e+16,451545324392672.5,590288674670022.0,16484580308338.922,40735443686985.055,860455582418061.9,2.3821717170094616e+16
4.9994477633122765,2951168806695294.0,2.980918372378778e+16,452339111577137.9,591326363675738.6,17200553636221.768,42506288366427.68,897863767323457.5,2.4856778832513524e+16
5.199436718578522,2956061551600322.0,3.0912303336852024e+16,453089044934989.75,592306724175691.0,17930851259762.938,44312697831382.484,936023442892458.5,2.591257902415738e+16
5.403425452950093,2960690541194256.0,3.2037018773526188e+16,453798551311827.25,593234235959908.2,18675746925855.34,46155357386506.125,974949097818806.2,2.6989515242929024e+16
5.611493962009095,2965075934430243.5,3.3183780134156404e+16,454470720562448.2,594112938282658.5,19435520890027.938,48034968814179.305,1014655569452619.9,2.808799448172421e+16
5.823723841249277,2969235954027850.5,3.4353044744844956e+16,455108345766283.44,594946482434625.4,20210459900699.746,49952250352601.8,1055158043361571.1,2.920843320900137e+16
6.040198318074262,2973187112346980.0,3.5545277473038216e+16,455713957848136.6,595738177001326.1,21000857203119.18,51907936723178.67,1096472053934354.2,3.0351257377981096e+16
6.261002284435747,2976944406534766.5,3.676095102701499e+16,456289855489226.25,596491026964734.5,21807012560157.496,53902779200232.14,1138613485879360.5,3.1516902460386516e+16
6.486222330124463,2980521487700184.0,3.800054624223429e+16,456838131057359.25,597207767600836.4,22629232287636.543,55937545717343.695,1181598576498292.0,3.2705813501372636e+16
6.715946776726952,2983930808050243.5,3.9264552357008696e+16,457360693159165.56,597890893961346.8,23467829302284.332,58013021005647.52,1225443918635880.0,3.3918445192894136e+16
6.950265712261491,2987183749256208.5,4.055346727957198e+16,457859286315371.06,598542686594477.9,24323123180744.605,60130006760222.7,1270166464224423.8,3.5155261963240596e+16
7.18927102650672,2990290734776863.0,4.186779784828347e+16,458335508177100.06,599165234051180.1,25195440228339.234,62289321831402.78,1315783528355953.5,3.641673808086257e+16
7.433056447036854,2993261328423218.5,4.320806008644378e+16,458790824633339.7,599760452634573.2,26085113556501.535,64491802438367.03,1362312793826386.0,3.770335777093149e+16
7.681717575977592,2996104321085521.0,4.457477945298108e+16,459226583103979.44,600330103777458.4,26992483167981.742,66738302402827.7,1409772316105574.8,3.9015615343337704e+16
7.935351927497144,2998827807243455.5,4.5968491090079944e+16,459644024266886.8,600875809372690.4,27917896049073.863,69029693400997.22,1458180528694916.5,4.035401533105182e+16
8.194058966047088,3001439252632473.0,4.7389740068680424e+16,460044292429422.6,601399065331483.0,28861706268237.33,71366865232325.45,1507556248840707.8,4.1719072637945816e+16
8.45794014536803,3003945554232463.0,4.88390816326451e+16,460428444723192.1,601901253603367.1,29824275080588.01,73750726103751.17,1557918683576742.5,4.311131269532501e+16
8.72709894827539,3006353093573202.0,5.031708144228963e+16,460797459274405.25,602383652857010.2,30805971037819.875,76182202928421.75,1609287436074135.5,4.453127162654466e+16
9.0016409272409,3008667784206654.0,5.182431581788354e+16,461152242480177.56,602847447992258.2,31807170103188.027,78662241638015.6,1661682512280162.5,4.597949641918305e+16
9.281673745785717,3010895114075241.5,5.336137198365449e+16,461493635502503.3,603293738629458.9,32828255771245.242,81191807507949.56,1715124327830968.5,4.74565451043371e+16
9.567307220701432,3013040183403033.0,5.492884831276692e+16,461822420076017.6,603723546701751.9,33869619192072.133,83771885494875.0,1769633715225687.8,4.896298694267342e+16
9.85865336511546,3015107738650699.0,5.652735457369185e+16,462139323712424.1,604137823258610.1,34931659299785.535,86403480585980.08,1825231931251805.8,5.04994026169325e+16
10.155826432417769,3017102203001736.0,5.81575121783427e+16,462445024373254.7,604537454574392.0,36014782945144.15,89087618159698.58,1881940664653415.0,5.206638443063492e+16
10.458942961066125,3019027703785297.0,5.9819954432309864e+16,462740154673097.44,604923267643037.8,37119405032100.92,91825344357510.25,1939782044035734.8,5.366453651278316e+16
10.768121820287448,3020888097187925.0,6.151532678749945e+16,463025305667275.25,605296035129590.4,38245948658178.68,94617726466572.84,1998778646000595.5,5.529447502838931e+16
11.083484256693197,3022686990560959.0,6.3244287097446536e+16,463301030271000.8,605656479839909.5,39394845258565.69,97465853312995.08,2058953503508840.0,5.69568283946943e+16
11.405153941827061,3024427762591552.0,6.500750587555876e+16,463567846351086.0,606005278762366.6,40566534753848.39,100370835665599.06,2120330114466553.8,5.865223750296778e+16
11.733257020663602,3026113581571759.5,6.680566655651621e+16,463826239526119.44,606343066728411.0,41761465701314.7,103333806650066.69,2182932450533025.8,6.038135594580562e+16
12.067922161076874,3027747421971155.0,6.86394657610437e+16,464076665706640.3,606670439733240.1,42980095449772.53,106355922173403.12,2246784966149063.8,6.2144850249860456e+16
12.409280604298411,3029332079493832.0,7.050961356425074e+16,464319553402979.44,606987957952762.9,44222890297845.27,109438361358677.27,2311912607784962.5,6.39434001139597e+16
12.75746621638438,3030870184778595.5,7.241683376772603e+16,464555305825162.4,607296148488717.9,45490325655711.32,112582326990032.69,2378340823408079.0,6.577769865257984e+16
13.112615540712067,3032364215882916.5,7.436186417555818e+16,464784302796374.6,607595507870086.2,46782886210265.86,115789045967985.1,2446095572170398.0,6.7648452644660344e+16
13.474867851526309,3033816509674562.0,7.634545687444818e+16,465006902499010.7,607886504335633.1,48101066093691.98,119059769775042.03,2515203334317087.0,6.955638278775309e+16
13.844365208556836,3035229272240801.5,7.836837851806584e+16,465223443070141.75,608169579919605.5,49445369055433.51,122395774951706.55,2585691121317300.5,7.150222395751069e+16
14.221252512727972,3036604588412621.5,8.043141061580338e+16,465434244061332.2,608445152360093.2,50816308637566.4,125798363582935.73,2657586486218971.0,7.348672547253013e+16
14.605677562982532,3037944430490549.0,8.253534982606488e+16,465639607776094.4,608713616847440.2,52214408353575.945,129268863795146.97,2730917534229615.5,7.551065136457253e+16
14.997791114242183,3039250666249234.0,8.468100825422483e+16,465839820496777.4,608975347628106.2,53640201870543.92,132808630263876.4,2805712933525530.0,7.757478065419082e+16
15.397746936527026,3040525066289435.0,8.686921375539579e+16,466035153611445.9,609230699477798.9,55094233194761.266,136419044732208.23,2882001926291932.0,7.967990763179826e+16
15.805701875257567,3041769310798847.0,8.910081024212573e+16,466225864650143.1,609480009056139.8,56577056860778.89,140101516540104.25,2959814339997051.5,8.182684214422254e+16
16.221815912762718,3042984995776714.0,9.137665799715142e+16,466412198238957.5,609723596153880.8,58089238123917.375,143857483164771.22,3039180598903128.5,8.401640988678994e+16
16.64625223101797,3044173638771272.0,9.369763399133104e+16,466594386979441.56,609961764842541.5,59631353156255.14,147688410772222.78,3120131735817748.0,8.624945270099158e+16
17.079177275638333,3045336684174318.5,9.606463220687077e+16,466772652260122.4,610194804535256.2,61203989246118.6,151595794780189.72,3202699404089091.5,8.852682887778576e+16
17.5207608211511,3046475508112459.0,9.84785639659654e+16,466947205006207.44,610422990966848.1,62807745001099.71,155581160432549.34,3286915889848642.0,9.08494134665977e+16
17.97117603757412,3047591422970604.5,1.009403582649642e+17,467118246372928.25,610646587100204.6,64443230554626.95,159646063385453.25,3372814124505490.0,9.321809859007496e+16
18.430599558325603,3048685681580049.0,1.0345096211417733e+17,467285968387457.1,610865843965437.5,66111067776119.76,163792090305334.34,3460427697496106.0,9.563379376466682e+16
18.899211549492115,3049759481099879.0,1.0601134088343206e+17,467450554543836.1,611081001437606.0,67811890484753.08,168020859478985.03,3549790869293951.5,9.809742622709294e+16
19.37719578048196,3050813966618082.5,1.0862247865348914e+17,467612180354928.56,611292288958270.0,69546344666864.94,172334021435909.22,3640938584683278.0,1.0060994126677174e+17
19.864739696091597,3051850234495849.5,1.112853785734303e+17,467771013865022.7,611499926205588.8,71315088697036.88,176733259583152.62,3733906486301618.0,1.0317230256428206e+17
20.36203449001343,3052869335476659.0,1.1400106322412163e+17,467927216126369.0,611704123717291.1,73118793562879.06,181220290852817.38,3828730928455775.0,1.0578549253592984e+17
20.869275179813698,3053872277579430.5,1.167705749878617e+17,468080941642631.9,611905083470372.2,74958143093554.28,185796866362493.34,3925448991215970.0,1.0845051268449731e+17
21.38666068340997,3054860028793513.0,1.195949764243222e+17,468232338781960.2,612102999421096.1,76833834192069.66,190464772088813.5,4024098494793346.5,1.1116838395625149e+17
21.91439389707817,3055833519591403.5,1.2247535065288454e+17,468381550162121.2,612298058008462.2,78746577071373.94,195225829554381.1,4124718014205699.0,1.1394014710429112e+17
22.452681775019734,3056793645273874.0,1.2541280174147954e+17,468528713009953.3,612490438624104.9,80697095494288.88,200081896528292.72,4227346894236876.0,1.1676686305831214e+17
23.00173541052013,3057741268160702.0,1.2840845510203458e+17,468673959497147.0,612680314051247.9,82686127017310.77,205034867740509.16,4332025264695096.0,1.196496133008727e+17
23.561770118730532,3058677219639168.0,1.3146345789263373e+17,468817417054229.0,612867850875167.5,84714423238313.4,210086675610313.3,4438794055975784.0,1.2258950025024091e+17
24.133005521105144,3059602302081374.5,1.3457897942649251e+17,468959208664433.25,613053209867350.2,86782750048185.36,215239290989120.06,4547695014934463.0,1.2558764764990738e+17
24.715665631527248,3060517290640308.5,1.3775621158785358e+17,469099453138999.9,613236546345393.0,88891887886433.2,220494723917885.75,4658770721075611.0,1.2864520096484888e+17
25.309978944157795,3061422934934171.5,1.4099636925490709e+17,469238265375333.2,613418010510477.2,91042632000784.2,225855024399398.28,4772064603063217.0,1.3176332778462362e+17
25.91617852304095,3062319960627132.5,1.443006907298356e+17,469375756599294.6,613597747764107.5,93235792710816.22,231322283185698.25,4887620955559227.0,1.3494321823338933e+17
26.53450209350177,3063209070914425.5,1.476704381760899e+17,469512034592827.3,613775899005682.8,95472195675648.88,236898632580928.88,5005484956395968.0,1.3818608538692424e+17
27.165192135371807,3064090947918802.0,1.511068980629953e+17,469647203908003.3,613952600912304.8,97752682165722.05,242586247259884.0,5125702684088747.0,1.4149316569674154e+17
27.808495978079243,3064966254004930.5,1.5461138161779232e+17,469781366068477.6,614127986202143.1,100078109338693.19,248387345102544.47,5248321135695256.0,1.4486571942138003e+17
28.464665897640828,3065835633017616.0,1.5818522528521277e+17,469914619759284.94,614302183882538.0,102449350519477.66,254304188044897.25,5373388245028210.0,1.4830503106496086e+17
29.133959215593645,3066699711449487.0,1.618297911946919e+17,470047061005810.5,614475319483966.9,104867295484462.81,260339082946339.47,5500952901227844.0,1.518124098230939e+17
29.816638399905518,3067559099543118.0,1.655464676353151e+17,470178783342720.2,614647515280882.0,107332850749916.39,266494382473966.56,5631064967701285.0,1.5538919003622323e+17
30.51297116790363,3068414392332268.5,1.6933666953860493e+17,470309877973555.56,614818890500342.2,109846939864614.73,272772486004055.4,5763775301435503.0,1.5903673165049434e+17
31.223230591261704,3069266170626628.5,1.7320183896923952e+17,470440433921671.4,614989561519326.4,112410503706714.88,279175840541067.8,5899135772691217.0,1.6275642068623277e+17
31.947695203086937,3070115001943953.5,1.7714344562381098e+17,470570538173103.3,615159642051499.1,115024500784886.52,285706941654480.94,6037199285084763.0,1.6654966971411843e+17
32.686649107148675,3070961441393290.0,1.8116298733770992e+17,470700275811952.6,615329243324198.1,117689907543728.5,292368334433785.94,6178019796065367.0,1.7041791833913718e+17
33.44038208929165,3071806032512733.5,1.8526199060024253e+17,470829730148781.56,615498474246278.2,120407718673479.66,299162614461980.4,6321652337795391.0,1.7436263369240368e+17
34.20918973107749,3072649308064783.5,1.89442011078074e+17,470958982842533.94,615667441567494.0,123178947424045.48,306092428807898.1,6468153038441150.0,1.7838531093092634e+17
34.993373525699035,3073491790792295.5,1.9370463414708685e+17,471088114016390.56,615836250029950.9,126004625923349.0,313160477037718.06,6617579143881984.0,1.824874737454048e+17
35.793240996213015,3074333994137613.0,1.9805147543275683e+17,471217202368009.2,616005002512220.0,128885805500016.92,320369512246004.94,6769989039845900.0,1.866706748761471e+17
36.60910581613728,3075176422927571.5,2.024841813591345e+17,471346325274498.0,616173800166569.0,131823557010411.11,327722342106642.9,6925442274479346.0,1.9093649663716976e+17
37.44128793246003,3076019574026414.5,2.0700442970652208e+17,471475558892511.25,616342742549805.2,134818971170007.02,335221829944019.0,7083999581359776.0,1.952865514485798e+17
38.29011369110923,3076863936959072.0,2.1161393017793837e+17,471604978253771.06,616511927748161.6,137873158889124.47,342870895824825.25,7245722902959289.0,1.997224823773037e+17
39.15591596493141,3077709994506679.5,2.1631442497445526e+17,471734657356343.1,616681452496601.1,140987251613010.62,350672517670865.94,7410675414567682.0,2.0424596368624384e+17
40.03903428423004,3078558223276072.5,2.2110768937949978e+17,471864669251936.8,616851412292954.8,144162401666266.38,358629732393236.8,7578921548683905.0,2.0885870139193587e+17
40.93981496991464,3079409094245349.0,2.2599553235219635e+17,471995086129512.25,617021901507208.9,147399782601618.16,366745637048274.7,7750527019884654.0,2.1356243383077962e+17
41.85861126931294,3080263073286670.0,2.3097979712983526e+17,472125979395424.6,617193013486285.1,150700589553017.1,375023390015666.25,7925558850178946.0,2.183589322339192e+17
42.7957834946992,3081120621668264.5,2.3606236183955088e+17,472257419750360.44,617364840654602.5,154066039593053.56,383466212199120.44,8104085394858107.0,2.2325000131082704e+17
