t(s),Total solute volume 1,Total retention volume 1,Total 1 volume 1,Total 2 volume 1,Total 3 volume 1,Total 4 volume 1,Total 5 volume 1,Total 6 volume 1
0.1,1384269013029218.2,1.039366397781807e+16,2531887414418598.5,6477507550370256.0,0.0,0.0,0.0,0.013903653951609765
0.202,2001048542057952.5,1.5025468104810816e+16,3660007285490910.0,9363725124971932.0,481484025.70892656,3287617972.7014318,114256158176.69125,569127029841.51
0.30604000000000003,2489351668990684.0,1.8693095699762516e+16,4553136040522187.0,1.1648705846301256e+16,1209990774.7784781,8272048721.473758,303831266342.1768,1588830642548.3972
0.41216080000000005,2906723914699472.5,2.18285840469952e+16,5316528839689301.0,1.360176765587066e+16,2140589705.4655719,14641144461.305225,552664568442.8771,2994190433147.649
0.5204040160000001,3278937974480008.5,2.46254085684079e+16,5997325219314622.0,1.5343514178851702e+16,3252028669.050079,22248917770.826893,853438668076.0173,4752256147063.553
0.6308120963200001,3619661235491080.0,2.7186169324292736e+16,6620523480397995.0,1.6937901534256504e+16,4532776559.6337595,31016241200.434383,1202324975656.1409,6845200153734.286
0.7434283382464002,3937046244843109.5,2.957206754968994e+16,7201035012121905.0,1.842307916440265e+16,5976220333.033662,40897749764.58152,1597161648701.1196,9263092703481.174
0.8582969050113283,4236385885758704.5,3.182283828490945e+16,7748540742491510.0,1.9823814803239516e+16,7578625664.362361,51867825160.39004,2036720090093.8894,12000686878789.568
0.9754628431115548,4521336504961349.0,3.3965932311410132e+16,8269728297623037.0,2.1157218087583976e+16,9338123115.31822,63913635688.154625,2520357851014.8433,15055811631954.715
1.094972099973786,4794545134676825.0,3.6021224572556204e+16,8769439220582402.0,2.243567562267442e+16,11254144351.716127,77031268155.75278,3047832386866.887,18428476823165.285
1.2168715419732616,5057999348456048.0,3.800364041313899e+16,9251308874100728.0,2.3668488117080884e+16,13327082442.88942,91223398067.88213,3619191648626.0693,22120331372219.746
1.3412089728127268,5313235772797212.0,3.9924720768409144e+16,9718147818034880.0,2.486284610195242e+16,15558074692.059303,106497800551.72725,4234705426679.144,26134314322699.574
1.4680331522689813,5561471127516885.0,4.179360579750529e+16,1.0172181488269512e+16,2.6024443126849356e+16,17948857416.22195,122866354792.68001,4894820080566.828,30474419576757.707
1.597393815314361,5803688218408732.0,4.361768036193144e+16,1.0615207481252312e+16,2.715787815705939e+16,20501665406.214447,140344354862.88843,5600127532346.26,35145531658422.844
1.729341691620648,6040694429756989.0,4.5403013075313944e+16,1.1048702539487924e+16,2.8266929285508772e+16,23219160417.63979,158950019592.07837,6351343394210.294,40153307986030.48
1.863928525453061,6273162732275238.0,4.715466410833948e+16,1.1473897556936936e+16,2.935474562664599e+16,26104379245.619865,178704136690.78937,7149291184604.945,45504092780797.21
2.001207095962122,6501661184670272.0,4.887690662479125e+16,1.1891831538725506e+16,3.0423985366964804e+16,29160695436.63206,199629800348.96652,7994890741568.192,51204853193331.23
2.1412312378813647,6726674635835607.0,5.05733896752515e+16,1.2303391295448124e+16,3.147691731888111e+16,32391790759.812405,221752215724.5567,8889149614100.822,57263131466087.33
2.284055862638992,6948621003114959.0,5.2247260379418024e+16,1.2709341216853978e+16,3.2515497093693936e+16,35801633832.14081,245098552459.93625,9833156620240.451,63687008948602.86
2.4297369798917723,7167863692976199.0,5.3901257154398744e+16,1.3110345989825348e+16,3.3541425223220684e+16,39394464100.68052,269697834909.42102,10828077016964.504,70485079060515.11
2.578331719489608,7384721223198829.0,5.553778193877982e+16,1.3506988197796534e+16,3.4556192186111844e+16,43174779914.48082,295580860390.9152,11875148893327.715,77666427138978.45
2.7298983538794,7599474778809402.0,5.715895690865246e+16,1.3899782140903306e+16,3.556111376528605e+16,47147329774.32179,322780139212.29706,12975680508983.49,85240615675740.38
2.884496320956988,7812374218150496.0,5.876666956155976e+16,1.4289184821356062e+16,3.655735915287727e+16,51317106092.742966,351329851897.53253,14131048375759.297,93217673842181.9
3.0421862473761276,8023642899786432.0,6.036260895080154e+16,1.4675604772069658e+16,3.754597353737387e+16,55689340968.021904,381265820211.08777,15342695932552.994,101608090477799.3
3.2030299723236504,8233481600673216.0,6.194829509985343e+16,1.505940922317408e+16,3.8527896438395384e+16,60269503597.977036,412625489416.8747,16612132701141.871,110422809916602.48
3.3670905717701234,8442071725762603.0,6.3525103099304296e+16,1.5440929972525996e+16,3.950397672578825e+16,65063299048.1396,445447919815.6132,17940933837438.8,119673230171129.67
3.5344323832055258,8649577959184516.0,6.509428301322357e+16,1.5820468234841556e+16,4.047498502562953e+16,70076668154.13094,479773786051.98816,19330740012476.617,129371203101306.62
3.7051210308696363,8856150471003535.0,6.6656976450549784e+16,1.619829867795425e+16,4.144162404657241e+16,75315788386.82053,515645383016.9657,20783257572082.05,139529036276080.06
3.879223451487029,9061926767070196.0,6.8214230458374184e+16,1.6574672806276644e+16,4.240453723608209e+16,80787075545.67467,553106637423.0598,22300258935251.355,150159496297066.06
4.0568079205167695,9267033249855118.0,6.9767009246638824e+16,1.6949821815636778e+16,4.336431608423624e+16,86497186173.86989,592203124323.3195,23883583199660.164,161275813400555.16
4.237944078927105,9471586543428014.0,7.131620414324303e+16,1.7323959016724888e+16,4.43215063238615e+16,92453020610.50682,632982087993.9371,25535136929226.793,172891687190789.84
4.422702960505647,9675694624580454.0,7.286264209476474e+16,1.769728190396811e+16,4.527661322353306e+16,98661726612.24777,675492466716.765,27256895103693.68,185021293386103.84
4.61115701971576,9879457793544790.0,7.440709296386234e+16,1.80699739310193e+16,4.623010612997728e+16,105130703490.08372,719784921089.7231,29050902214157.523,197679291482185.94
4.803380160110075,1.0082969511158704e+16,7.595027582486414e+16,1.844220604196908e+16,4.718242238551767e+16,111867606717.572,765911865565.9646,30919273491621.215,210880833254839.0
4.9994477633122765,1.0286317124179848e+16,7.749286442043891e+16,1.881413799797895e+16,4.813397072212683e+16,118880352975.41426,813927502981.0721,32864196258153.34,224641572039153.94
5.199436718578522,1.0489582496413204e+16,7.903549191190571e+16,1.9185919531641892e+16,4.908513421473705e+16,126177125604.13205,863887861874.773,34887931392266.29,238977672733822.38
5.403425452950093,1.0692842560115284e+16,8.057875503174109e+16,1.9557691355525616e+16,5.0036272861492616e+16,133766380442.20682,915850836452.0734,36992814901768.82,253905822488943.06
5.611493962009095,1.089616979959029e+16,8.212321772770502e+16,1.992958604669188e+16,5.098772584669949e+16,141656852031.65408,969876229060.2662,39181259598695.125,269443242043602.78
5.823723841249277,1.1099632676848092e+16,8.366941437266312e+16,2.0301728825243964e+16,5.1939813532657624e+16,149857560176.80527,1026025795084.2917,41455756872021.945,285607697686075.1
6.040198318074262,1.130329600754238e+16,8.521785260178816e+16,2.067423824193487e+16,5.289283921883405e+16,158377816845.23462,1084363290184.6509,43818878554807.56,302417513814945.44
6.261002284435747,1.1507221294067084e+16,8.676901582876358e+16,2.1047226787415468e+16,5.384709070056055e+16,167227233402.42554,1144954519820.2295,46273278883154.836,319891586084063.9
6.486222330124463,1.1711467021593492e+16,8.832336548439138e+16,2.1420801433699956e+16,5.480284165431555e+16,176415728174.0103,1207867391013.758,48821696545052.12,338049395118106.75
6.715946776726952,1.1916088921931944e+16,8.988134301426403e+16,2.17950641167807e+16,5.576035287244414e+16,185953534331.32217,1273171966330.6768,51466956817693.305,356911020788825.1
6.950265712261491,1.2121140209359916e+16,9.14433716665903e+16,2.217011216796855e+16,5.671987336669642e+16,195851208097.63306,1340940520053.3564,54211973792348.37,376497157044875.56
7.18927102650672,1.232667179194344e+16,9.300985809665238e+16,2.254603870040927e+16,5.7681641357089016e+16,206119637273.85727,1411247596542.3074,57059752686262.055,396829127290576.06
7.433056447036854,1.2532732461366794e+16,9.458119381052902e+16,2.2922932956290612e+16,5.864588516019834e+16,216770050083.72815,1484170070784.298,60013392241404.09,417928900311025.4
7.681717575977592,1.2739369063856636e+16,9.615775646750078e+16,2.330088061947018e+16,5.9612823988985384e+16,227814024339.5191,1559787211134.8008,63076087210203.05,439819106742883.56
7.935351927497144,1.2946626654427326e+16,9.77399110578612e+16,2.3679964097597296e+16,6.0582668674574984e+16,239263496930.33987,1638180744268.4915,66251130928662.695,462523056091724.1
8.194058966047088,1.3154548636370602e+16,9.932801097057432e+16,2.40602627772457e+16,6.155562231898627e+16,251130773635.86795,1719434922357.4382,69541917977496.95,486064754298318.56
8.45794014536803,1.3363176887656024e+16,1.009223989632968e+17,2.44418532551059e+16,6.253188088661349e+16,263428539269.13327,1803636592501.6719,72951946932132.62,510468921857489.9
8.72709894827539,1.3572551875690726e+16,1.0252340804564443e+17,2.4824809547885748e+16,6.351163374123443e+16,276169868152.66,1890875268441.569,76484823202618.88,535761012494340.4
9.0016409272409,1.378271276170055e+16,1.041313622851907e+17,2.5209203283228304e+16,6.449506413445399e+16,289368234932.8827,1981243204585.6667,80144261964654.23,561967232403690.7
9.281673745785717,1.3993697495836386e+16,1.0574657754448933e+17,2.55951038736658e+16,6.548234965074642e+16,303037525738.32806,2074835472391.503,83934091183103.06,589114560059542.9
9.567307220701432,1.4205542903972558e+16,1.0736936215639195e+17,2.5982578675377464e+16,6.647366261362134e+16,317192049687.5775,2171750039140.58,87858254729513.19,617230766602247.9
9.85865336511546,1.4418284767047142e+16,1.0900001754405107e+17,2.6371693133306864e+16,6.746917045688995e+16,331846550753.5203,2272087849151.9966,91920815595286.25,646344436811869.2
10.155826432417769,1.4631957893692446e+16,1.1063883879123946e+17,2.6762510914006224e+16,6.846903606453402e+16,347016219990.85986,2375952907482.4136,96125959202273.17,676484990677024.8
10.458942961066125,1.4846596186816612e+16,1.1228611516795851e+17,2.715509402741711e+16,6.947341808226866e+16,362716708134.2799,2483452366162.9663,100477996812689.58,707682705569155.0
10.768121820287448,1.506223270472095e+16,1.139421306157387e+17,2.7549502938656884e+16,7.0482471203535976e+16,378964138575.0857,2594696613026.6333,104981369040353.62,739968739032883.0
11.083484256693197,1.5278899717271608e+16,1.1560716419653947e+17,2.7945796670759184e+16,7.149634643235556e+16,395775120724.53455,2709799363182.2573,109640649465358.83,773375152203761.1
11.405153941827061,1.5496628757586176e+16,1.1728149050872219e+17,2.8344032899211028e+16,7.251519132518832e+16,413166763772.45123,2828877753193.963,114460548354393.06,807934933865292.6
11.733257020663602,1.5715450669645816e+16,1.1896538007319206e+17,2.8744268039037716e+16,7.353915021373294e+16,431156690850.09143,2952052438027.435,119445916489017.64,843682025157744.9
12.067922161076874,1.5935395652198772e+16,1.2065909969247226e+17,2.914655732510402e+16,7.45683644103689e+16,449763053606.5864,3079447690826.724,124601749104311.14,880651344951798.8
12.409280604298411,1.6156493299282626e+16,1.223629127851851e+17,2.9550954886231508e+16,7.560297239777712e+16,469004547208.6363,3211191505587.896,129933189940377.62,918878815900675.5
12.75746621638438,1.6378772637658102e+16,1.2407707969815598e+17,2.995751381366656e+16,7.664311000410842e+16,488900425773.48895,3347415702798.1006,135445535409312.64,958401391184872.4
13.112615540712067,1.6602262161417626e+16,1.2580185799813045e+17,3.036628622438089e+16,7.76889105649312e+16,509470518245.5581,3488256038110.9087,141144238880303.28,999257081964207.8
13.474867851526309,1.6826989864004182e+16,1.2753750274489754e+17,3.0777323319635644e+16,7.874050507306078e+16,530735244727.39496,3633852314131.249,147034915085632.66,1041484985552371.2
13.844365208556836,1.7052983267853702e+16,1.2928426674743054e+17,3.1190675439198508e+16,7.979802231726955e+16,552715633276.0399,3784348495385.401,153123344650440.6,1085125314329674.2
14.221252512727972,1.7280269451851874e+16,1.3104240080450624e+17,3.1606392111563644e+16,8.086158901076746e+16,575433337176.137,3939892826553.8247,159415478749187.4,1130219425410233.8
14.605677562982532,1.7508875076778712e+16,1.3281215393111707e+17,3.2024522100490724e+16,8.193132991026877e+16,598910652701.4971,4100637954046.967,165917443891839.75,1176809851080263.0
14.997791114242183,1.7738826408896966e+16,1.345937735718735e+17,3.244511344814929e+16,8.300736792637131e+16,623170537377.1685,4266741051006.316,172635546842896.72,1224940330024680.8
15.397746936527026,1.7970149341825734e+16,1.3638750580247629e+17,3.2868213515126772e+16,8.408982422591306e+16,648236628754.3513,4438363945815.363,179576279676453.5,1274655839359735.0
15.805701875257567,1.820286941682791e+16,1.3819359552024554e+17,3.3293869017534744e+16,8.517881832690454e+16,674133263710.883,4615673254207.27,186746324970581.56,1326002627489772.5
16.221815912762718,1.843701184162727e+16,1.4001228662460096e+17,3.3722126061426572e+16,8.627446818658264e+16,700885498290.3079,4798840515058.59,194152561144397.94,1379028247806835.5
16.64625223101797,1.8672601507861256e+16,1.4184382218831104e+17,3.415303017471914e+16,8.737689028307915e+16,728519128092.9071,4988042329960.249,201802067941278.7,1433781593252226.0
17.079177275638333,1.8909663007265684e+16,1.4368844462025397e+17,3.458662633679561e+16,8.848619969115528e+16,757060709232.4008,5183460506659.859,209702132061753.38,1490312931759628.0
17.5207608211511,1.9148220646678656e+16,1.455463958203746e+17,3.502295900594789e+16,8.960251015241202e+16,786537579872.3527,5385282206471.173,217860252949712.0,1548673942599907.0
17.97117603757412,1.9388298461943584e+16,1.4741791732745994e+17,3.546207214480642e+16,9.072593414034798e+16,816977882356.687,5593700095749.402,226284148735636.03,1608917753648189.8
18.430599558325603,1.962992023078463e+16,1.4930325046030445e+17,3.5904009243889424e+16,9.185658292060784e+16,848410585949.0308,5808912501532.937,234981762340658.38,1671098979594259.0
18.899211549492115,1.987310948472028e+16,1.512026364527914e+17,3.634881334339363e+16,9.299456660673264e+16,880865510195.9706,6031123571454.889,243961267745342.66,1735273761117884.5
19.37719578048196,2.011788952007662e+16,1.531163165833737e+17,3.679652705333803e+16,9.413999421169402e+16,914373348929.6691,6260543438029.865,253231076427159.62,1801499805051084.0
19.864739696091597,2.0364283408155556e+16,1.5504453229939664e+17,3.724719257216201e+16,9.52929736954761e+16,948965694925.6001,6497388387424.062,262799843970733.75,1869836425549920.8
20.36203449001343,2.06123140046092e+16,1.5698752533667488e+17,3.77008517038714e+16,9.64536120089423e+16,984675065231.5725,6741881032819.102,272676476855019.22,1940344586298868.5
20.869275179813698,2.0862003958066788e+16,1.5894553783470134e+17,3.815754587381769e+16,9.76220151342043e+16,1021534927184.5253,6994250492482.565,282870139421654.8,2013086943771282.8
21.38666068340997,2.111337571805745e+16,1.60918812447838e+17,3.861731614318905e+16,9.879828812169493e+16,1059579725131.9783,7254732572660.498,293390261028846.06,2088127891570105.2
21.91439389707817,2.1366451542267776e+16,1.6290759245281453e+17,3.908020322228431e+16,9.99825351241307e+16,1098844907875.3562,7523569955410.017,304246543395210.25,2165533605873300.8
22.452681775019734,2.1621253503170212e+16,1.6491212185283184e+17,3.9546247482637784e+16,1.0117485942752814e+17,1139366956852.8003,7801012391492.137,315448968138109.56,2245372092009196.0
23.00173541052013,2.1877803494055976e+16,1.6693264547855478e+17,4.001548896805249e+16,1.023753634794343e+17,1181183415079.4485,8087316898448.182,327007804511108.06,2327713232187317.5
23.561770118730532,2.2136123234502388e+16,1.6896940908625027e+17,4.048796740460046e+16,1.0358414891451058e+17,1224332916863.5046,8382747963984.975,338933617345262.5,2412628834410875.0
24.133005521105144,2.2396234275302724e+16,1.710226594533149e+17,4.0963722209640264e+16,1.0480131657760203e+17,1268855218316.884,8687577754797.261,351237275199070.3,2500192682597641.0
24.715665631527248,2.2658158002884996e+16,1.7309264447141546e+17,4.1442792499898504e+16,1.0602696654441402e+17,1314791228679.5024,9002086330957.943,363929958721987.0,2590480587936362.0
25.309978944157795,2.292191564324245e+16,1.7517961323745808e+17,4.1925217098659064e+16,1.0726119813990514e+17,1362183042476.7139,9326561866009.578,377023169236520.56,2683570441506616.0
25.91617852304095,2.318752826539838e+16,1.772838161425788e+17,4.241103454210042e+16,1.0850410995450011e+17,1411073972529.8132,9661300872893.275,390528737544019.75,2779542268190384.5
26.53450209350177,2.3455016784424908e+16,1.7940550495934173e+17,4.290028308481724e+16,1.097557998582161e+17,1461508583839.8333,10006608435853.498,404458832959353.56,2878478281904251.5
27.165192135371807,2.3724401964034556e+16,1.815449329273237e+17,4.3393000704560376e+16,1.1101636501279038e+17,1513532728365.3518,10362798448460.494,418825972579803.6,2980462942181780.5
27.808495978079243,2.3995704418761424e+16,1.837023548372414e+17,4.388922510622622e+16,1.1228590188188531e+17,1567193580715.319,10730193857894.03,433643030793562.75,3085583012136045.0
28.464665897640828,2.4268944615747772e+16,1.858780271137794e+17,4.438899372512461e+16,1.1356450623945034e+17,1622539674778.4185,11109126915635.615,448923249033363.25,3193927617833024.0
29.133959215593645,2.4544142876150324e+16,1.8807220789726726e+17,4.48923437295512e+16,1.1485227317630178e+17,1679620941310.7644,11499939434718.496,464680245780832.4,3305588309107080.0
29.816638399905518,2.4821319376180096e+16,1.902851571243349e+17,4.539931202268885e+16,1.1614929710498829e+17,1738488746504.2097,11902983053687.746,480928026827295.56,3420659121850346.5
30.51297116790363,2.5100494147787064e+16,1.9251713660768765e+17,4.590993524386034e+16,1.1745567176299592e+17,1799195931557.9348,12318619507425.426,497680995796836.8,3539236641808502.5
31.223230591261704,2.538168707900199e+16,1.947684101151131e+17,4.642424976915336e+16,1.1877149021434602e+17,1861796853276.3237,12747220904998.367,514953964937535.4,3661420069915938.0
31.947695203086937,2.5664917913944784e+16,1.970392434478483e+17,4.694229171143598e+16,1.2009684484963598e+17,1926347425716.6294,13189170014689.395,532762166186892.3,3787311289204079.5
32.686649107148675,2.5950206252509828e+16,1.9932990451841056e+17,4.7464096919781064e+16,1.2143182738456584e+17,1992905162910.2327,13644860556374.729,551121262517574.06,3917014933317028.5
33.44038208929165,2.623757154973621e+16,2.016406634280056e+17,4.798970097831417e+16,1.2277652885699179e+17,2061529222681.7783,14114697501413.715,570047359569696.8,4050638456669623.0
34.20918973107749,2.6527033114871612e+16,2.0397179254360886e+17,4.851913920450162e+16,1.2413103962254474e+17,2132280451590.8357,14599097380219.508,589557017575974.1,4188292206283335.0
34.993373525699035,2.6818610110136308e+16,2.0632356657482586e+17,4.905244664688972e+16,1.254954493488486e+17,2205221431021.086,15098488597682.06,609667263586161.0,4330089495336311.5
35.793240996213015,2.7112321549195264e+16,2.0869626265061702e+17,4.958965808231018e+16,1.2686984700836893e+17,2280416524442.5312,15613311756617.275,630395603997328.5,4476146678464384.0
36.60910581613728,2.740818629534327e+16,2.1109016039598707e+17,5.01308080125606e+16,1.282543208699209e+17,2357931925872.558,16144019989419.46,651760037396595.6,4626583228850547.0
37.44128793246003,2.7706223059409596e+16,2.135055420087178e+17,5.067593066057197e+16,1.2964895848886454e+17,2437835709561.963,16691079298095.88,673779067723067.6,4781521817141126.0
38.29011369110923,2.800645039738688e+16,2.159426923362347e+17,5.122505996607189e+16,1.3105384669600896e+17,2520197880932.7617,17254968902866.104,696471717755800.8,4941088392227396.0
39.15591596493141,2.8308886707789212e+16,2.184018989526875e+17,5.177822958075223e+16,1.3246907158525102e+17,2605090428794.5117,17836181599510.305,719857542934747.1,5105412263932207.0
