t(s),Total solute volume 1,Total retention volume 1,Total 1 volume 1,Total 2 volume 1,Total 3 volume 1,Total 4 volume 1,Total 5 volume 1,Total 6 volume 1
0.1,1384269013029218.2,1.039366397781807e+16,2531887414418598.5,6477507550370256.0,0.0,0.0,0.0,0.013903653951609765
0.202,2001000905765914.0,1.5025630921046e+16,3659920156613950.5,9363502215941966.0,846193143.649574,5777885759.133627,200801145498.22943,1000217499766.2662
0.30604000000000003,2489216471772007.5,1.8693521282540844e+16,4552888758772169.0,1.1648073203393392e+16,2126456140.9680152,14537423609.983517,533956865826.81995,2792227857703.15
0.41216080000000005,2906466852602616.5,2.182935283014949e+16,5316058661530376.0,1.3600564755278404e+16,3761776422.4029055,25729690215.88256,971225573298.3354,5261843698161.231
0.5204040160000001,3278527652951097.5,2.462659208386933e+16,5996574722624413.0,1.5341594110924786e+16,5714759669.3217535,39097812810.302605,1499732188078.046,8351052608469.481
0.6308120963200001,3619067835631305.5,2.7187834330208492e+16,6619438124996057.0,1.6935124762444022e+16,7965096882.427194,54502429018.13466,2112732952350.6545,12028406658856.328
0.7434283382464002,3936240830083942.5,2.9574278084256564e+16,7199561871648397.0,1.841931028091853e+16,10501121889.278458,71863509397.00977,2806412944974.996,16276324029427.057
0.8582969050113283,4235339992918583.5,3.1825656851304396e+16,7746627756431725.0,1.981892061545176e+16,13316226508.817257,91135719960.30186,3578596799219.179,21085437756632.77
0.9754628431115548,4520021876672237.0,3.3969420637011292e+16,8267323781903555.0,2.1151066365928024e+16,16407078274.982393,112296186644.21848,4428138558947.838,26451770683620.53
1.094972099973786,4792933530385488.0,3.602544413480822e+16,8766491521883837.0,2.2428134216248224e+16,19772629231.700386,135337694677.72952,5354594251839.928,32375161714904.63
1.2168715419732616,5056062402994712.0,3.800865282625314e+16,9247766111177046.0,2.3659424291836784e+16,23413518609.19098,160264591881.84274,6358029511319.37,38858312622773.516
1.3412089728127268,5310944885628380.0,3.993058808172953e+16,9713957679137086.0,2.4852126022425724e+16,27331690880.358025,187090169781.92386,7438898827042.816,45906173850629.72
1.4680331522689813,5558797372712328.0,4.180039073511378e+16,1.0167291066493072e+16,2.601193143491078e+16,31530140286.03264,215834912184.41327,8597965899398.196,53525530045707.375
1.597393815314361,5800602269157156.0,4.362544652172694e+16,1.0609563136458236e+16,2.7143437618653456e+16,36012733894.48818,246525282299.63913,9836249063728.59,61724710378170.22
1.729341691620648,6037166493339718.0,4.541182509935375e+16,1.1042249779370234e+16,2.8250420486376164e+16,40784085685.89309,279192859703.3481,11154982768118.754,70513380554132.48
1.863928525453061,6269162492749512.0,4.716458783236349e+16,1.1466580932187806e+16,2.9336026704113524e+16,45849465054.66677,313873713242.19635,12555589750868.527,79902390383474.81
2.001207095962122,6497157751323288.0,4.8888009212427656e+16,1.1883594548755266e+16,3.0402911768738708e+16,51214729275.53888,350607938198.33124,14039660593007.363,89903660349894.23
2.1412312378813647,6721636496012602.0,5.058573974083191e+16,1.2294176302105672e+16,3.1453341582308924e+16,56886273116.2764,389439310974.7543,15608938502549.725,100530096318082.7
2.284055862638992,6943015978390716.0,5.226092810227507e+16,1.2699089364262434e+16,3.2489268640671204e+16,62870991016.0807,430415029897.14935,17265307904107.98,111795525025699.27
2.4297369798917723,7161658897893223.0,5.39163143867955e+16,1.3098997128912252e+16,3.3512390167108576e+16,69176248670.3325,473585520475.9048,19010785858267.195,123714645254025.23
2.578331719489608,7377883025976292.0,5.555430230911084e+16,1.3494480814428626e+16,3.452419314787666e+16,75809861793.03816,519004289852.74927,20847515627410.73,136302991050201.56
2.7298983538794,7591968763557563.0,5.717701592118867e+16,1.388605328677502e+16,3.552598969668364e+16,82780080453.37361,566727819441.2949,22777761899349.004,149576904373206.88
2.884496320956988,7804165148222268.0,5.878634469374355e+16,1.427417004695781e+16,3.651894516495867e+16,90095577812.09798,616815487714.0587,24803907312853.875,163553515226398.88
3.0421862473761276,8014694681969891.0,6.038397974889795e+16,1.4659238061194264e+16,3.750410073292617e+16,97765442384.58621,669329517151.5255,26928450021652.08,178250727826444.38
3.2030299723236504,8223757249984016.0,6.197144327361503e+16,1.5041622928520452e+16,3.8482391747189416e+16,105799173172.04607,724334940841.1486,29154002099039.066,193687211708106.72
3.3670905717701234,8431533330637480.0,6.355011261619224e+16,1.5421654752036428e+16,3.945466274170381e+16,114206677158.3333,781899585282.29,31483288632627.86,209882396919445.72
3.5344323832055258,8638186646910080.0,6.5121240192640536e+16,1.5799632988469464e+16,4.0421679844881144e+16,122998268784.53754,842094066739.5792,33919147393455.38,226856472650876.3
3.7051210308696363,8843866373240485.0,6.668597005847161e+16,1.617583048460624e+16,4.138414110638202e+16,132184671099.15654,904991799074.0758,36464528989464.26,244630388783223.12
3.879223451487029,9048708985353520.0,6.82453518027132e+16,1.6550496860710874e+16,4.234268515323868e+16,141777018346.40665,970669011425.206,39122497432797.25,263225859947533.53
4.0568079205167695,9252839820967370.0,6.980035227363068e+16,1.6923861365129032e+16,4.329789849306277e+16,151786859804.68948,1039204774455.4434,41896231065135.38,282665371772076.0
4.237944078927105,9456374404556030.0,7.135186553511363e+16,1.7296135297338646e+16,4.425032171316733e+16,162226164725.46033,1110681034131.6416,44789023796701.19,302972189056074.0
4.422702960505647,9659419578176692.0,7.290072136890918e+16,1.7667514076284196e+16,4.520045477218444e+16,173107328252.56638,1185182652221.26,47804286623409.8,324170365659981.75
4.61115701971576,9862074471823052.0,7.444769257374446e+16,1.80381790151971e+16,4.614876154075786e+16,184443178225.6164,1262797452842.6687,50945549393611.28,346284755941823.94
4.803380160110075,1.0064431340161662e+16,7.599350126282915e+16,1.8408298852024172e+16,4.709567371698378e+16,196246982789.5861,1343616274536.5535,54216462801378.734,369341027600773.94
4.9994477633122765,1.0266576287361366e+16,7.753882432261723e+16,1.8778031075173636e+16,4.804159421819375e+16,208532458747.82916,1427733027427.8337,57620800587702.35,393365675814575.2
5.199436718578522,1.0468589897683636e+16,7.908429816537693e+16,1.914752307689336e+16,4.898690013175173e+16,221313780607.71002,1515244755130.158,61162461934498.5,418386038577996.4
5.403425452950093,1.0670547786302226e+16,8.063052288411474e+16,1.9516913160744876e+16,4.993194529257074e+16,234605590277.9027,1606251701112.3022,64845474039217.984,444430313166276.8
5.611493962009095,1.0872521082270482e+16,8.217806589927163e+16,1.9886331424972468e+16,5.087706254312046e+16,248423007384.42896,1700857379300.853,68673994860193.69,471527573661291.1
5.823723841249277,1.1074576853509258e+16,8.372746517126173e+16,2.025590053982533e+16,5.182256572212386e+16,262781640179.1532,1799168648739.02,72652316024801.5,499707789489524.44
6.040198318074262,1.1276778482036326e+16,8.52792320405328e+16,2.0625736433869136e+16,5.276875142041366e+16,277697597019.9519,1901295792159.1775,76784865894114.3,529001844930412.6
6.261002284435747,1.1479185996317352e+16,8.683385374676758e+16,2.0995948901870948e+16,5.371590053614191e+16,293187498406.3945,2007352598358.2783,81076212779068.3,559441559561501.6
6.486222330124463,1.1681856366522902e+16,8.839179567062797e+16,2.136664214483776e+16,5.466427965641166e+16,309268489558.64404,2117456448291.9143,85531068304282.0,591059709613549.1
6.715946776726952,1.1884843767576574e+16,8.99535033346985e+16,2.1737915251143204e+16,5.561414228818938e+16,325958253530.57983,2231728404825.264,90154290916623.33,623890050214322.2
6.950265712261491,1.2088199814137676e+16,9.151940419471931e+16,2.2109862626321704e+16,5.65657299578879e+16,343275024850.946,2350293306098.4287,94950889536422.34,657967338504681.5
7.18927102650672,1.2291973771046386e+16,9.308990924758664e+16,2.248257437798215e+16,5.751927319612737e+16,361237603688.7372,2473279862480.101,99926027349924.39,693327357614657.4
7.433056447036854,1.2496212742247232e+16,9.466541447875312e+16,2.285613666135743e+16,5.8474992421787784e+16,379865370541.1233,2600820757097.8525,105085025742171.31,730006941490799.9
7.681717575977592,1.2700961840778106e+16,9.62463021684491e+16,2.3230631990222076e+16,5.943309873745831e+16,399178301444.00055,2733052749945.5737,110433368370016.73,768044000569223.1
7.935351927497144,1.2906264342052022e+16,9.7832942073447e+16,2.3606139517251336e+16,6.039379464670755e+16,419196983706.8886,2870116785579.713,115976705375430.88,807477548291461.5
8.194058966047088,1.3112161822355474e+16,9.942569249881088e+16,2.3982735287341296e+16,6.135727470217511e+16,439942632175.2355,3012158104425.2246,121720857739650.84,848347728462708.1
8.45794014536803,1.3318694284230544e+16,1.0102490127215269e+17,2.4360492466938104e+16,6.232372609228713e+16,461437106024.4838,3159326357720.9766,127671821779078.52,890695843454122.1
8.72709894827539,1.3525900270189196e+16,1.0263090663127808e+17,2.473948155202671e+16,6.329332917337297e+16,483702926091.3321,3311775726141.687,133835773784142.02,934564383252862.4
9.0016409272409,1.3733816966022798e+16,1.0424403803470826e+17,2.5119770557088584e+16,6.426625795309416e+16,506763292748.64124,3469665042140.523,140219074802619.88,979997055365231.2
9.281673745785717,1.3942480294810604e+16,1.0586461690337651e+17,2.550142518704748e+16,6.5242680530348984e+16,530642104331.32745,3633157916062.5386,146828275569173.16,1027038815579919.0
9.567307220701432,1.4151925002594366e+16,1.0749295730077195e+17,2.5884508993972252e+16,6.622275949618024e+16,555363976121.4315,3802422866084.9097,153670121583067.25,1075735899599801.8
9.85865336511546,1.4362184736569198e+16,1.0912936655792355e+17,2.6269083520091324e+16,6.7206652299662824e+16,580954259901.29,3977633452045.0825,160751558336269.34,1126135855552128.0
10.155826432417769,1.457329211653896e+16,1.1077414584886021e+17,2.665520842848797e+16,6.819451158227357e+16,607439064084.4487,4158968413222.7114,168079736694304.28,1178287577388155.0
10.458942961066125,1.4785278800297346e+16,1.124275907215208e+17,2.704294162268524e+16,6.918648548383671e+16,634845274434.6259,4346611810145.8267,175662018432430.0,1232241339184550.8
10.768121820287448,1.4998175543519212e+16,1.1408999158852496e+17,2.7432339356189828e+16,7.018271792278024e+16,663200575383.612,4540753170495.837,183505981929855.16,1288048830359903.5
11.083484256693197,1.521201225468075e+16,1.1576163418171234e+17,2.782345633294363e+16,7.118334885313109e+16,692533471959.6003,4741587639189.849,191619428024888.72,1345763191820881.2
11.405153941827061,1.5426818045469334e+16,1.1744279997393019e+17,2.821634579952557e+16,7.218851450040269e+16,722873312337.9662,4949316132722.608,200010386034046.94,1405439053053449.8
11.733257020663602,1.5642621277093142e+16,1.1913376657116846e+17,2.8611059629854052e+16,7.319834757829848e+16,754250311027.0609,5164145497853.945,208687119938289.56,1467132570175634.0
12.067922161076874,1.5859449602856786e+16,1.2083480807781269e+17,2.900764840305962e+16,7.421297748794003e+16,786695572702.041,5386288674730.793,217658134739687.9,1530901464969210.0
12.409280604298411,1.6077330007329738e+16,1.2254619543749062e+17,2.9406161475126e+16,7.523253050115301e+16,820241116700.2705,5615964864536.476,226932182991956.56,1596805064908558.5
12.75746621638438,1.6296288842400896e+16,1.2426819675173579e+17,2.9806647044835144e+16,7.625712992918162e+16,854919902192.2697,5853399701762.812,236518271508397.44,1664904344205867.0
13.112615540712067,1.6516351860481288e+16,1.260010775784647e+17,3.0209152214496916e+16,7.728689627805766e+16,890765854042.6483,6098825431203.633,246425668250930.75,1735261965892614.5
13.474867851526309,1.673754424509175e+16,1.2774510121206123e+17,3.061372304589497e+16,7.832194739173325e+16,927813889375.872,6352481089771.648,256663909403994.62,1807942324958084.5
13.844365208556836,1.6959890639046994e+16,1.2950052894669184e+17,3.1020404611836852e+16,7.936239858396608e+16,966099944862.1525,6614612693242.891,267242806637210.38,1883011592566518.8
14.221252512727972,1.7183415170428174e+16,1.3126762032431155e+17,3.142924104365905e+16,8.040836275985555e+16,1005661004739.1532,6885473428036.359,278172454560816.0,1960537761375143.2
14.605677562982532,1.7408141476516154e+16,1.3304663336868674e+17,3.1840275575001916e+16,8.145995052783691e+16,1046535129585.6062,7165323848138.869,289463238377979.3,2040590691976128.8
14.997791114242183,1.7634092725841794e+16,1.348378248066334e+17,3.225355058214065e+16,8.251727030286346e+16,1088761485863.3495,7454432077287.931,301125841738201.9,2123242160486197.5
15.397746936527026,1.7861291638494406e+16,1.3664145027756056e+17,3.2669107621130428e+16,8.358042840143848e+16,1132380376244.6423,7753074016528.285,313171254796128.5,2208565907308358.8
15.805701875257567,1.808976050481643e+16,1.3845776453231082e+17,3.3086987461999784e+16,8.464952912909563e+16,1177433270742.0447,8061533557260.068,325610782480182.94,2296637687090776.0
16.221815912762718,1.8319521202600316e+16,1.4028702162219803e+17,3.350723012020453e+16,8.57246748608704e+16,1223962838658.5098,8380102799899.417,338456052975531.2,2387535319908594.0
16.64625223101797,1.855059521289353e+16,1.4212947507906776e+17,3.3929874885535668e+16,8.680596611525784e+16,1272012981375.6865,8709082278274.75,351719026425997.6,2481338743695082.5
17.079177275638333,1.878300363450705e+16,1.4398537808713238e+17,3.4354960348656284e+16,8.789350162210446e+16,1321628865998.8044,9048781189884.426,365412003859626.4,2578130067949072.0
17.5207608211511,1.9016767197315256e+16,1.4585498364726794e+17,3.4782524425427644e+16,8.898737838484395e+16,1372856959876.9504,9399517632144.133,379547636342703.2,2677993628746385.5
17.97117603757412,1.925190627442664e+16,1.4773854473440656e+17,3.521260437916973e+16,9.008769173744901e+16,1425745066017.7537,9761618844754.58,394138934367121.0,2781016045083342.5
18.430599558325603,1.948844089329805e+16,1.4963631444860256e+17,3.5645236840990076e+16,9.119453539643941e+16,1480342359416.0017,10135421458322.771,409199277476083.06,2887286276581305.5
18.899211549492115,1.97263907458589e+16,1.5154854616030586e+17,3.608045782830093e+16,9.230800150825765e+16,1536699424315.9648,10521271749372.172,424742424133225.0,2996895682581514.5
19.37719578048196,1.996577519770588e+16,1.534754936503328e+17,3.651830276163727e+16,9.342818069229483e+16,1594868292427.5786,10919525901879.752,440782521840324.9,3109938082660240.0
19.864739696091597,2.020661329642409e+16,1.5541741124499056e+17,3.695880647987629e+16,9.4555162079829e+16,1654902482116.988,11330550275480.1,457334117508853.6,3226509818594785.0
20.36203449001343,2.0448923779085104e+16,1.573745539467696e+17,3.740200325395172e+16,9.568903334911163e+16,1716857038592.272,11754721680479.105,474412168090735.1,3346709817811368.5
20.869275179813698,2.069272507896896e+16,1.5934717756099504e+17,3.784792679914863e+16,9.682988075682219e+16,1780788575105.4966,12192427659821.771,492032051473730.7,3470639658346611.5
21.38666068340997,2.093803533155234e+16,1.6133553881879453e+17,3.829661028605629e+16,9.797778916609074e+16,1846755315192.5828,12644066778161.29,510209577646992.1,3598403635354802.0
21.91439389707817,2.118487237980329e+16,1.6333989549671795e+17,3.874808635025203e+16,9.91328420712725e+16,1914817135972.7856,13110048918178.545,528961000142375.0,3730108829193681.0
22.452681775019734,2.1433253778817052e+16,1.6536050653331728e+17,3.920238710078093e+16,1.002951216196428e+17,1985035612529.8982,13590795584303.21,548303027757230.1,3865865175122140.0
23.00173541052013,2.16831967998281e+16,1.6739763214297648e+17,3.9659544127493496e+16,1.014647086301695e+17,2057474063397.5803,14086740213989.723,568252836564426.1,4005785534643645.5
23.561770118730532,2.193471843362722e+16,1.6945153392726637e+17,4.0119588507296104e+16,1.0264168260950384e+17,2132197597171.5586,14598328496703.906,588828082215483.6,4149985768529870.0
24.133005521105144,2.2187835393412988e+16,1.715224749840668e+17,4.058255080936622e+16,1.0382612176532414e+17,2209273160271.6436,15126018700777.18,610046912542758.1,4298584811559520.5
24.715665631527248,2.244256411710316e+16,1.7361072001470298e+17,4.104846109938004e+16,1.0501810301715107e+17,2288769585876.9507,15670282008288.197,631927980466679.1,4451704749007922.0
25.309978944157795,2.269892076912969e+16,1.7571653542931357e+17,4.151734894279605e+16,1.0621770200474806e+17,2370757644057.7476,16231602858132.56,654490457214168.8,4609470894923470.0
25.91617852304095,2.295692124174027e+16,1.7784018945065907e+17,4.198924340723475e+16,1.0742499309421136e+17,2455310093127.9126,16810479297444.326,677754045854388.9,4772011872227646.0
26.53450209350177,2.321658115582564e+16,1.7998195221656826e+17,4.2464173063992856e+16,1.0864004938184202e+17,2542501732241.947,17407423341533.473,701738995158080.5,4939459694675887.0
27.165192135371807,2.3477915861292628e+16,1.821420958812104e+17,4.294216598872488e+16,1.0986294269589118e+17,2632409455260.9673,18022961342506.176,726466113786813.5,5111949850717009.0
27.808495978079243,2.3740940436999748e+16,1.8432089471536595e+17,4.3423249761325944e+16,1.1109374359625947e+17,2725112305912.1626,18657634366735.684,751956784818532.0,5289621389289717.0
28.464665897640828,2.4005669690271564e+16,1.865186252058647e+17,4.390745146504277e+16,1.1233252137222382e+17,2820691534266.525,19311998581353.59,778232980615856.8,5472617007595064.0
29.133959215593645,2.427211815600704e+16,1.8873556615434906e+17,4.439479768484354e+16,1.1357934403826589e+17,2919230654559.867,19986625649932.47,805317278043668.4,5661083140884338.0
29.816638399905518,2.454030009539533e+16,1.9097199877551446e+17,4.488531450506874e+16,1.1483427832806323e+17,3020815504382.2285,20682103137531.54,833232874042549.5,5855170054302595.0
30.51297116790363,2.481022949425227e+16,1.932282067949682e+17,4.537902750638849e+16,1.1609738968670411e+17,3125534305261.0757,21399034925280.13,862003601564741.0,6055031936828375.0
31.223230591261704,2.5081920060989332e+16,1.955044765468504e+17,4.5875961762087656e+16,1.17368742261184e+17,3233477724663.8193,22138041634672.05,891653945879301.1,6260826997350807.0
31.947695203086937,2.5355385224225944e+16,1.978010970713388e+17,4.637614183369881e+16,1.1864839888923358e+17,3344738939445.2607,22899761061747.812,922209061253239.5,6472717562925966.0
32.686649107148675,2.563063813005582e+16,2.0011836021217667e+17,4.6879591766002296e+16,1.1993642108652627e+17,3459413700765.753,23684848621340.25,953694788015400.5,6690870179254751.0
33.44038208929165,2.59076916389768e+16,2.0245656071433654e+17,4.738633508141055e+16,1.2123286903231192e+17,3577600400506.0405,24493977801561.22,986137670009983.4,6915455713425211.0
34.20918973107749,2.6186558322493136e+16,2.0481599632194208e+17,4.789639477375366e+16,1.2253780155351795e+17,3699400139204.657,25327840628707.023,1019564972446553.9,7146649458962604.0
34.993373525699035,2.646725045939855e+16,2.0719696787655958e+17,4.840979330148092e+16,1.2385127610735677e+17,3824916795543.992,26187148142761.047,1054004700153513.2,7384631243231513.0
35.793240996213015,2.6749780031748136e+16,2.0959977941597392e+17,4.892655258029347e+16,1.2517334876247536e+17,3954257097411.0474,27072630883671.7,1089485616241958.6,7629585537234055.0
36.60910581613728,2.7034158720526296e+16,2.1202473827355232e+17,4.944669397522006e+16,1.2650407417868608e+17,4087530694559.0757,27985039388584.883,1126037261186944.5,7881701567849723.0
37.44128793246003,2.732039790101736e+16,2.144721551782999e+17,4.9970238292150856e+16,1.2784350558530341e+17,4224850232896.083,28925144700209.348,1163689972333156.8,8141173432562048.0
38.29011369110923,2.7608508637886176e+16,2.1694234435571507e+17,5.0497205768838504e+16,1.2919169475812315e+17,4366331430426.371,29893738886493.56,1202474903832050.2,8408200216718415.0
39.15591596493141,2.789850167997397e+16,2.1943562362953974e+17,5.102761606538032e+16,1.3054869199507187e+17,4512093154871.028,30891635571791.867,1242424047017474.2,8682986113369503.0
