t(s),Total solute volume 1,Total retention volume 1,Total 1 volume 1,Total 2 volume 1,Total 3 volume 1,Total 4 volume 1,Total 5 volume 1,Total 6 volume 1
0.1,1038034012882719.0,1307672365282961.0,121693262551923.95,147945089848319.12,0.0,0.0,0.0,0.0
0.202,1468825151693444.2,2060052456603497.2,172196790737883.9,209343307163083.06,205300278631.50635,453327188850.4237,8099263427512.053,200929316114092.12
0.30604000000000003,1742617849528556.5,2697828876248098.5,204294705247262.88,248365426299599.53,491975824997.6883,1086378929512.553,19409837734423.914,481562702683745.1
0.41216080000000005,1938627644577571.0,3289229822942319.0,227273790131642.34,276301589805080.94,829149849064.8102,1830990623648.4155,32713753223171.188,811652904732140.1
0.5204040160000001,2087741280436636.2,3858498485905948.5,244755033337296.47,297553909983211.1,1202467616437.0435,2655475352284.0264,47444862845397.15,1177145456334690.0
0.6308120963200001,2205620740367022.2,4417136708532828.5,258574557605752.56,314354600394406.9,1603874888867.276,3542056300988.181,63285554486427.73,1570155324489366.5
0.7434283382464002,2301376845282109.5,4971550290484851.0,269800464286030.66,328002174613744.5,2028407125506.5474,4479778036601.015,80040093440004.6,1985822527700861.2
0.8582969050113283,2380781034050303.0,5525702580541482.0,279109364377050.56,339319203052845.8,2472826650193.8276,5461497735140.882,97580864673167.89,2420977790002781.0
0.9754628431115548,2447710259718245.0,6082240835729880.0,286955770026263.56,348858245816326.0,2934943515155.796,6482385851921.307,115821584521612.78,2873477646280363.0
1.094972099973786,2504884001911548.0,6643042203461555.0,293658497714064.5,357006894894661.5,3413241134523.1406,7539099643606.996,134702534171954.03,3341837933991190.0
1.2168715419732616,2554274807247755.0,7209504746283305.0,299448797700374.06,364046286158052.8,3906654921769.702,8629294479708.777,154181828365628.0,3825017077410006.5
1.3412089728127268,2597352420743284.0,7782714099357822.0,304498974616272.25,370185894019545.7,4414434388265.58,9751319411462.49,174229976189210.66,4322281079989777.5
1.4680331522689813,2635236496624759.5,8363544433504142.0,308940290419711.8,375585296439777.44,4936053666935.097,10904019648567.912,194826351964034.6,4833115924740355.0
1.597393815314361,2668796069107425.5,8952722466850014.0,312874625789534.4,380368351932167.5,5471151515646.956,12086604118098.0,215956828945910.78,5357168835441235.0
1.729341691620648,2698716533102105.5,9550869606159840.0,316382332566432.8,384632745942730.06,6019489975618.89,13298554207991.514,237612148862887.66,5894207801502073.0
1.863928525453061,2725546020442895.0,1.015853058567474e+16,319527670640784.94,388456600590464.1,6580925219585.568,14539559421947.717,259786772275627.0,6444093037083431.0
2.001207095962122,2749728281172585.0,1.0776193467509892e+16,322362662769418.8,391903161050260.8,7155386584181.216,15809471102804.52,282478051766005.4,7006756453064651.0
2.1412312378813647,2771626480140375.5,1.1404303944503562e+16,324929884354760.7,395024187146853.56,7742861227011.179,17108268573842.396,305685626996570.75,7582186636064158.0
2.284055862638992,2791540730963510.5,1.204327578474203e+16,327264519027769.5,397862452370816.56,8343382728932.66,18436033990310.79,329410975395980.2,8170417690264697.0
2.4297369798917723,2809721222240074.5,1.2693498602257816e+16,329395897491232.8,400453614683149.3,8957022513789.785,19792933411500.895,353657073987742.8,8771520837930326.0
2.578331719489608,2826378184134075.5,1.3355343736632486e+16,331348665946083.06,402827636996061.1,9583883312775.867,21179202387250.652,378428141879315.9,9385598021976964.0
2.7298983538794,2841689552745993.0,1.4029168770663438e+16,333143684619052.06,405009879532197.5,10224094134160.176,22595134868398.832,403729442141313.0,1.0012776982622328e+16
2.884496320956988,2855806932244251.0,1.4715321051171038e+16,334798726729399.06,407021949573381.9,10877806355942.42,24041074596925.453,429567127992428.4,1.0653207433678706e+16
3.0421862473761276,2868860281595510.5,1.5414140469456992e+16,336329027934787.3,408882369433690.8,11545190666217.543,25517408368217.99,455948122434816.9,1.1307058069023742e+16
3.2030299723236504,2880961634130287.0,1.6125961684637946e+16,337747722392207.5,410607106588014.7,12226434650537.523,27024560722385.598,482880023423475.1,1.197451420273104e+16
3.3670905717701234,2892208075575785.0,1.6851115922704172e+16,339066191885791.8,412209998114179.75,12921740878103.55,28562989737546.652,510371028725795.0,1.2655775897786982e+16
3.5344323832055258,2902684147782110.0,1.7589932448953938e+16,340294347626136.75,413703093282399.94,13631325376181.611,30133183680937.97,538429876109017.94,1.3351056475097166e+16
3.7051210308696363,2912463803498187.5,1.834273978648487e+16,341440859417226.9,415096932158390.8,14355416409320.16,31735658333708.484,567065795565637.5,1.40605813211024e+16
3.879223451487029,2921612007157769.5,1.910986673546733e+16,342513343323575.7,416400773754313.06,15094253499850.105,33370954849198.703,596288471071835.6,1.47845869318108e+16
4.0568079205167695,2930186054310880.0,1.989164323484537e+16,343518516352941.56,417622784079850.06,15848086640870.385,35039638037012.75,626108009954794.0,1.5523320145469016e+16
4.237944078927105,2938236665761800.0,2.0688401098472864e+16,344462324726903.6,418770192083483.44,16617175663924.871,36742294989478.625,656534918378730.6,1.6277037526868552e+16
4.422702960505647,2945808900046172.0,2.1500474650512084e+16,345350050854539.56,419849419702675.25,17401789731870.463,38479533985405.35,687580081786703.6,1.7046004874404708e+16
4.61115701971576,2952942918473490.5,2.232820127951851e+16,346186403021701.5,420866190901031.5,18202206933745.48,40251983619976.53,719254749384110.4,1.7830496827184468e+16
4.803380160110075,2959674629779722.0,2.3171921926531236e+16,346975590966464.7,421825623546987.06,19018713963282.887,42060292120293.96,751570521940571.1,1.863079655421387e+16
4.9994477633122765,2966036235907790.0,2.4031981519342104e+16,347721389863349.75,422732307200791.94,19851605866449.5,43905126814338.6,784539342334300.2,1.9447195511355104e+16
5.199436718578522,2972056696146688.0,2.4908729362688096e+16,348427194736384.7,423590369265632.0,20701185846296.91,45787173727527.2,818173488377681.6,2.0279993254587884e+16
5.403425452950093,2977762123511809.0,2.5802519492216624e+16,349096066928505.8,424403531481466.94,21567765115686.586,47707137286073.516,852485567552597.1,2.1129497300340468e+16
5.611493962009095,2983176124615757.5,2.6713710998591064e+16,349730773946094.56,425175158364884.3,22451662790244.645,49665740110319.77,887488513354797.5,2.199602302540897e+16
5.823723841249277,2988320092194733.5,2.764266832693092e+16,350333823753124.3,425908298901233.06,23353205815322.99,51663722884347.87,923195583002725.1,2.287989360037944e+16
6.040198318074262,2993213457796461.0,2.858976155584903e+16,350907494394869.8,426605722558788.44,24272728921878.2,53701844290681.09,959620356310983.2,2.3781439951575376e+16
6.261002284435747,2997873910806419.0,2.9555366659604256e+16,351453859675314.75,427269950505330.75,25210574607087.008,55780881000898.54,996776735564459.9,2.4701000747444748e+16
6.486222330124463,3002317588919781.5,3.0539865756287748e+16,351974811487004.3,427903282755019.56,26167093136250.79,57901627714599.97,1034678946258112.0,2.5638922406016972e+16
6.715946776726952,3006559244300117.0,3.1543647344477268e+16,352472079290558.1,428507821850058.94,27142642563132.227,60064897240469.1,1073341538590748.2,2.659555912064218e+16
6.950265712261491,3010612388962129.0,3.2567106530399372e+16,352947247158520.9,429085493581266.2,28137588766352.473,62271520614255.23,1112779389620304.8,2.7571272901696548e+16
7.18927102650672,3014489422340016.0,3.361064524731794e+16,353401768730765.25,429638065169673.1,29152305499867.105,64522347249356.32,1153007706003611.5,2.8566433632324692e+16
7.433056447036854,3018201743531164.5,3.46746724686032e+16,353836980373306.7,430167161263981.2,30187174455867.04,66818245116411.08,1194042027256476.2,2.958141913660597e+16
7.681717575977592,3021759850315370.0,3.575960441571755e+16,354254112786758.0,430674278053206.56,31242585338712.344,69160100948891.11,1235898229480441.0,3.0616615258794184e+16
7.935351927497144,3025173426727809.5,3.686586476217507e+16,354654301272892.75,431160795747959.44,32318935948730.285,71548820472178.78,1278592529511381.8,3.167241595249412e+16
8.194058966047088,3028451420696245.5,3.799388483437931e+16,355038594836398.9,431627989645641.4,33416632274890.875,73985328654016.81,1322141489452198.0,3.2749223378819956e+16
8.45794014536803,3031602113030047.5,3.914410381012293e+16,355407964272755.4,432077039963047.0,34536088595524.23,76470569974557.16,1366562021558145.0,3.384744801272888e+16
8.72709894827539,3034633178861297.5,4.031696891542325e+16,355763309371244.2,432509040593225.44,35677727586372.805,79005508714523.92,1411871393448168.5,3.4967508756848376e+16
9.0016409272409,3037551742481909.0,4.151293562028355e+16,356105465343751.94,432925006921101.06,36841980435378.25,81591129260234.16,1458087233620137.2,3.6109833062221064e+16
9.281673745785717,3040364426388137.5,4.273246783389416e+16,356435208574464.75,433325882813511.25,38029286963691.086,84228436424431.34,1505227537251178.8,3.72748570554788e+16
9.567307220701432,3043077395232329.0,4.397603809972362e+16,356753261772521.56,433712546883394.7,39240095752468.24,86918455782052.03,1553310672267656.5,3.846302567203322e+16
9.85865336511546,3045696395286778.5,4.52441277908985e+16,357060298598545.1,434085818114354.7,40474864275087.0,89662234020188.28,1602355385671660.2,3.967479279493192e+16
10.155826432417769,3048226789944305.5,4.653722730622476e+16,357356947826517.8,434446460920354.94,41734059034458.64,92460839301638.31,1652380810113267.8,4.091062139908421e+16
10.458942961066125,3050673591711156.0,4.78558362671632e+16,357643797094461.8,434795189705487.56,43018155705171.81,95315361641534.7,1703406470699641.5,4.2170983700605784e+16
10.768121820287448,3053041491089251.0,4.920046371604059e+16,357921396290420.25,435132672980392.9,44327639280230.375,98226913296639.89,1755452292033620.5,4.345636131107e+16
11.083484256693197,3055334882694348.5,5.057162831574748e+16,358190260614408.1,435459537084734.3,45663004222195.19,101196629166965.11,1808538605475963.8,4.476724539648893e+16
11.405153941827061,3057557888913339.0,5.196985855115175e+16,358450873351862.9,435776369558939.3,47024754618551.55,104225667209446.2,1862686156626490.5,4.610413684087309e+16
11.733257020663602,3059714381366720.5,5.339569293243194e+16,358703688389778.3,436083722203123.9,48413404341165.6,107315208863464.34,1917916113020473.2,4.746754641424715e+16
12.067922161076874,3061808000409795.5,5.484968020052119e+16,358949132502920.75,436382113856486.1,49829477209701.82,110466459488046.23,1974250072037590.8,4.885799494501667e+16
12.409280604298411,3063842172878497.0,5.6332379534831064e+16,359187607434247.56,436672032926520.44,51273507158897.7,113680648810629.6,2031710069021431.2,5.027601349660087e+16
12.75746621638438,3065820128261300.0,5.784436076341592e+16,359419491790808.9,436953939693906.6,52746038409606.59,116959031387316.55,2090318585608337.8,5.172214354826461e+16
13.112615540712067,3067744913457734.5,5.938620457572265e+16,359645142773957.2,437228268415958.4,54247625643530.74,120302887074567.33,2150098558265002.0,5.3196937180091944e+16
13.474867851526309,3069619406265613.5,6.095850273806395e+16,359864897760510.3,437495429248879.0,55778834181583.32,123713521512322.33,2211073387034668.0,5.470095726206032e+16
13.844365208556836,3071446327722997.5,6.256185831193759e+16,360079075749653.9,437755810006794.4,57340240165819.086,127192266618569.23,2273266944492406.0,5.623477764718134e+16
14.221252512727972,3073228253417028.5,6.419688587531574e+16,360287978688728.1,438009777773536.4,58932430744894.67,130740481095382.84,2336703584910300.5,5.779898336868582e+16
14.605677562982532,3074967623859256.5,6.586421174701135e+16,360491892689571.2,438257680381377.7,60556004263013.516,134359550946508.53,2401408153633764.5,5.939417084123792e+16
14.997791114242183,3076666754016510.5,6.756447421422988e+16,360691089145865.6,438499847769414.6,62211570452326.41,138050890006556.08,2467405996670597.5,6.1020948066168584e+16
15.397746936527026,3078327842076692.0,6.929832376340404e+16,360885825760785.25,438736593232902.94,63899750628759.25,141815940481905.62,2534722970494695.0,6.267993484072835e+16
15.805701875257567,3079952977520436.0,7.1066423314408344e+16,361076347493279.8,438968214573670.3,65621177891245.85,145656173503436.8,2603385452066609.5,6.437176297135966e+16
16.221815912762718,3081544148562468.5,7.28694484582426e+16,361262887430455.6,439194995160689.94,67376497324345.63,149573089691202.25,2673420349073432.5,6.609707649100002e+16
16.64625223101797,3083103249019626.5,7.470808769827125e+16,361445667592736.75,439417204908935.9,69166366204233.56,153568219731192.0,2744855110390736.5,6.785653188042388e+16
17.079177275638333,3084632084656839.0,7.658304269510248e+16,361624899677841.06,439635101183844.2,70991454208044.61,157643124964330.78,2817717736769491.5,6.965079829364196e+16
17.5207608211511,3086132379057288.5,7.849502851518496e+16,361800785748959.1,439848929637953.7,72852443626566.62,161799397987884.47,2892036791751194.5,7.1480557787375064e+16
17.97117603757412,3087605779058253.0,8.044477388320285e+16,361973518872023.2,440058924985642.2,74750029580268.64,166038663269429.97,2967841412814443.5,7.334650555462274e+16
18.430599558325603,3089053859790173.5,8.243302143833853e+16,362143283706462.6,440265311721322.44,76684920238658.22,170362577773595.6,3045161322756689.5,7.524935016235166e+16
18.899211549492115,3090478129352863.0,8.446052799448046e+16,362310257053409.9,440468304785906.94,78657837042960.3,174772831601745.72,3124026841314736.0,7.7189813793329e+16
19.37719578048196,3091880033159360.0,8.652806480444117e+16,362474608364953.4,440668110185922.6,80669514932111.75,179271148644817.66,3204468897027988.5,7.916863249212611e+16
19.864739696091597,3093260957975358.0,8.863641782825622e+16,362636500217699.0,440864925569217.8,82720702572061.44,183859287249530.3,3286519039348519.0,8.118655641532392e+16
20.36203449001343,3094622235679181.0,9.07863880056294e+16,362796088753565.1,441058940760860.75,84812162588373.67,188539040898168.38,3370209451002124.0,8.324435008594707e+16
20.869275179813698,3095965146765337.0,9.297879153258638e+16,362953524090516.75,441250338262469.1,86944671802126.42,193312238902180.75,3455572960604797.5,8.534279265215902e+16
21.38666068340997,3097290923612096.5,9.52144601424024e+16,363108950705652.2,441439293717934.1,89119021469094.84,198180747109820.5,3542643055539146.0,8.748267815024869e+16
21.91439389707817,3098600753532392.5,9.7494241390859e+16,363262507792851.75,441625976348231.44,91336017522213.33,203146468628072.53,3631453895095463.5,8.966481577193958e+16
22.452681775019734,3099895781624802.0,9.981899894589558e+16,363414329597028.4,441810549357770.6,93596480817306.6,208211344559113.5,3722040323882171.5,9.189003013605757e+16
23.00173541052013,3101177113440548.0,1.0218961288170848e+17,363564545726785.9,441993170314496.75,95901247382077.88,213377354751565.97,3814437885510700.0,9.415916156458234e+16
23.561770118730532,3102445817480794.0,1.0460697997735285e+17,363713281447186.06,442173991505820.8,98251168668341.16,218646518566800.9,3908682836559887.0,9.647306636312406e+16
24.133005521105144,3103702927537198.5,1.0707201401990413e+17,363860657954144.6,442353160272209.9,100647111807484.45,224020895660569.22,4004812160825079.0,9.88326171058475e+16
24.715665631527248,3104949444887820.0,1.0958564611223154e+17,364006792631863.75,442530819320142.6,103089959869147.5,229502586780228.94,4102863583857372.5,1.0123870292488485e+17
25.309978944157795,3106186340359157.5,1.1214882498543064e+17,364151799294579.1,442707107016016.25,105580612123094.0,235093734577853.2,4202875587798446.0,1.0369222980426133e+17
25.91617852304095,3107414556264509.5,1.1476251731596987e+17,364295788413797.5,442882157662402.0,108119984304259.3,240796524439517.12,4304887426516696.0,1.0619412087836867e+17
26.53450209350177,3108635008227799.0,1.1742770804759365e+17,364438867332113.44,443056101757985.25,110709008880947.67,246613185331045.2,4408939141050407.5,1.0874531673501352e+17
27.165192135371807,3109848586901248.5,1.2014540071803182e+17,364581140464579.8,443229066242373.94,113348635326155.58,252545990660535.22,4515071575363875.0,1.1134677572307298e+17
27.808495978079243,3111056159584725.5,1.2291661779055594e+17,364722709488553.25,443401174726901.06,116039830391989.62,258597259157960.2,4623326392422531.0,1.1399947426478306e+17
28.464665897640828,3112258571753940.5,1.2574240099042821e+17,364863673522845.9,443572547712426.3,118783578387146.58,264769355772162.03,4733746090593365.0,1.1670440717268632e+17
29.133959215593645,3113456648504008.5,1.2862381164628254e+17,365004129296963.3,443743302795072.56,121580881457421.17,271064692585575.66,4846374020376744.0,1.1946258797126666e+17
29.816638399905518,3114651195914386.5,1.3156193103647246e+17,365144171311126.06,443913554860776.9,124432759869199.58,277485729746981.22,4961254401476352.0,1.222750492232936e+17
30.51297116790363,3115843002340952.0,1.3455786074042856e+17,365283891987738.94,444083416269430.44,127340252295899.02,284034976422656.0,5078432340213649.0,1.2514284286089824e+17
31.223230591261704,3117032839640191.0,1.3761272299505424e+17,365423381814911.75,444252997029358.6,130304416107299.16,290714991766238.7,5197953847293755.0,1.2806704052140266e+17
31.947695203086937,3118221464330367.0,1.4072766105619502e+17,365562729482587.44,444422404962820.06,133326327661724.0,297528385907667.56,5319865855929511.0,1.3104873388792045e+17
32.686649107148675,3119409618694085.0,1.4390383956520821e+17,365702022011797.75,444591745863142.0,136407082601005.45,304477820961552.1,5444216240330871.0,1.3408903503474582e+17
33.44038208929165,3120598031826203.5,1.4714244492066294e+17,365841344877525.4,444761123644083.44,139547796148178.77,311566012055322.75,5571053834566676.0,1.3718907677754493e+17
34.20918973107749,3121787420631177.0,1.504446856551917e+17,365980782125607.4,444930640481964.94,142749603407837.44,318795728377544.8,5700428451806317.0,1.4035001302836134e+17
34.993373525699035,3122978490772876.0,1.5381179281751914e+17,366120416484108.25,445100396951058.06,146013659669079.12,326169794246761.1,5832390903948508.0,1.4357301915544688e+17
35.793240996213015,3124171937580605.0,1.572450203596807e+17,366260329469519.56,445270492152703.0,149341140710963.6,333691090201249.8,5966993021645056.0,1.468592923479208e+17
36.60910581613728,3125368446914035.0,1.6074564552945322e+17,366400601488166.3,445441023838586.25,152733243110403.8,341362554110081.0,6104287674727288.0,1.502100519852644e+17
37.44128793246003,3126568695989903.0,1.6431496926800592e+17,366541311933131.25,445612088528571.75,156191184552399.28,349187182305872.94,6244328793042915.0,1.5362654001165315e+17
38.29011369110923,3127773354173290.0,1.679543166127826e+17,366682539277004.56,445783781623462.8,159716204142517.0,357168030739645.5,6387171387711798.0,1.571100213151152e+17
39.15591596493141,3128983083735594.5,1.7166503710561907e+17,366824361160758.6,445956197513046.4,163309562721526.25,365308216158186.75,6532871572808472.0,1.6066178411152154e+17
40.03903428423004,3130198540581720.5,1.7544850520609814e+17,366966854478993.0,446129429679728.0,166972543182062.9,373610917304339.06,6681486587480058.0,1.6428314033339104e+17
40.93981496991464,3131420374948513.0,1.7930612071014125e+17,367110095461813.1,446303570798074.6,170706450787230.44,382079376140635.9,6833074818508133.0,1.6797542602349725e+17
41.85861126931294,3132649232076349.0,1.832393091738309e+17,367254159753569.5,446478712830536.25,174512613490997.75,390716899096710.75,6987695823323150.0,1.7174000173325952e+17
42.7957834946992,3133885752855798.5,1.8724952234244586e+17,367399122488665.25,446654947119609.75,178392382260272.72,399526858340933.75,7145410353480481.0,1.755782529259001e+17
