t(s),Total solute volume 1,Total retention volume 1,Total 1 volume 1,Total 2 volume 1,Total 3 volume 1,Total 4 volume 1,Total 5 volume 1,Total 6 volume 1
0.1,1012905215437994.5,1251976985692815.0,109237715628389.53,129834054626431.92,0.0,0.0,0.0,0.0
0.202,1525742798898079.8,1885859618269203.0,164545167718971.1,195569509855195.56,2363663.862419119,5040510.103619744,85480336.47504199,2048912447.4985178
0.30604000000000003,1916413977975063.0,2368742571292113.0,206677468677760.34,245645690154033.4,5997045.743287067,12788696.457197502,216881025.25152925,5198818482.657344
0.41216080000000005,2246880222953524.0,2777211597974101.5,242316911834736.94,288004809804752.3,10652385.767033773,22716209.31549492,385241063.4030259,9234771424.189493
0.5204040160000001,2540365638363667.5,3139972191369612.0,273968122620422.53,325623731568545.6,16219730.414733673,34588572.5330532,586583874.9937829,14061424792.599756
0.6308120963200001,2808443220547717.0,3471328820237338.0,302879201720798.3,359985880613010.4,22640123.36487123,48280061.65903528,818777267.5717779,19627658364.673866
0.7434283382464002,3057839793711994.0,3779595982388133.5,329775609823955.8,391953500384354.5,29879880.841238543,63718845.99525349,1080603049.5962157,25904266050.86331
0.8582969050113283,3292864818332536.0,4070100264993195.0,355122104750716.9,422078976960185.8,37920022.363418005,80864449.64281683,1371374781.9675283,32874790497.682114
0.9754628431115548,3516471464647066.5,4346491854089326.0,379237173924523.3,450740847312756.94,46751063.483519174,99696647.00313786,1690749453.4318385,40531007817.28308
1.094972099973786,3730786247931896.0,4611399174838208.0,402350153386483.44,478211687889849.8,56370132.24392786,120209313.61965933,2038623195.6087961,48870427335.98607
1.2168715419732616,3937399800632181.5,4866788291814054.0,424632586389450.3,504695385748409.25,66779236.68021723,142406731.6255732,2415068626.412739,57894789421.51314
1.3412089728127268,4137538371952541.5,5114174885922475.0,446216718932796.44,530349121349596.75,77984159.65511112,166301232.97599444,2820294881.273496,67609107256.01051
1.4680331522689813,4332170812325432.5,5354756489295897.0,467207037603081.75,555297081813881.9,89993721.14658345,191911626.27658287,3254620933.5198503,78021027214.39914
1.597393815314361,4522078391517346.0,5589498781812724.0,487687799173430.2,579639410196714.4,102819268.28630452,219262109.29004663,3718457151.4535832,89140386713.41467
1.729341691620648,4707902084688785.0,5819194037559597.0,507728130213163.94,603458266609467.5,116474313.15805249,248381496.54094985,4212292199.2197914,100978900174.39508
1.863928525453061,4890175609401091.0,6044501959186385.0,527385589994897.1,626822062898607.6,130974270.15716061,279302659.2345159,4736683538.33688,113549931308.71341
2.001207095962122,5069349125688703.0,6265978971631931.0,546708726451121.25,649788500517843.1,146336262.6163432,312062112.88605726,5292250434.267357,126868325459.01572
2.1412312378813647,5245806629464580.0,6484099720691841.0,565738951982398.1,672406800012533.6,162578978.96890697,346699710.5889209,5879668754.522843,140950284890.46347
2.284055862638992,5419878972892001.0,6699273166436439.0,584511947651593.9,694719369969225.5,179722565.20656803,383258413.6807174,6499667079.373489,155813275550.05997
2.4297369798917723,5591853782283193.0,6911854841916621.0,603058732788989.1,716763078290581.8,197788544.50812897,421784120.3514206,7153023795.198537,171475957383.51126
2.578331719489608,5761983130093852.0,7122156335893118.0,621406492385758.0,738570235590646.8,216799757.6089846,462325538.4813117,7840564937.934134,187958132634.63135
2.7298983538794,5930489551722497.0,7330452729716352.0,639579225981347.5,760169366427369.0,236780319.28897917,504934092.85132253,8563162619.444817,205280708119.50906
2.884496320956988,6097570822779663.0,7536988502126499.0,657598262872576.1,781585821652359.8,257755587.59695783,549663859.5143719,9321733914.520542,223465668543.4681
3.0421862473761276,6263403794652649.0,7741982270091873.0,675482675763711.0,802842270053046.1,279752143.29956347,596571521.9699328,10117240117.635494,242536058682.50433
3.2030299723236504,6428147505260612.0,7945630633771494.0,693249616248791.5,823959097088876.8,302797777.66191405,645716345.1063327,10950686301.031036,262515972788.47702
3.3670905717701234,6591945725304185.0,8148111323740476.0,710914589414304.5,844954731269241.6,326921487.11747843,697160163.8342732,11823121121.947948,283430549967.2395
3.5344323832055258,6754929060088469.0,8349585798897880.0,728491680512276.0,865845913564878.0,352153473.71547836,750967384.04094,12735636838.803738,305305974565.8851
3.7051210308696363,6917216697978250.0,8550201407607391.0,745993743524050.4,886647921524614.2,378525150.4811531,807204994.020776,13689369505.044409,328169480819.41394
3.879223451487029,7078917875319033.0,8750093198386108.0,763432559146098.1,907374757048771.8,406069151.0108658,865942584.937068,14685499316.150288,352049361169.0049
4.0568079205167695,7240133111938772.0,8949385447028825.0,780818968033845.9,928039304755604.6,434819342.7667207,927252379.1727775,15725251090.434975,376974977787.7264
4.237944078927105,7400955259568003.0,9148192952497100.0,798162983869547.8,948653466367650.4,464810843.6456361,991209265.6640694,16809894868.265415,402976776945.1745
4.422702960505647,7561470396597821.0,9346622142881198.0,815473889858276.2,969228275401692.5,496080041.4838327,1057890841.4937187,17940746617.4419,430086305917.0953
4.61115701971576,7721758595774231.0,9544772024309954.0,832760321520675.1,989773995571726.2,528664616.2256075,1127377459.1660225,19119169034.932182,458336232204.9054
4.803380160110075,7881894586162528.0,9742734999178244.0,850030338083105.9,1010300205639451.6,562603564.5390967,1199752279.0999732,20346572437.101162,487760364876.7181
4.9994477633122765,8041948326615192.0,9940597574992526.0,867291484323836.2,1030815872921326.9,597937226.7050718,1275101326.969639,21624415732.14517,518393677879.06683
5.199436718578522,8201985504759925.0,1.0138440981159158e+16,884550844386893.9,1051329417248787.4,634707315.6397277,1353513555.5953507,22954207469.70261,550272335198.7616
5.403425452950093,8362067972979566.0,1.0336341707894926e+16,901815088800695.5,1071848766852078.4,672956947.9409896,1435080911.149935,24337506963.645042,583433717779.098
5.611493962009095,8522254130828335.0,1.0534371978933466e+16,919090515720124.9,1092381407378340.5,712730676.871248,1519898403.4945076,25775925484.899113,617916452114.9213
5.823723841249277,8682599261704935.0,1.0732600167693282e+16,936383087235328.9,1112934425046301.5,754074527.208853,1608064180.4993038,27271127521.853317,653760440467.8757
6.040198318074262,8843155830290807.0,1.0931091164952334e+16,953698461449245.6,1133514544771891.5,797036031.9168806,1699679606.2399023,28824832106.485607,691006892657.1764
6.261002284435747,9003973746198366.0,1.1129906704759216e+16,971042020910985.9,1154128163962633.0,841664270.5912848,1794849342.9879475,30438814204.84314,729698359393.0873
6.486222330124463,9165100598405066.0,1.1329105654235696e+16,988418897898603.4,1174781382567352.0,888009909.6620666,1893681436.9402313,32114906170.92017,769878767130.2266
6.715946776726952,9326581864336346.0,1.1528744272046972e+16,1005833996967834.8,1195480029876430.0,936125244.3309534,1996287407.6508489,33854999263.336506,811593454426.3756
6.950265712261491,9488461096577592.0,1.1728876439598124e+16,1023292015094067.5,1216229688481298.2,986064242.4796414,2102782345.7358453,35661047007.387764,854889551587.3503
7.18927102650672,9650780091777006.0,1.1929553868346354e+16,1040797459864418.9,1237035715816897.2,1037882589.1006826,2213284991.4340935,37535059745.9944,899814660705.4686
7.433056447036854,9813579039680960.0,1.2130826286290012e+16,1058354665585809.2,1257903263426722.2,1091637734.8614087,2327917862.315767,39479116920.41315,946418923975.5
7.681717575977592,9976896660276472.0,1.2332741606041832e+16,1075967808051672.6,1278837294433583.0,1147388944.0238256,2446807339.4632077,41495361825.79181,994753721985.257
7.935351927497144,1.0140770326342904e+16,1.2535346076720962e+16,1093640917764562.4,1299842599275408.0,1205197345.3150678,2570083779.932665,43586005185.754944,1044872051737.0658
8.194058966047088,1.0305236174718442e+16,1.2738684421528292e+16,1111377891935791.1,1320923809967318.8,1265125984.3434548,2697881628.5315847,45753327048.05149,1096828572119.8842
8.45794014536803,1.0470329207298128e+16,1.294279996263248e+16,1129182505377671.8,1342085413047598.8,1327239877.821957,2830339533.450274,47999678745.55097,1150679650919.6465
8.72709894827539,1.0636083382907996e+16,1.3147734734778726e+16,1147058420411753.8,1363331761354080.2,1391606069.627993,2967600465.809529,50327484923.64938,1206483413421.6055
9.0016409272409,1.080253170105073e+16,1.3353529588853634e+16,1165009195900444.2,1384667084758644.0,1458293688.731838,3109811843.1929984,52739245635.25461,1264299792632.7534
9.281673745785717,1.0969706278394578e+16,1.356022428648152e+16,1183038295496055.5,1406095499971574.5,1527374009.02914,3257125657.2402534,55237538504.63364,1324190581155.0364
9.567307220701432,1.1137638418768566e+16,1.376785758659641e+16,1201149095189476.2,1427621019513542.8,1598920511.1161513,3409698605.382485,57825020961.51848,1386219484742.8823
9.85865336511546,1.1306358677334858e+16,1.3976467324818286e+16,1219344890230935.0,1449247559941191.5,1673008946.048993,3567692226.8092937,60504432546.96351,1450452177580.7832
10.155826432417769,1.1475896919528812e+16,1.4186090486364334e+16,1237628901486401.5,1470978949402075.0,1749717401.1310596,3731273042.7604737,63278597292.55355,1516956359319.305
10.458942961066125,1.1646282375288356e+16,1.4396763273139284e+16,1256004281286033.5,1492818934585760.0,1829126367.7753205,3900612701.2424626,66150426174.64788,1585801813909.9082
10.768121820287448,1.181754368903421e+16,1.4608521165575734e+16,1274474118814340.2,1514771187130319.2,1911318811.4906635,4075888126.2744184,69122919645.44206,1657060470281.3066
11.083484256693197,1.1989708965810688e+16,1.4821398979730644e+16,1293041445086273.0,1536839309536611.2,1996380244.044025,4257281671.774031,72199170242.71663,1730806464902.1387
11.405153941827061,1.2162805813950444e+16,1.5035430920087538e+16,1311709237548430.5,1559026840637056.2,2084398797.8522356,4444981280.198365,75382365280.22466,1807116206276.8115
11.733257020663602,1.233686138458748e+16,1.5250650628465316e+16,1330480424340429.5,1581337260660428.8,2175465302.660155,4639180646.060108,78675789620.76144,1886068441423.4224
12.067922161076874,1.2511902408308166e+16,1.5467091229391054e+16,1349357888247487.0,1603773995929742.8,2269673364.563667,4840079384.444288,82082828534.03836,1967744324384.6758
12.409280604298411,1.268795522919785e+16,1.5684785372256648e+16,1368344470372291.2,1626340423226386.2,2367119447.4386797,5047883204.655731,85606970641.56798,2052227486824.7043
12.75746621638438,1.286504583651594e+16,1.5903765270545864e+16,1387442973550965.0,1649039873850181.0,2467902956.83935,5262804089.132335,89251810950.85167,2139604110766.7058
13.112615540712067,1.3043199894206416e+16,1.6124062738388506e+16,1406656165535705.2,1671875637402080.5,2572126326.431277,5485060477.763967,93021053981.242,2229963003528.2617
13.474867851526309,1.3222442768431628e+16,1.6345709224673666e+16,1425986781964152.5,1694850965313408.0,2679895107.0275083,5714877457.7619,96918516983.93683,2323395674913.238
13.844365208556836,1.3402799553296836e+16,1.6568735844928826e+16,1445437529133703.8,1717969074143269.5,2791318058.2975383,5952486959.228617,100948133258.64317,2419996416721.1963
14.221252512727972,1.3584295094918298e+16,1.6793173411154414e+16,1465011086597148.5,1741233148663557.0,2906507243.221998,6198127956.582574,105113955569.54103,2519862384637.1455
14.605677562982532,1.376695401397127e+16,1.7019052459781814e+16,1484710109594369.8,1764646344749160.2,3025578125.3678646,6452046675.997756,109420159663.24539,2623093682566.6357
14.997791114242183,1.3950800726842714e+16,1.7246403277909474e+16,1504537231333595.8,1788211792089340.0,3148649669.0614543,6714496809.022974,113871047891.5751,2729793449483.174
15.397746936527026,1.4135859465500866e+16,1.747525592795567e+16,1524495065134245.0,1811932596734578.2,3275844442.5389757,6985739732.550592,118471052941.99896,2840067948857.1553
15.805701875257567,1.4322154296184076e+16,1.7705640270854462e+16,1544586206442430.8,1835811843492114.0,3407288724.156751,7266044735.310066,123224741678.73895,2954026660737.322
16.221815912762718,1.4509709137001248e+16,1.7937585987909926e+16,1564813234729128.2,1859852598182001.5,3543112611.7457495,7555689251.066888,128136819097.58533,3071782376558.395
16.64625223101797,1.4698547774529154e+16,1.81711226014121e+16,1585178715280070.0,1884057909764488.2,3683450135.1975727,7854959098.712374,133212132397.58014,3193451296750.2134
17.079177275638333,1.4888693879482426e+16,1.8406279494111348e+16,1605685200885762.8,1908430812348646.2,3828439372.371622,8164148729.43613,138455675172.8098,3319153131226.288
17.5207608211511,1.5080171021527648e+16,1.86430859276366e+16,1626335233439071.8,1932974327091232.2,3978222568.4158926,8483561481.177839,143872591727.65198,3449011202831.82
17.97117603757412,1.5273002683305062e+16,1.8881571059937936e+16,1647131345447437.2,1957691463993958.8,4132946258.596214,8813509840.561092,149468181518.90604,3583152553833.525
18.430599558325603,1.546721227371657e+16,1.9121763961825636e+16,1668076061465894.8,1982585223606771.2,4292761394.731844,9154315712.517578,155247903728.34842,3721708055535.9873
18.899211549492115,1.5662823140533902e+16,1.9363693632672016e+16,1689171899456879.0,2007658598643971.2,4457823475.337837,9506310697.816147,161217381969.34415,3864812521111.7803
19.37719578048196,1.5859858582376534e+16,1.9607389015337904e+16,1710421372081908.5,2032914575519520.0,4628292679.57766,9869836378.716955,167382409131.25235,4012604821734.754
19.864739696091597,1.6058341860103976e+16,1.985287901037866e+16,1731826987930271.5,2058356135807305.5,4804334005.131948,10245244612.977266,173748952365.46576,4165228006108.7227
20.36203449001343,1.6258296207664572e+16,2.010019248958228e+16,1753391252688997.0,2083986257631759.5,4986117410.093052,10632897836.441921,180323158217.0392,4322829423486.195
20.869275179813698,1.6459744842438746e+16,2.034935830888623e+16,1775116670258317.5,2109807916993633.8,5173817958.9972515,11033169374.457342,187111357905.95474,4485560850274.329
21.38666068340997,1.666271097511219e+16,2.060040532071702e+16,1797005743816460.0,2135824089035552.5,5367615973.109937,11446443762.355293,194120072762.20218,4653578620328.036
21.91439389707817,1.6867217819110976e+16,2.0853362385792664e+16,1819060976837219.2,2162037749251390.5,5567697185.082288,11873117075.258911,201356019818.95114,4827043759032.963
22.452681775019734,1.7073288599629068e+16,2.110825838442504e+16,1841284874063488.8,2188451874643455.0,5774252898.101084,12313597267.469812,208826117568.21036,5006122121283.616
23.00173541052013,1.7280946562276068e+16,2.1365122227356908e+16,1863679942439900.8,2215069444830889.2,5987480149.656332,12768304521.703384,216537491883.50644,5190984533464.996
23.561770118730532,1.7490214981369658e+16,2.1623982866164636e+16,1886248692007152.0,2241893443112671.2,6207581880.055363,13237671608.445602,224497482114.19937,5381806939548.947
24.133005521105144,1.7701117167898022e+16,2.1884869303257016e+16,1908993636760691.2,2268926857488168.0,6434767105.814627,13722144255.7117,232713647356.21426,5578770551418.993
24.715665631527248,1.7913676477172772e+16,2.214781060149603e+16,1931917295476080.2,2296172681638145.5,6669251098.06487,14222181529.495617,241193772904.0681,5782062003541.248
25.309978944157795,1.8127916316193536e+16,2.2412835893466264e+16,1955022192503216.2,2323633915868711.0,6911255566.10795,14738256225.205729,249945876889.21277,5991873512101.097
25.91617852304095,1.8343860150742908e+16,2.2679974390415136e+16,1978310858531507.2,2351313568020773.0,7161008846.268029,15270855270.390772,258978217109.84488,6208403038729.413
26.53450209350177,1.8561531512228816e+16,2.294925539088695e+16,2001785831327774.0,2379214654347081.0,7418746096.183199,15820480139.067099,268299298057.4579,6431854458944.539
27.165192135371807,1.8780954004290852e+16,2.3220708289069068e+16,2025449656448746.0,2407340200359042.0,7684709494.687338,16387647277.967794,277917878145.57184,6662437735439.895
27.808495978079243,1.9002151309185948e+16,2.349436258287132e+16,2049304887929690.0,2435693241645200.5,7959148447.435979,16972888545.040413,287842977146.18164,6900369096350.309
28.464665897640828,1.9225147193966056e+16,2.3770247881753824e+16,2073354088950702.5,2464276824663143.5,8242319798.434125,17576751660.530792,298083883839.64514,7145871218633.587
29.133959215593645,1.9449965516462544e+16,2.404839391432043e+16,2097599832482052.8,2493094007506517.5,8534488047.627261,18199800670.9968,308650163883.83997,7399173416707.062
29.816638399905518,1.9676630231087504e+16,2.432883053569237e+16,2122044701909834.5,2522147860648679.5,8835925574.721903,18842616426.606373,319551667908.5994,7660511836482.725
30.51297116790363,1.9905165394463296e+16,2.46115877346755e+16,2146691291643147.0,2551441467664326.5,9146912869.404955,19505797072.08098,330798539841.5472,7930129654947.472
31.223230591261704,2.0135595170891644e+16,2.4896695640734056e+16,2171542207703817.2,2580977925930394.0,9467738768.13639,20189958551.65712,342401225471.6456,8208277285439.239
31.947695203086937,2.0367943837668428e+16,2.518418453078143e+16,2196600068299677.0,2610760347307491.0,9798700697.693197,20895735128.444458,354370481256.8894,8495212588772.787
32.686649107148675,2.060223579025525e+16,2.547408483579863e+16,2221867504382216.5,2640791858802590.0,10140104925.6471,21623779918.57036,366717383382.7243,8791201090372.706
33.44038208929165,2.0838495547312144e+16,2.5766427147288772e+16,2247347160189413.2,2671075603214299.5,10492266817.962605,22374765440.508648,379453337077.9703,9096516203574.951
34.20918973107749,2.1076747755599012e+16,2.6061242223574988e+16,2273041693774256.5,2701614739760987.5,10855511103.906233,23149384179.99952,392590086195.1085,9411439459261.162
34.993373525699035,2.1317017194748984e+16,2.635856099594767e+16,2298953777519594.0,2732412444692727.5,11230172148.46177,23948349170.975475,406139723062.0002,9736260741994.703
35.793240996213015,2.1559328781917856e+16,2.665841457466492e+16,2325086098639530.0,2763471911887203.0,11616594232.450212,24772394592.91847,420114698612.2115,10071278532828.582
36.60910581613728,2.1803707576310604e+16,2.6960834254808116e+16,2351441359667579.0,2794796353429934.5,12015131840.557486,25622276385.07907,434527832801.2716,10416800158961.47
37.44128793246003,2.205017878358472e+16,2.7265851521993612e+16,2378022278931596.5,2826389000178702.5,12426149957.475456,26498772877.998558,449392325316.3169,10773142050418.418
38.29011369110923,2.2298767760128524e+16,2.7573498057935944e+16,2404831591015116.0,2858253102311942.5,12850024372.36653,27402685442.78003,464721766586.69403,11140630003937.29
39.15591596493141,2.254950001720941e+16,2.7883805745859092e+16,2431872047204749.5,2890391929860429.0,13287141991.863949,28334839158.562256,480530149103.1961,11519599454243.66
40.03903428423004,2.280240122498428e+16,2.8196806675745e+16,2459146415922704.5,2922808773221381.0,13737901161.822426,29296083498.65329,496831879053.6965,11910395752899.416
40.93981496991464,2.3057497216362132e+16,2.8512533149407228e+16,2486657483143334.0,2955506943653533.5,14202711998.036335,30287293035.78751,513641788283.01807,12313374454910.916
41.85861126931294,2.3314813990703596e+16,2.883101768537183e+16,2514408052792103.5,2988489773751362.5,14681996726.14255,31309368166.969097,530975146584.8832,12728901613284.672
42.7957834946992,2.3574377717339388e+16,2.9152293023542464e+16,2542400947125097.5,3021760617896044.0,15176190030.926693,32363235858.36722,548847674333.85034,13157354081717.18
43.751699164593184,2.383621473888363e+16,2.947639212962095e+16,2570639007086259.5,3055322852680181.5,15685739415.248932,33449850410.72602,567275555465.038,13599119825606.125
