t(s),Total solute volume 1,Total retention volume 1,Total 1 volume 1,Total 2 volume 1,Total 3 volume 1,Total 4 volume 1,Total 5 volume 1,Total 6 volume 1
0.1,1038034012882719.0,1307672365282961.0,121693262551923.95,147945089848319.12,0.0,0.0,0.0,0.0
0.202,1563418042109443.5,1969675691619700.5,183286328456605.56,222825093858604.06,143173780.70102695,316123188.3939288,5647904502.013564,140119993577.8588
0.30604000000000003,1963623036013995.0,2474062201314443.0,230204108683266.1,279864039039492.1,363237346.75692874,802016951.0151225,14329111934.702894,355523211456.57025
0.41216080000000005,2302114117951710.5,2900767285622014.5,269886897302036.16,328107250630783.1,645176468.3994676,1424530182.8316667,25451260664.34641,631498770170.1947
0.5204040160000001,2602687831248401.0,3279762033909998.0,305124467099935.5,370946314957617.2,982323555.5903518,2168941031.9983644,38751312625.52384,961518026834.0762
0.6308120963200001,2877203411504710.0,3625982565098979.0,337307128093868.44,410071461553707.0,1371100084.5957243,3027348226.1361346,54088096043.5409,1342077402342.1401
0.7434283382464002,3132554258265301.0,3948110806979326.0,367243023636246.6,446465167518245.8,1809458252.9549983,3995230283.7135577,71380826055.33188,1771172044935.705
0.8582969050113283,3373156550855445.0,4251708897344804.5,395449881727248.56,480756845814368.6,2296240660.669224,5070031707.122538,90583843847.16357,2247668831532.92
0.9754628431115548,3602036527002108.0,4540588570326570.0,422282481439472.0,513377808920524.44,2830864810.0886054,6250466367.164048,111674170191.71933,2770997463093.622
1.094972099973786,3821373223113523.5,4817494699658366.0,447996280732770.06,544638622521622.75,3413148377.3528028,7536131707.338764,134644612460.38914,3340979397902.8594
1.2168715419732616,4032796451149937.5,5084480570358121.0,472782349584967.0,574771574460710.8,4043204215.923612,8927276914.672766,159499622561.2605,3957725058822.623
1.3412089728127268,4237562552354049.5,5343129217575809.0,496787974369703.06,603955723920261.5,4721373365.1358185,10424655004.558054,186252654164.37482,4621568249256.188
1.4680331522689813,4436664037981113.5,5594691501757861.0,520129511518331.25,632332527892873.1,5448180319.736622,12029424057.226038,214924398113.7252,5333022363055.397
1.597393815314361,4630901142236544.0,5840176216480119.0,542900775983465.4,660016039215157.6,6224302096.552432,13743078917.885424,245541562128.8868,6092750101815.794
1.729341691620648,4820930284065936.0,6080411116151224.0,565178722626391.1,687099813551473.8,7050546251.976451,15567402660.017113,278136003611.35077,6901541954895.911
1.863928525453061,5007297926042947.0,6316085553744140.0,587027415642437.0,713661735108934.5,7927834929.993176,17504431363.922638,312744100351.7315,7760300583178.111
2.001207095962122,5190464864287731.0,6547781068221105.0,608500876174263.5,739767478541556.5,8857193105.169657,19556428157.63969,349406286725.60583,8670029309557.662
2.1412312378813647,5370824054881272.0,6775993832567178.0,629645172180299.2,765473049647841.0,9839739825.1621,21725863880.702663,388166708218.1209,9631823545832.66
2.284055862638992,5548713958422405.0,7001151458009848.0,650499982875478.1,790826687294709.0,10876681650.257536,24015402598.895058,429072962620.0593,10646864370386.824
2.4297369798917723,5724428704855748.0,7223625794226827.0,671099790398433.6,815870312152710.1,11969307737.02495,26427890749.15063,472175906082.79626,11716413715369.08
2.578331719489608,5898225956432798.0,7443742831038508.0,691474801620784.5,840640647359195.0,13118986176.35281,28966349054.105274,517529508657.8667,12841810781846.262
2.7298983538794,6070333074206496.0,7661790463957293.0,711651671072241.9,865170097393780.8,14327161305.66194,31633966587.602695,565190748267.0088,14024469408613.756
2.884496320956988,6240952014067970.0,7878024660052285.0,731654074924382.2,889487445882646.8,15595351790.256075,34434096538.43677,615219535014.125,15265876193943.53
3.0421862473761276,6410263257564916.0,8092674408501938.0,751503171817672.0,913618415835768.0,16925149321.43397,37370253335.88851,667678659828.0162,16567589221099.746
3.2030299723236504,6578428999798724.0,8305945735757899.0,771217976592567.6,937586123999780.9,18318217816.550713,40446110883.55564,722633762906.66,17931237275228.37
3.3670905717701234,6745595758698270.0,8518024992206479.0,790815666186101.9,961411452742966.4,19776293033.456207,43665501708.11785,780153318508.3644,19358519465891.562
3.5344323832055258,6911896528742493.0,8729081565299720.0,810311832122163.1,985113357013075.0,21301182531.78781,47032416873.95115,840308633426.1034,20851205189147.883
3.7051210308696363,7077452572460748.0,8939270136674662.0,829720690536933.0,1008709119669726.6,22894765928.554447,50551006547.53167,903173857071.4512,22411134377720.332
3.879223451487029,7242374921286573.0,9148732573386600.0,849055258130532.0,1032214565392562.0,24558995406.749615,54225581120.52467,968826001540.3729,24040217998860.85
4.0568079205167695,7406765641229915.0,9357599523095142.0,868327500547286.6,1055644241070304.6,26295896444.36931,58060612819.52537,1037344970373.861,25740438767974.16
4.237944078927105,7570718906761714.0,9565991767843162.0,887548458271931.2,1079011568855441.0,28107568737.882122,62060737745.150406,1108813594989.6335,27513852052594.586
4.422702960505647,7734321917164845.0,9774021379558762.0,906728354057418.8,1102328976766538.0,29996187299.405155,66230758294.66973,1183317677966.4724,29362586946406.816
4.61115701971576,7897655682614031.0,9981792711607426.0,925876685080514.5,1125608010723704.2,31964003710.939682,70575645931.42839,1260946042524.4785,31288847497015.832
4.803380160110075,8060795701850454.0,1.0189403253926562e+16,945002302388542.8,1148859431133746.8,34013347522.275932,75100544271.49017,1341790587673.1145,33294914074357.75
4.9994477633122765,8223812549115597.0,1.0396944373984326e+16,964113479708218.9,1172093296542481.0,36146627781.79086,79810772463.71208,1425946348601.7769,35383144869200.41
5.199436718578522,8386772384710351.0,1.0604501961651634e+16,983217973300704.5,1195319036401855.2,38366334691.46533,84711828844.09618,1513511561970.921,37555977513247.016
5.403425452950093,8549737400937508.0,1.0812156992792574e+16,1002323074241413.5,1218545514627573.2,40675041379.16745,89809394849.0685,1604587735829.253,39815930814032.35
5.611493962009095,8712766213108320.0,1.101998602376286e+16,1021435654259401.1,1241781085327050.8,43075405782.654564,95109339175.43835,1699279723938.3135,42165606599182.91
5.823723841249277,8875914203627874.0,1.122806162690879e+16,1040562206076027.6,1265033641839957.0,45570172640.90649,100617722177.34496,1797695804331.2878,44607691665746.555
6.040198318074262,9039233825830846.0,1.1436452775467248e+16,1059708879024907.1,1288310660042188.2,48162175589.37293,106340800492.65451,1899947761971.2637,47144959831244.75
6.261002284435747,9202774873147206.0,1.1645225184893664e+16,1078881510607411.6,1311619236708515.0,50854339356.524765,112285031893.03893,2006150975405.9905,49780274083894.34
6.486222330124463,9366584718288156.0,1.1854441616523942e+16,1098085654533479.2,1334966123602435.5,53649682059.78221,118457080353.48566,2116424507343.1545,52516588830111.73
6.715946776726952,9530708526411330.0,1.206416214855659e+16,1117326605711894.0,1358357757857363.8,56551317599.47761,124863821338.27257,2230891199093.111,55356952237984.445
6.950265712261491,9695189445621910.0,1.2274444418583312e+16,1136609422583564.0,1381800289127672.0,59562458149.99956,131512347301.52534,2349677768845.563,58304508675877.47
7.18927102650672,9860068777666658.0,1.2485343841265856e+16,1155938947132737.5,1405299603916778.0,62686416747.70004,138409973401.43637,2472914913763.6885,61362501245762.6
7.433056447036854,1.0025386131262672e+16,1.269691380423577e+16,1175319822862389.2,1428861347430168.2,65926609975.51308,145564243428.02658,2600737415893.45,64534274411221.23
7.681717575977592,1.0191179560154492e+16,1.2909205844854692e+16,1194756510979273.8,1452490943251948.8,69286560744.56017,152982935945.0641,2733284251899.3677,67823276720390.86
7.935351927497144,1.0357485687701916e+16,1.3122269810106262e+16,1214253304999891.8,1476193611101591.5,72769901173.3012,160674070647.37204,2870698706648.4116,71233063624401.62
8.194058966047088,1.0524339819554348e+16,1.3336154001580218e+16,1233814343959796.8,1499974382892816.5,76380375565.04556,168645914935.32208,3013128490674.425,74767300392100.36
8.45794014536803,1.0691776045759856e+16,1.3550905307248496e+16,1253443624384279.2,1523838117286548.2,80121843484.86299,176906990708.81464,3160725861563.999,78429765122082.38
8.72709894827539,1.085982730470717e+16,1.3766569322609664e+16,1273145007791513.8,1547789508837595.8,83998282737.96805,185466081319.5339,3313647922464.4644,82224388986893.55
9.0016409272409,1.1028525582651164e+16,1.3983190456895944e+16,1292922244056011.5,1571833116298337.5,88013793440.25856,194332239064.56253,3472056062940.8154,86155111794980.03
9.281673745785717,1.1197901817582294e+16,1.4200812036862314e+16,1312778960180568.5,1595973349118432.0,92172600223.21938,203514792283.33823,3636117119222.3696,90226105469287.55
9.567307220701432,1.1367986084912474e+16,1.4419476397510802e+16,1332718682037139.2,1620214493775535.8,96479056503.39488,213023353307.8762,3806002831267.45,94441631544565.53
9.85865336511546,1.1538807632673662e+16,1.4639224966577542e+16,1352744838500313.2,1644560718825547.8,100937647884.35728,222867826341.66797,3981890153797.9863,98806080949997.81
10.155826432417769,1.1710394940252812e+16,1.4860098342313868e+16,1372860768333072.5,1669016083273754.2,105552995862.10268,233058415641.42694,4163961402482.453,103323977640227.53
10.458942961066125,1.18827757722538e+16,1.5082136365238432e+16,1393069726501244.8,1693584544251463.0,110329861641.98447,243605633945.12274,4352404404516.91,107999982331827.9
10.768121820287448,1.2055977227955062e+16,1.5305378184457794e+16,1413374889971670.8,1718269964064943.2,115273150069.44856,254520311151.30222,4547412653695.839,112838896351172.31
11.083484256693197,1.2230025786782968e+16,1.5529862319085648e+16,1433779363043187.2,1743076116676445.5,120387913676.96544,265813603254.98438,4749185470067.099,117845665596059.36
11.405153941827061,1.240494735017113e+16,1.575562671523159e+16,1454286182254047.8,1768006693670214.2,125679356849.66376,277497001545.67474,4957928164270.089,123025384613538.27
11.733257020663602,1.2580767280138516e+16,1.59827087989792e+16,1474898320904566.8,1793065309750784.2,131152840112.28033,289582342073.25726,5173852206660.032,128383300796497.22
12.067922161076874,1.2757510434880442e+16,1.6211145525728528e+16,1495618693229594.0,1818255507815568.5,136813884540.13518,302081815387.7499,5397175401325.331,133924818701667.69
12.409280604298411,1.2935201201636946e+16,1.644097342623797e+16,1516450158251845.0,1843580763639387.5,142668176296.95004,315007976559.1587,5628122065109.345,139655504491800.44
12.75746621638438,1.3113863527074732e+16,1.6672228649666462e+16,1537395523343690.2,1869044490204662.0,148721571302.41367,328373755483.8229,5866923211750.938,145581090504858.72
13.112615540712067,1.3293520945394412e+16,1.690494700388607e+16,1558457547522319.8,1894650041707366.5,154980100032.50623,342192467483.92346,6113816741262.751,151707479953178.3
13.474867851526309,1.347419660435399e+16,1.713916399330749e+16,1579638944500545.0,1920400717265985.0,161449972455.67044,356477824206.95764,6369047634669.035,158040751755611.1
13.844365208556836,1.3655913289379e+16,1.7374914854438114e+16,1600942385513352.8,1946299764357823.5,168137583108.02863,371243944832.25604,6632868154229.402,164587165505796.25
14.221252512727972,1.3838693445914308e+16,1.7612234589370272e+16,1622370501938351.8,1972350382004688.8,175049516310.92383,386505367591.75775,6905538049277.269,171353166579752.38
14.605677562982532,1.4022559200156866e+16,1.785115799737798e+16,1643925887726277.2,1998555723727770.8,182192551534.14325,402277061612.52136,7187324767806.634,178345391386096.9
14.997791114242183,1.4207532378294924e+16,1.8091719704785468e+16,1665611101656561.0,2024918900289744.5,189573668908.30487,418574439088.57104,7478503673943.135,185570672762283.1
15.397746936527026,1.4393634524367876e+16,1.8333954193253584e+16,1687428669431068.5,2051442982240197.2,197200054889.93735,435413367789.939,7779358271439.766,193036045520322.34
15.805701875257567,1.4580886916850054e+16,1.8577895826618556e+16,1709381085618345.0,2078131002279243.0,205079108082.8929,452810183916.9277,8090180433340.488,200748752145551.22
16.221815912762718,1.4769310584052126e+16,1.8823578876404444e+16,1731470815459122.2,2104985957452595.2,213218445219.82156,470781705307.80804,8411270637958.628,208716248652091.78
16.64625223101797,1.4958926318424982e+16,1.9071037546120812e+16,1753700296543285.2,2132010811190202.5,221625907307.50858,489345245008.3766,8742938211320.566,216946210598736.72
17.079177275638333,1.5149754689843818e+16,1.9320305994447016e+16,1776071940367189.5,2159208495199570.5,230309565939.98474,508518625211.97156,9085501576228.451,225446539269067.66
17.5207608211511,1.53418160579428e+16,1.9571418357395404e+16,1798588133779710.5,2186581911223748.8,239277729783.38013,528320191578.75946,9439288508099.135,234225368019718.38
17.97117603757412,1.553513058356428e+16,1.9824408769539584e+16,1821251240324498.0,2214133932673107.0,248538951236.60223,548768827943.2699,9804636397739.908,243291068800757.97
18.430599558325603,1.5729718239381746e+16,2.007931138438466e+16,1844063601485336.0,2241867406139385.0,258102033271.996,569883971419.3654,10181892521225.309,252652258852275.16
18.899211549492115,1.5925598819749296e+16,2.0336160393952372e+16,1867027537840858.2,2269785152799483.0,267976036460.22113,591685627912.0309,10571414317042.375,262317807581312.25
19.37719578048196,1.6122791949827316e+16,2.059499004764603e+16,1890145350134363.5,2297889969716051.5,278170286183.6913,614194388045.5325,10973569670675.014,272296843623388.5
19.864739696091597,1.632131709402839e+16,2.0855834670456964e+16,1913419320264007.8,2326184631041302.5,288694380042.9778,637431443517.7062,11388737206802.318,282598762092940.06
20.36203449001343,1.6521193563825178e+16,2.111872868056875e+16,1936851712198115.2,2354671889129778.0,299558195460.69354,661418603890.3252,11817306589287.89,293233232027090.8
20.869275179813698,1.6722440524957188e+16,2.138370660641047e+16,1960444772820078.0,2383354475565507.0,310771897487.43207,686178313825.6643,12259678829141.59,304210204027223.2
21.38666068340997,1.6925077004071282e+16,2.1650803103207716e+16,1984200732706843.0,2412235102108414.0,322345946814.45197,711733670779.6218,12716266600638.188,315539918102958.8
21.91439389707817,1.7129121894827136e+16,2.1920052969076548e+16,2008121806844709.8,2441316461564553.5,334291107997.8481,738108443161.8529,13187494565780.521,327232911723174.7
22.452681775019734,1.733459396349755e+16,2.219149116070054e+16,2032210195285824.8,2470601228584198.5,346618457899.0661,765327088973.6619,13673799707298.383,339300028078820.2
23.00173541052013,1.7541511854088636e+16,2.2465152808630924e+16,2056468083748522.2,2500092060391702.5,359339394346.6857,793414774934.5125,14175631670377.627,351752424562341.7
23.561770118730532,1.7749894093006718e+16,2.2741073232244676e+16,2080897644164347.2,2529791597450551.5,372465645024.47626,822397396108.244,14693453113317.176,364601581468631.9
24.133005521105144,1.7959759093291992e+16,2.3019287954395756e+16,2105501035174481.5,2559702464066821.0,386009276590.8343,852301596040.2123,15227740067315.045,377859310922484.0
24.715665631527248,1.8171125158441932e+16,2.3299832715788576e+16,2130280402577905.5,2589827268934084.0,399982704034.7589,883154787416.8228,15778982305587.643,391537766037613.7
25.309978944157795,1.838401048584165e+16,2.3582743489105612e+16,2155237879733612.8,2620168605622311.5,414398700273.64624,914985173259.0514,16347683722029.69,405649450312393.25
25.91617852304095,1.8598433169820828e+16,2.3868056492915144e+16,2180375587918918.2,2650729053013564.0,429270405998.2192,947821768661.756,16934362719625.605,420207227267529.9
26.53450209350177,1.881441120435086e+16,2.4155808205385756e+16,2205695636645746.2,2681511175686439.0,444611339770.0292,981694423090.7198,17539552608826.123,435224330330969.1
27.165192135371807,1.9031962485400308e+16,2.4446035377831852e+16,2231200123936668.5,2712517524251702.5,460435408377.0002,1016633843249.5974,18163802016106.465,450714372975409.0
27.808495978079243,1.925110481295915e+16,2.473877504811312e+16,2256891136562315.5,2743750635640867.5,476756917452.6209,1052671616529.0323,18807675302926.73,466691359113862.7
28.464665897640828,1.9471855892747456e+16,2.5034064553910304e+16,2282770750241612.0,2775213033349700.5,493590582364.3921,1089840235050.4446,19471752995316.324,483169693758797.8
29.133959215593645,1.9694233337617944e+16,2.5331941545896684e+16,2308841029806253.0,2806907227638073.0,510951539377.2706,1128173120317.112,20156632224309.16,500164193950415.8
29.816638399905518,1.9918254668664492e+16,2.563244400082594e+16,2335104029330636.0,2838835715688028.0,528855357097.9003,1167704648485.3167,20862927177456.492,517690099959749.4
30.51297116790363,2.0143937316046148e+16,2.5935610234554284e+16,2361561792228487.0,2871000981721176.5,547318048205.4621,1208470176268.49,21591269561649.883,535763086772272.25
31.223230591261704,2.0371298619535668e+16,2.6241478915013896e+16,2388216351317114.0,2903405497076849.5,566356081475.0963,1250506067487.4841,22342309077487.15,554399275857812.2
31.947695203086937,2.0600355828800628e+16,2.6550089075155628e+16,2415069728850445.0,2936051720252255.5,585986394099.8444,1293849720280.104,23116713905417.094,573615247232590.5
32.686649107148675,2.0831126103425436e+16,2.6861480125874944e+16,2442123936521545.5,2968942096905507.0,606226404317.1876,1338539594983.295,23915171203901.906,593428051819272.9
33.44038208929165,2.1063626512680772e+16,2.7175691868937116e+16,2469380975435595.0,3002079059822854.5,627094024346.24,1384615242701.466,24738387619836.99,613855224110975.4
34.20918973107749,2.129787403504615e+16,2.7492764509915504e+16,2496842836053948.5,3035465028850547.0,648607673641.7468,1432117334574.4314,25587089811470.973,634914795145196.0
34.993373525699035,2.1533885557491716e+16,2.78127386711562e+16,2524511498109906.0,3069102410792575.5,670786292471.1062,1481087691758.7092,26462024984068.844,656625305793663.2
35.793240996213015,2.1771677874524176e+16,2.813565540478038e+16,2552388930496883.0,3102993599274595.0,693649355820.5586,1531569316135.8818,27363961438564.64,679005820374189.0
36.60910581613728,2.201126768700004e+16,2.846155620573752e+16,2580477091129257.0,3137140974574843.0,717216887636.8646,1583606421761.8054,28293689133448.996,702075940590541.2
37.44128793246003,2.2252671600710264e+16,2.879048302491818e+16,2608777926776467.0,3171546903422411.5,741509475410.678,1637244467070.495,29252020260138.24,725855819806429.8
38.29011369110923,2.249590612473794e+16,2.9122478282336284e+16,2637293372870460.5,3206213738763141.0,766548285107.8873,1692530187846.5505,30239789832072.95,750366177659666.2
39.15591596493141,2.274098766959086e+16,2.9457584880388936e+16,2666025353286769.5,3241143819493497.0,792355076455.2036,1749511630979.8699,31257856287791.24,775628315022566.8
40.03903428423004,2.298793254510867e+16,2.9795846217200508e+16,2694975780099157.0,3276339470162276.0,818952218586.1824,1808238189016.5164,32307102108223.027,801664129314578.0
40.93981496991464,2.3236756958143828e+16,3.0137306200054824e+16,2724146553307759.0,3311803000640079.5,846362706053.8849,1868760635519.2585,33388434448448.66,828496130173150.6
41.85861126931294,2.3487477010013732e+16,3.048200925891956e+16,2753539560540348.5,3347536705756205.5,874610175216.2633,1931131161251.3535,34502785784161.785,856147455488686.0
42.7957834946992,2.374010869371974e+16,3.0830000360063052e+16,2783156676726355.5,3383542864902247.5,903718921000.2975,1995403411196.851,35651114573074.18,884641887809398.6
43.751699164593184,2.399466789092703e+16,3.1181325019761056e+16,2812999763742751.0,3419823741601663.5,933713914050.7203,2061632522430.3167,36834405931493.71,914003871121701.8
