t(s),Total solute volume 1,Total retention volume 1,Total 1 volume 1,Total 2 volume 1,Total 3 volume 1,Total 4 volume 1,Total 5 volume 1,Total 6 volume 1
0.1,1405356901042544.8,1.6627283363228424e+16,3932847546865173.5,1.1289078915320706e+16,0.0,0.0,0.0,0.355950925957304
0.202,1950792079676941.8,2.308733015898193e+16,5459246735645140.0,1.5670923868612144e+16,11627955825.169895,91332951166.4702,1392244384883.5566,4872269755814.257
0.30604000000000003,2397317236615237.0,2.8381829331949892e+16,6708839734514405.0,1.925797906207091e+16,28869560974.71563,227823797784.25394,3810581521666.2,13626023868913.377
0.41216080000000005,2784109966762524.0,3.297384245997996e+16,7791271942246221.0,2.236517123657967e+16,50798948554.43904,401622215242.6481,7077530035445.688,25759363192305.707
0.5204040160000001,3130934773757412.0,3.709688736664315e+16,8761854430590132.0,2.5151285876929416e+16,76938652756.26184,608888042660.3246,11101038342880.607,41025420327881.37
0.6308120963200001,3449174920500684.5,4.08854660654861e+16,9652443190465726.0,2.770777109954207e+16,107020695101.6538,847476895692.6501,15828471760155.701,59293885626654.555
0.7434283382464002,3745921421281426.5,4.44233735629579e+16,1.0482882344860506e+16,3.009159200449214e+16,140888526705.0976,1116137412391.3093,21227380803641.547,80493385581120.02
0.8582969050113283,4025886597035870.0,4.7766310945145144e+16,1.1266359257544098e+16,3.234060430294972e+16,178451774635.82294,1414146910678.1934,27277533616295.996,104590655313822.98
0.9754628431115548,4292369636389457.5,5.095329250811344e+16,1.2012106656152122e+16,3.4481311382285144e+16,219663050097.27872,1741125587273.6113,33966833740533.703,131577210908811.64
1.094972099973786,4547778881634000.0,5.4012814994271464e+16,1.2726864246376728e+16,3.653306012431233e+16,264504925258.91956,2096932407738.3018,41288844529654.734,161461460085719.28
1.2168715419732616,4793932481552575.0,5.6966409582748984e+16,1.3415720085964712e+16,3.851045618875213e+16,312982053407.93494,2481602184497.995,49241300381387.57,194264941860257.84
1.3412089728127268,5032241204021210.0,5.983080114194587e+16,1.408262218356861e+16,4.042483262001681e+16,365116119511.5582,2895305286490.088,57825160717419.89,230019552215828.25
1.4680331522689813,5263824876302962.0,6.261928301836272e+16,1.4730704355315756e+16,4.228518525377525e+16,420942456311.04095,3338320653306.541,67043951936529.29,268765317922610.1
1.597393815314361,5489589490294585.0,6.5342627470915064e+16,1.5362502002698552e+16,4.409879212867582e+16,480507692752.26636,3811017049038.658,76903298706445.48,310549025797886.3
1.729341691620648,5710280005184356.0,6.800970916020764e+16,1.598009987998635e+16,4.5871637666232136e+16,543868073642.7939,4313839670755.1875,87410588626590.14,355423312433816.44
1.863928525453061,5926517575187134.0,7.06279445754731e+16,1.6585236275436106e+16,4.760871173196916e+16,611088233745.4485,4847300380885.978,98574725529120.95,403445878736929.75
2.001207095962122,6138826450671695.0,7.320360949713666e+16,1.7179378293646032e+16,4.931422573958666e+16,682240288261.9076,5411970461502.884,110405942931912.8,454678859550601.6
2.1412312378813647,6347653834127555.0,7.574207333322504e+16,1.7763777422137534e+16,5.0991772159190984e+16,757403149114.7399,6008475167675.307,122915661683227.5,509188377768928.3
2.284055862638992,6553384817174004.0,7.824797539258726e+16,1.833951133231339e+16,5.26444445101069e+16,836662006834.4991,6637489600082.867,136116380959955.0,567044200426093.1
2.4297369798917723,6756353808677020.0,8.072535971479155e+16,1.890751586083983e+16,5.4274929165780184e+16,920107936673.3698,7299735567114.254,150021594200514.0,628319441790194.6
2.578331719489608,6956853408059113.0,8.317777974426275e+16,1.9468609841444256e+16,5.588557663522595e+16,1007837599348.1556,7995979200486.093,164645723932455.56,693090318801115.8
2.7298983538794,7155141385948519.0,8.560838068081992e+16,2.0023514640134988e+16,5.747845764023754e+16,1099953015019.1306,8727029153881.21,180004071401535.0,761435960928445.1
2.884496320956988,7351446242283620.0,8.801996504766226e+16,2.05728697094543e+16,5.905540776493154e+16,1196561395010.5427,9493735261228.254,196112778012182.06,833438256324363.5
3.0421862473761276,7545971680329396.0,9.041504546604778e+16,2.1117245108930596e+16,6.061806339654537e+16,1297775019767.1792,10296987563014.518,212988796229061.97,909181721430569.5
3.2030299723236504,7738900243389389.0,9.279588755403829e+16,2.1657151682349104e+16,6.216789093996408e+16,1403711154258.2673,11137715630622.389,230649868138420.75,988753393412440.0
3.3670905717701234,7930396297250374.0,9.516454511325682e+16,2.2193049404067364e+16,6.37062107763618e+16,1514491994085.3079,12016888134980.13,249114510332817.12,1072242745115388.5
3.5344323832055258,8120608496241257.0,9.752288922974955e+16,2.272535428023454e+16,6.5234217073594904e+16,1630244637123.4626,12935512618372.215,268402004088830.1,1159741618334561.5
3.7051210308696363,8309671837787171.0,9.987263252560523e+16,2.3254444098422132e+16,6.675299429088195e+16,1751101076662.3826,13894635437302.922,288532390002851.6,1251344171997126.8
3.879223451487029,8497709385947093.0,1.0221534951223442e+17,2.3780663250911324e+16,6.826353102435286e+16,1877198212833.9976,14895341850834.31,309526466414454.6,1347146844544982.8
4.0568079205167695,8684833726427967.0,1.0455249378392842e+17,2.4304326806522124e+16,6.976673169548813e+16,2008677879758.3801,15938756233942.879,331405791089241.56,1447248330287236.0
4.237944078927105,8871148202133966.0,1.068854126308094e+17,2.482572396827443e+16,7.126342647654775e+16,2145686886353.2263,17026042399539.357,354192685733337.9,1551749568834064.0
4.422702960505647,9056747968059490.0,1.0921535952918763e+17,2.5345121025485772e+16,7.275437976474826e+16,2288377069145.1035,18158404015920.797,377910242978761.5,1660753746830329.2
4.61115701971576,9241720896437804.0,1.1154350487451664e+17,2.5862763886812292e+16,7.424029745351038e+16,2436905355718.943,19337085108794.527,402582335534949.8,1774366311756746.5
4.803380160110075,9426148356968462.0,1.1387094525033989e+17,2.637888026370014e+16,7.572183320018768e+16,2591433837680.7896,20563370638909.477,428233627250685.56,1892694997756299.0
4.9994477633122765,9610105892215762.0,1.1619871147060854e+17,2.689368156047505e+16,7.71995938516803e+16,2752129852202.804,21838587147874.035,454889585866359.44,2015849863370958.2
5.199436718578522,9793663804547410.0,1.1852777558871069e+17,2.740736451687846e+16,7.867414415943248e+16,2919166071374.633,23164103465973.797,482576497261487.9,2143943341053443.5
5.403425452950093,9976887668030072.0,1.2085905703166086e+17,2.792011264059758e+16,8.014601089159277e+16,3092720598709.334,24541331476787.38,511321481023645.0,2277090298341350.0
5.611493962009095,1.015983877634567e+16,1.23193427990072e+17,2.8432097460750116e+16,8.16156864312143e+16,3272977072253.1797,25971726934202.7,541152507183567.4,2415408110571905.0
5.823723841249277,1.0342574535905676e+16,1.2553171817218523e+17,2.8943479628006908e+16,8.30836319342192e+16,3460124773831.8633,27456790328096.96,572098413975600.9,2559016744975866.0
6.040198318074262,1.0525148811821062e+16,1.278747190121816e+17,2.9454409882782024e+16,8.455028010864222e+16,3654358744035.512,28998067795500.594,604188926494468.8,2708038855902331.0
6.261002284435747,1.0707612233155572e+16,1.302231874083281e+17,2.9965029909477844e+16,8.601603766678717e+16,3855879902604.732,30597152074539.78,637454676130719.5,2862599890799634.5
6.486222330124463,1.0890012462884248e+16,1.3257784905452254e+17,3.0475473091958624e+16,8.748128749385542e+16,4064895173930.3403,32255683498855.46,671927220678027.9,3022828206473435.0
6.715946776726952,1.1072394437152814e+16,1.349394014189529e+17,3.09858651831132e+16,8.894639056995947e+16,4281617617422.25,33975351030537.527,707639065015527.0,3188855195063916.0
6.950265712261491,1.1254800577755422e+16,1.373085164154569e+17,3.1496324899469228e+16,9.041168767699419e+16,4506266562541.449,35757893329920.12,744623682278889.1,3360815419066660.0
7.18927102650672,1.143727098118963e+16,1.3968584280642454e+17,3.200696445026007e+16,9.187750091734866e+16,4739067748324.632,37605099860869.805,782915535445484.8,3538846754571476.5
7.433056447036854,1.1619843587181276e+16,1.4207200837046653e+17,3.2517890009037868e+16,9.334413506769454e+16,4980253467262.538,39518812030451.68,822550099270685.5,3723090541784473.0
7.681717575977592,1.1802554329178598e+16,1.4446762186336966e+17,3.30292021348283e+16,9.481187878792955e+16,5230062713420.928,41500924362081.3,863563882524354.6,3913691741833412.5
7.935351927497144,1.1985437268986818e+16,1.468732747969106e+17,3.354099614890255e+16,9.628100570271899e+16,5488741334719.502,43553385701485.44,905994450489670.6,4110799098776311.5
8.194058966047088,1.2168524717438884e+16,1.492895430567651e+17,3.405336247247192e+16,9.775177537086182e+16,5756542189309.711,45678200454999.12,949880447700539.0,4314565305647580.0
8.45794014536803,1.2351847342760774e+16,1.517169883779325e+17,3.4566386929945664e+16,9.922443415580506e+16,6033725306014.922,47877429859912.57,995261620907323.0,4525147173347664.0
8.72709894827539,1.2535434268083922e+16,1.5415615969369277e+17,3.508015102181752e+16,1.0069921600897552e+17,6320558048816.525,50153193286741.21,1042178842273681.0,4742705801206605.0
9.0016409272409,1.2719313159381614e+16,1.566075943720755e+17,3.5594732170753644e+16,1.0217634317618456e+17,6617315285387.837,52507669573442.41,1090674132820630.1,4967406748076299.0
9.281673745785717,1.2903510304953902e+16,1.590718193520669e+17,3.6110203944029464e+16,1.0365602683614208e+17,6924279559695.465,54943098391748.77,1140790686146720.5,5199420202843230.0
9.567307220701432,1.3088050687449878e+16,1.615493521902846e+17,3.6626636255082584e+16,1.0513846767902112e+17,7241741268701.647,57461781645897.03,1192572892463779.0,5438921153352644.0
9.85865336511546,1.3272958049294028e+16,1.640407020275606e+17,3.714409554660687e+16,1.0662385643203659e+17,7569998843211.623,60066084904120.73,1246066362996341.2,5686089552879485.0
10.155826432417769,1.345825495227675e+16,1.66546370483751e+17,3.766264495731514e+16,1.0811237433814464e+17,7909358932919.359,62758438863348.69,1301317954800614.5,5941110483417536.0
10.458942961066125,1.3643962831975656e+16,1.6906685248813834e+17,3.818234447423598e+16,1.0960419359321659e+17,8260136595712.274,65541340847610.664,1358375796064336.0,6204174315202455.0
10.768121820287448,1.383010204758616e+16,1.7160263705194512e+17,3.870325107216395e+16,1.1109947774633563e+17,8622655491298.591,68417356340676.37,1417289311951070.5,6475476862076291.0
11.083484256693197,1.4016691927661946e+16,1.7415420798875715e+17,3.92254188416629e+16,1.1259838206723778e+17,8997248079220.836,71389120553451.33,1478109251052043.8,6755219532509848.0
11.405153941827061,1.4203750812196862e+16,1.7672204458801517e+17,3.974889910683145e+16,1.1410105388436243e+17,9384255821318.207,74459340026647.92,1540887712507240.8,7043609476269311.0
11.733257020663602,1.4391296091420778e+16,1.7930662224618205e+17,4.027374053387234e+16,1.1560763289650683e+17,9784029388698.227,77630794269227.34,1605678173853860.5,7340859726870236.0
12.067922161076874,1.4579344241625406e+16,1.81908413059703e+17,4.0799989231350536e+16,1.171182514606224e+17,10196928873271.66,80906337433058.95,1672535519653360.8,7647189340144962.0
12.409280604298411,1.4767910858287312e+16,1.8452788638345485e+17,4.132768884288689e+16,1.1863303485789794e+17,10623324003897.092,84288900024176.9,1741516070940206.0,7962823529414501.0
12.75746621638438,1.495701068671564e+16,1.8716550935799763e+17,4.1856880632925784e+16,1.2015210153996086e+17,11063594367174.979,87781490650961.72,1812677615528147.8,8287993797849194.0
13.112615540712067,1.5146657650420064e+16,1.898217474086176e+17,4.2387603566121784e+16,1.2167556335676344e+17,11518129632924.59,91387197809520.44,1886079439201802.8,8622938068668024.0
13.474867851526309,1.5336864877362216e+16,1.9249706471885184e+17,4.291989438080426e+16,1.2320352576746787e+17,11987329784367.541,95109191706461.16,1961782357810958.8,8967900813915676.0
13.844365208556836,1.5527644724229002e+16,1.9519192468093238e+17,4.345378765690562e+16,1.2473608803543989e+17,12471605353032.521,98950726119179.56,2039848750275978.2,9323133182609754.0
14.221252512727972,1.571900879884986e+16,1.979067903253523e+17,4.398931587869561e+16,1.2627334340833448e+17,12971377658390.709,102915140293734.6,2120342592506947.2,9688893129013354.0
14.605677562982532,1.5910967980868048e+16,2.0064212473155466e+17,4.452650949262986e+16,1.2781537928415411e+17,13487079052227.285,107005860880361.27,2203329492233808.5,1.0065445541736242e+16
14.997791114242183,1.6103532440760878e+16,2.0339839142156528e+17,4.506539696057744e+16,1.2936227736404507e+17,14019153167746.55,111226403906593.73,2288876724737146.0,1.045306237437029e+16
15.397746936527026,1.6296711657293388e+16,2.0617605473822643e+17,4.560600480866506e+16,1.3091411379250926e+17,14568055173401.195,115580376787930.14,2377053269464557.5,1.0852022778332876e+16
15.805701875257567,1.6490514433489122e+16,2.0897558020954618e+17,4.61483576719706e+16,1.3247095928570269e+17,15134252031437.615,120071480375965.39,2467929847518683.5,1.1262613238457796e+16
16.221815912762718,1.6684948911199976e+16,2.117974349005462e+17,4.669247833529719e+16,1.3403287924848205e+17,15718222761148.934,124703511043933.11,2561578960003110.5,1.1685127711758606e+16
16.64625223101797,1.6880022584348878e+16,2.146420877538794e+17,4.723838777023229e+16,1.355999338807877e+17,16320458706821.227,129480362809536.34,2658074927208193.0,1.2119867769786134e+16
17.079177275638333,1.7075742310912216e+16,2.1751000992038624e+17,4.778610516868059e+16,1.371721782739041e+17,16941463810352.791,134406029494909.84,2757493928618142.0,1.256714274496573e+16
17.5207608211511,1.7272114323716378e+16,2.2040167508065462e+17,4.8335647973077976e+16,1.387496624971938e+17,17581754888533.3,139484606923608.25,2859914043728625.0,1.3027269881125702e+16
17.97117603757412,1.7469144240124356e+16,2.233175597585864e+17,4.8887031903499496e+16,1.4033243167591427e+17,18241861914972.85,144720295154548.12,2965415293668370.5,1.3500574488310354e+16
18.430599558325603,1.7666837070676938e+16,2.2625814362787402e+17,4.944027098184141e+16,1.4192052606063717e+17,18922328306661.04,150117400752749.25,3074079683612125.0,1.3987390102046926e+16
18.899211549492115,1.7865197226744866e+16,2.2922390981224362e+17,4.999537755323596e+16,1.4351398108872253e+17,19623711215127.754,155680339096653.0,3185991245971973.5,1.4488058647256644e+16
19.37719578048196,1.8064228527260144e+16,2.3221534518024918e+17,5.055236230488879e+16,1.451128274383956e+17,20346581822189.684,161413636721895.56,3301236084367697.5,1.5002930606792886e+16
19.864739696091597,1.826393420459931e+16,2.352329406353491e+17,5.111123428254347e+16,1.467170910760107e+17,21091525640273.293,167321933701480.78,3419902418383175.5,1.553236519447059e+16
20.36203449001343,1.846431690967104e+16,2.3827719140195206e+17,5.167200090471878e+16,1.4832679329692368e+17,21859142817284.82,173409986062119.9,3542080629101161.0,1.6076730532657976e+16
20.869275179813698,1.866537871624771e+16,2.4134859730807005e+17,5.223466797483078e+16,1.4994195076029098e+17,22650048445981.395,179682668236379.47,3667863305404357.5,1.6636403834613852e+16
21.38666068340997,1.8867121124600664e+16,2.44447663065174e+17,5.2799239691366424e+16,1.5156257551827475e+17,23464872877818.812,186144975550460.06,3797345291053766.0,1.7211771591450194e+16
21.91439389707817,1.9069545064510464e+16,2.4757489854582112e+17,5.336571865630727e+16,1.5318867504022762e+17,24304262041268.0,192802026747554.7,3930623732565692.0,1.7803229763421064e+16
22.452681775019734,1.9272650897689636e+16,2.507308190595756e+17,5.393410588190983e+16,1.548202522321574e+17,25168877764552.293,199659066546425.7,4067798127877917.0,1.841118397562988e+16
23.00173541052013,1.947643841963282e+16,2.5391594562773104e+17,5.450440079588341e+16,1.564573054515925e+17,26059398102725.652,206721468234558.62,4208970375780982.5,1.9036049718504056e+16
23.561770118730532,1.968090686094651e+16,2.5713080525729898e+17,5.507660124511116e+16,1.5809982851826538e+17,26976517669052.56,213994736295601.44,4354244826133837.0,1.967825255287737e+16
24.133005521105144,1.9886054888236624e+16,2.603759312147196e+17,5.565070349813426e+16,1.5974781072124682e+17,27920947970689.254,221484509071124.34,4503728330906393.0,2.0338228319153876e+16
24.715665631527248,2.009188060457921e+16,2.6365186329971795e+17,5.622670224646918e+16,1.614012368227282e+17,28893417748597.465,229196561456151.47,4657530296031245.0,2.101642335070545e+16
25.309978944157795,2.0298381549554184e+16,2.6695914811971104e+17,5.680459060470202e+16,1.6306008705829517e+17,29894673321549.156,237136807627344.25,4815762734008977.0,2.171329469220188e+16
25.91617852304095,2.0505554698886656e+16,2.7029833936515923e+17,5.73843601094852e+16,1.6472433713404902e+17,30925478934161.26,245311303803367.12,4978540317293722.0,2.2429310322707096e+16
26.53450209350177,2.0713396463801964e+16,2.7366999808623216e+17,5.796600071773229e+16,1.6639395822142765e+17,31986617108992.79,253726251037741.56,5145980432544660.0,2.316494938257871e+16
27.165192135371807,2.0921902690112996e+16,2.7707469297114688e+17,5.85495008040643e+16,1.6806891694987667e+17,33078889002616.957,262387998043518.5,5318203235715870.0,2.3920702404330812e+16
27.808495978079243,2.1131068656966764e+16,2.8051300062652685e+17,5.91348471573016e+16,1.697491753967817e+17,34203114765424.7,271303044047791.6,5495331707861914.0,2.4697071548801476e+16
28.464665897640828,2.134088907528154e+16,2.839855058601095e+17,5.972202497609094e+16,1.7143469107491686e+17,35360133905056.445,280478041675259.06,5677491711688296.0,2.549457084655165e+16
29.133959215593645,2.1551358086039316e+16,2.874928019661337e+17,6.031101786412684e+16,1.7312541691872963e+17,36550805653578.41,289919799861843.06,5864812049023483.0,2.6313726442698936e+16
29.816638399905518,2.1762469258464588e+16,2.910354910137099e+17,6.09018078250546e+16,1.7482130126971245e+17,37776009338326.97,299635286797789.44,6057424519186633.0,2.715507684515553e+16
30.51297116790363,2.1974215587927676e+16,2.946141841384892e+17,6.14943752566035e+16,1.765222878595628e+17,39036644755999.914,309631632896822.44,6255463977993619.0,2.80191731787489e+16
31.223230591261704,2.21865894935687e+16,2.982295018379205e+17,6.2088698943937e+16,1.7822831579109773e+17,40333632549794.01,319916133789759.56,6459068397406653.0,2.8906579445570864e+16
31.947695203086937,2.2399582815912276e+16,3.018820742703874e+17,6.2684756052978424e+16,1.7993931951909386e+17,41667914589883.93,330496253345095.2,6668378926186639.0,2.9817872788281144e+16
32.686649107148675,2.261318681456046e+16,3.055725415585162e+17,6.328252212395368e+16,1.816552288317576e+17,43040454357263.16,341379626716778.56,6883539951573848.0,3.07536437555966e+16
33.44038208929165,2.2827392165659428e+16,3.0930155409692666e+17,6.38819710643032e+16,1.8337596883037648e+17,44452237330225.46,352574063413293.3,7104699161482216.0,3.171449657436192e+16
34.20918973107749,2.304218895903784e+16,3.130697728647044e+17,6.448307514067239e+16,1.8510145990633117e+17,45904271373047.74,364087550384483.6,7332007607100502.0,3.270104942980505e+16
34.993373525699035,2.325756669545936e+16,3.1687786974286624e+17,6.508580497122407e+16,1.868316177190289e+17,47397587127494.37,375928255131333.2,7565619766600708.0,3.371393474829436e+16
35.793240996213015,2.3473514284229424e+16,3.207265278370856e+17,6.569012951894055e+16,1.8856635317667843e+17,48933238407481.84,388104528841570.8,7805693610176791.0,3.4753799479811412e+16
36.60910581613728,2.3690020040638988e+16,3.2461644180594285e+17,6.629601608447013e+16,1.903055724157575e+17,50512302595708.484,400624909541284.5,8052390665443103.0,3.5821305387496188e+16
37.44128793246003,2.3907071682907864e+16,3.2854831819496294e+17,6.690343029757347e+16,1.9204917677646026e+17,52135881041240.84,413498125254304.5,8305876082739030.0,3.691712934898672e+16
38.29011369110923,2.412465632931746e+16,3.325228757767022e+17,6.751233610909916e+16,1.937970627796649e+17,53805099459188.39,426733097178810.0,8566318701619304.0,3.8041963660363816e+16
