t(s),Total solute volume 1,Total retention volume 1,Total 1 volume 1,Total 2 volume 1,Total 3 volume 1,Total 4 volume 1,Total 5 volume 1,Total 6 volume 1
0.1,1198922522623410.5,1797285705327306.5,247551059597552.8,350812123106343.5,0.0,0.0,0.0,0.0
0.202,1804462289857952.8,2705058642350721.0,372581671008918.06,527996820363669.0,7817474.363492009,21851072.94233066,555534714.632988,17275916921.395096
0.30604000000000003,2266119299761821.0,3397148827806985.5,467903663644952.94,663080518549740.5,19831135.57033626,55431267.55490737,1409376025.017692,43861212039.30112
0.41216080000000005,2656692465863315.0,3982686085746799.5,548548409796585.56,777364642843417.5,35223097.66171398,98454403.93160796,2503345607.542171,77930220368.4029
0.5204040160000001,3003579350935592.5,4502740835525062.0,620172902198148.5,878865890713684.6,53630069.80749332,149905015.4589573,3811615918.2064233,118676526628.84607
0.6308120963200001,3320444349175755.5,4977796707364614.0,685598536972933.5,971582548680461.1,74857237.02258618,209238558.68270093,5320338144.835724,165668101520.144
0.7434283382464002,3615232775766345.0,5419764142199614.0,746465846513793.4,1057839465191780.4,98793299.36088178,276143930.1532452,7021600514.966076,218658189944.51965
0.8582969050113283,3893035712730668.5,5836274956635609.0,803826026998009.6,1139126322367802.2,125375551.54686436,350445857.3046878,8910945613.412195,277507772101.6644
0.9754628431115548,4157342391113440.5,6232559729783367.0,858399527695981.4,1216464090806376.0,154572675.58764246,432056800.62169033,10986147121.73084,342147390978.3077
1.094972099973786,4410665543455626.5,6612385237401015.0,910705172469070.8,1290588011596003.0,186375211.28404218,520950316.98705584,13246532404.516209,412556022374.00793
1.2168715419732616,4654884803737575.0,6978569224183774.0,961131064286063.0,1362048077267296.2,220789830.4085763,617145054.9806184,15692575494.268148,488748382465.94934
1.3412089728127268,4891449279366268.0,7333284067849401.0,1009976411871810.0,1431268305611138.5,257835684.07782504,720694545.1337281,18325637452.037426,570766832507.1549
1.4680331522689813,5121503933854747.0,7678246231822796.0,1057477624943744.5,1498583720033164.0,297541964.54706323,831680384.7126732,21147793054.816902,658675975726.1912
1.597393815314361,5345972071551405.0,8014839912924518.0,1103825345489632.0,1564264485096102.0,339946219.7419977,950207526.5369934,24161710990.061382,752558922642.9436
1.729341691620648,5565611206415491.0,8344200790624073.0,1149175983437766.8,1628532254069244.8,385093156.1678605,1076400932.8993952,27370568765.306755,852514638714.4373
1.863928525453061,5781052097668266.0,8667274542777055.0,1193659776658152.8,1691571591001500.0,433033770.8979639,1210403149.3211095,30777991009.365074,958656021205.0615
2.001207095962122,5992826754483932.0,8984858825549467.0,1237386573313648.8,1753538165067230.2,483824712.51500696,1352372518.270611,34388004047.778694,1071108483364.4303
2.1412312378813647,6201388989347989.0,9297634083542434.0,1280450075675239.8,1814564764606034.5,537527805.797575,1502481850.5790055,38205002117.423164,1190008901403.814
2.284055862638992,6407129804420598.0,9606186614431766.0,1322931017066795.8,1874765799267870.8,594209696.3816339,1660917432.2066636,42233722108.99006,1315504827277.984
2.4297369798917723,6610389111994522.0,9911026138312248.0,1364899581881170.5,1934240729491535.8,653941585.2407387,1827878282.0688627,46479224693.79848,1447753900451.5876
2.578331719489608,6811464801080392.0,1.0212599388820626e+16,1406417277630126.0,1993076719443582.2,716799031.7319657,2003575601.5146897,50946880324.249084,1586923411559.8743
2.7298983538794,7010619848068408.0,1.0511300772286868e+16,1447538403139201.5,2051350717641935.2,782861809.9289818,2188232372.752771,55642359021.90846,1733189984112.5571
2.884496320956988,7208087962612530.0,1.0807480831156788e+16,1488311214298258.5,2109131108976489.5,852213807.064915,2382083074.9812884,60571623158.732635,1886739349477.446
3.0421862473761276,7404078120655131.0,1.1101453039222332e+16,1528778860031148.5,2166479041100209.5,924942955.7807901,2585373495.0104566,65740922641.1627,2047766196746.1953
3.2030299723236504,7598778240889281.0,1.1393499312855526e+16,1568980141404079.0,2223449500184676.0,1001141193.924865,2798360614.8945208,71156792052.51027,2216474083625.967
3.3670905717701234,7792358194087773.0,1.1683874522206078e+16,1608950132985697.2,2280092191468394.0,1080904447.134604,3021312563.245263,76826049414.70723,2393075397793.716
3.5344323832055258,7984972287198852.0,1.1972810215073632e+16,1648720695758104.2,2336452266118563.0,1164332630.527214,3254508619.957218,82755796308.26231,2577791360574.028
3.7051210308696363,8176761329816471.0,1.2260517714761604e+16,1688320903797373.8,2392570925893073.0,1251529666.6410706,3498239266.3569813,88953419147.31117,2770852066610.3154
3.879223451487029,8367854365552427.0,1.2547190715622612e+16,1727777401763716.5,2448485929750656.0,1342603517.387493,3752806274.5138383,95426591450.4927,2972496554565.8784
4.0568079205167695,8558370132261843.0,1.2833007472160604e+16,1767114706405849.5,2504232021121928.0,1437666228.243824,4018522830.767057,102183276981.9191,3182972904936.4287
4.237944078927105,8748418301157506.0,1.3118132656693398e+16,1806355462410791.0,2559841290481895.0,1536833983.2834198,4295713689.544102,109231733662.40785,3402538361862.9497
4.422702960505647,8938100534308554.0,1.3402718944780304e+16,1845520660753997.0,2615343484780588.5,1640227169.922585,4584715354.3395405,116580518171.37663,3631459476464.0815
4.61115701971576,9127511391958658.0,1.3686908375536874e+16,1884629826040585.5,2670766272930026.5,1747970452.4887414,4885876283.35066,124238491175.72849,3870012269704.117
4.803380160110075,9316739114876836.0,1.3970833524631474e+16,1923701178043494.2,2726135474724829.5,1860192853.8924634,5199557117.764943,132214823134.742,4118482413207.3354
4.9994477633122765,9505866302108532.0,1.4254618520495314e+16,1962751771644175.8,2781475259156448.0,1977027844.8289664,5526130931.093669,140519000640.1345,4377165426746.422
5.199436718578522,9694970500693196.0,1.4538379928579124e+16,2001797618596230.5,2836808316968130.0,2098613440.0503693,5865983498.269419,149160833258.69882,4646366891388.984
5.403425452950093,9884124720905790.0,1.4822227523979236e+16,2040853793911448.2,2892156011417762.5,2225092301.344281,6219513583.48906,158150460851.6038,4926402677494.811
5.611493962009095,1.0073397888185672e+16,1.5106264969167326e+16,2079934529173130.8,2947538510515114.0,2356611846.931816,6587133246.000093,167498361349.97382,5217599186928.391
5.823723841249277,1.0262855240995068e+16,1.5390590410678286e+16,2119053294685115.5,3002974903437604.5,2493324367.062247,6969268163.207666,177215358970.9034,5520293608993.04
6.040198318074262,1.0452558682299862e+16,1.5675297006288174e+16,2158222872044796.5,3058483303375836.5,2635387145.635077,7366357970.629348,187312632861.88397,5834834189712.108
6.261002284435747,1.0642567091107892e+16,1.5960473392327928e+16,2197455418468913.5,3114080938691572.0,2782962587.725371,7778856618.350355,197801726164.8176,6161580514181.655
6.486222330124463,1.0832936599472942e+16,1.6246204099240932e+16,2236762523988774.0,3169784233970839.0,2936218352.926195,8207232743.738896,208694555493.48834,6500903801804.297
6.715946776726952,1.1023720839530552e+16,1.653256992222903e+16,2276155262457689.5,3225608882308117.0,3095327494.454838,8651970060.272,220003420820.70972,6853187214285.678
6.950265712261491,1.1214971164436674e+16,1.6819648252789426e+16,2315644237169937.5,3281569909954368.0,3260468603.9973545,9113567762.401037,231741015773.32904,7218826176337.04
7.18927102650672,1.1406736846504526e+16,1.7107513376083638e+16,2355239621771665.0,3337681734293126.5,3431825962.2903166,9592540946.454138,243920438335.02063,7598228709081.852
7.433056447036854,1.1599065255355882e+16,1.7396236738358646e+16,2394951197045205.5,3393958215968636.5,3609589695.46032,10089421047.631485,256555201958.30875,7991815776211.093
7.681717575977592,1.1792002018501936e+16,1.768588718804243e+16,2434788384065430.5,3450412705872778.5,3793955937.1599555,10604756293.204184,269659247088.59915,8400021642973.812
7.935351927497144,1.1985591166432198e+16,1.7976531193629184e+16,2474760274157509.5,3507058087599071.0,3985126996.5565233,11139112172.071327,283246953104.1913,8823294248126.832
8.194058966047088,1.2179875264007648e+16,1.8268233041046404e+16,2514875656026601.5,3563906815889020.0,4183311532.244139,11693071920.874552,297333150677.31323,9262095589000.062
8.45794014536803,1.2374895529712072e+16,1.8561055012834732e+16,2555143040380660.5,3620970951525860.5,4388724732.163945,12267237026.906355,311933134562.1901,9716902119865.56
8.72709894827539,1.2570691944113986e+16,1.8855057551167496e+16,2595570682325466.5,3678262193071149.0,4601588499.629525,12862227748.083204,327062676817.0455,10188205163824.184
9.0016409272409,1.2767303348716618e+16,1.9150299406474692e+16,2636166601774905.5,3735791905788922.5,4822131645.565976,13478683650.287157,342738040467.7532,10676511338451.344
9.281673745785717,1.296476753622556e+16,1.94468377732167e+16,2676938602089308.5,3793571148058514.5,5050590087.082047,14117264162.409395,358975993621.6246,11182342995465.027
9.567307220701432,1.316312133313592e+16,1.9744728414158772e+16,2717894287127806.0,3851610695540110.0,5287207052.504771,14778649149.457546,375793824040.51776,11706238674703.2
9.85865336511546,1.33624006754319e+16,2.004402577433524e+16,2759041076878713.5,3909921063324916.0,5532233293.015285,15463539504.11455,393209354183.1435,12248753572717.885
10.155826432417769,1.3562640678096834e+16,2.0344783085750812e+16,2800386221811727.0,3968512526274152.5,5785927301.033906,16172657757.163038,411240956727.0934,12810460026313.22
10.458942961066125,1.3763875699049872e+16,2.064705246374304e+16,2841936816079531.5,4027395137727459.0,6048555535.511337,16906748707.212862,429907570581.7025,13391948011375.05
10.768121820287448,1.3966139398055196e+16,2.0950884995823828e+16,2883699809681157.5,4086578746739964.5,6320392654.290621,17666580070.193558,449228717403.5163,13993825657356.867
11.083484256693197,1.4169464791087182e+16,2.1256330823725664e+16,2925682019687258.0,4146073013989903.5,6601721753.713617,18452943149.09596,469224518626.6464,14616719777806.453
11.405153941827061,1.4373884300581368e+16,2.1563439219298108e+16,2967890140615820.0,4205887426482428.0,6892834615.653199,19266653524.469986,489915713020.9268,15261276417334.613
11.733257020663602,1.4579429801955016e+16,2.187225865482832e+16,3010330754037586.0,4266031311161717.0,7194031962.16038,20108551766.20777,511323674791.3155,15928161415444.549
12.067922161076874,1.4786132666737842e+16,2.2182836868298564e+16,3053010337481653.5,4326513847531346.0,7505623717.923385,20979504167.162167,533470432232.542,16618060987659.295
12.409280604298411,1.4994023802619286e+16,2.2495220924040196e+16,3095935272704350.0,4387344079372395.0,7827929280.743712,21880403499.174553,556378686953.5747,17331682324399.473
12.75746621638438,1.5203133690686252e+16,2.280945726919289e+16,3139111853377930.0,4448530925639363.0,8161277800.241522,22812169792.10497,580071833687.0037,18069754208083.203
13.112615540712067,1.5413492420095762e+16,2.312559178634053e+16,3182546292249844.0,4510083190605665.0,8506008465.010962,23775751136.480953,604573980699.0085,18833027648935.234
13.474867851526309,1.5625129720405146e+16,2.3443669842652908e+16,3226244727818059.0,4572009573323580.0,8862470798.453163,24772124510.402363,629909970816.106,19622276540010.902
13.844365208556836,1.583807499175651e+16,2.3763736335833316e+16,3270213230563630.0,4634318676456542.0,9231024963.52323,25802296631.362278,656105403085.4921,20438298331956.97
14.221252512727972,1.6052357333097102e+16,2.4085835737141084e+16,3314457808777474.0,4697019014536426.0,9612042076.63477,26867304833.664818,683186655086.2399,21281914728049.418
14.605677562982532,1.6268005568595546e+16,2.4410012131731948e+16,3358984414014775.5,4760119021693209.0,10005904530.973734,27968217972.143955,711180905909.3168,22153972400065.492
14.997791114242183,1.64850482724017e+16,2.473630925653803e+16,3403798946207404.5,4823627058899839.0,10413006329.481943,29106137352.909725,740116159824.8417,23055343725565.77
15.397746936527026,1.6703513791882886e+16,2.5064770535884756e+16,3448907258461602.0,4887551420771296.0,10833753427.77738,30282197691.87113,770021270655.6643,23986927547179.89
15.805701875257567,1.692343026945644e+16,2.5395439115028824e+16,3494315161565945.0,4951900341952895.0,11268564087.288738,31497568101.808193,800925966876.9127,24949649954506.793
16.221815912762718,1.7144825663128394e+16,2.5728357891779816e+16,3540028428232179.5,5016682003130120.0,11717869238.888239,32753453108.78944,832860877461.7202,25944465089262.094
16.64625223101797,1.7367727765838284e+16,2.6063569546356064e+16,3586052797089441.0,5081904536688939.0,12182112857.316538,34051093698.754826,865857558494.0326,26972355974320.363
17.079177275638333,1.7592164223700024e+16,2.6401116569612484e+16,3632393976450602.0,5147576032053231.0,12661752346.701902,35391768395.10883,899948520569.9363,28034335367323.086
17.5207608211511,1.7818162553222402e+16,2.674104128976385e+16,3679057647867950.5,5213704540723609.0,13157258937.48461,36776794368.19403,935167257009.6683,29131446639540.066
17.97117603757412,1.804575015758425e+16,2.7083385897717884e+16,3726049469493637.5,5280298081039705.0,13669118095.067162,38207528577.53941,971548272903.0104,30264764680694.492
18.430599558325603,1.8274954342034036e+16,2.7428192471123836e+16,3773375079259357.5,5347364642686037.0,14197829940.519375,39685368947.8049,1009127115011.549,31435396830480.07
18.899211549492115,1.850580232847651e+16,2.777550299723021e+16,3821040097888120.5,5414912190960276.0,14743909683.67807,41211755579.37051,1047940402551.8701,32644483837522.465
19.37719578048196,1.873832126930456e+16,2.8125359394640972e+16,3869050131750354.0,5482948670820514.0,15307888068.989466,42788171994.54426,1088025858884.4862,33893200846556.492
19.864739696091597,1.8972538260530464e+16,2.8477803534049964e+16,3917410775575041.0,5551482010727447.0,15890311834.453533,44416146420.39142,1129422344133.9805,35182758414613.266
20.36203449001343,1.9208480354263396e+16,2.883287725802825e+16,3966127615026211.0,5620520126295570.0,16491744184.038591,46097253109.21661,1172169888766.6033,36514403557034.03
20.869275179813698,1.9446174570580492e+16,2.9190622399932316e+16,4015206229153959.5,5690070923766544.0,17112765273.945807,47833113697.75789,1216309728152.2559,37889420824151.24
21.38666068340997,1.9685647908831224e+16,2.955108080199561e+16,4064652192728548.0,5760142303316930.0,17753972713.11311,49625398606.183136,1261884338138.5508,39309133409497.78
21.91439389707817,1.9926927358413216e+16,2.9914294332662716e+16,4114471078465450.5,5830742162211423.0,18415982078.359257,51475828478.00767,1308937471665.494,40774904290434.445
22.452681775019734,2.0170039909055868e+16,3.0280304903217896e+16,4164668459148635.5,5901878397811751.0,19099427444.57956,53386175662.08486,1357514196449.929,42288137402104.305
23.00173541052013,2.041501256064302e+16,3.06491544837597e+16,4215249909658703.0,5973558910450892.0,19804961930.41632,55358265737.85103,1407660933769.9426,43850278845653.14
23.561770118730532,2.0661872332605044e+16,3.1020885118565884e+16,4266221008912207.5,6045791606181226.0,20533258259.839397,57393979085.04083,1459425498380.02,45462818131675.97
24.133005521105144,2.091064627290772e+16,3.139553894089154e+16,4317587341717643.5,6118584399404858.0,21285009340.081936,59495252499.11949,1512857139588.7705,47127289459881.48
24.715665631527248,2.1161361466664324e+16,3.1773158187240572e+16,4369354500553635.5,6191945215393412.0,22060928856.390923,61664080853.715935,1568006583531.7341,48845273035986.266
25.309978944157795,2.1414045044393896e+16,3.215378521114672e+16,4421528087274086.5,6265881992704524.0,22861751884.063633,63902518811.371605,1624926076672.8447,50618396426885.15
25.91617852304095,2.1668724189947416e+16,3.2537462496497204e+16,4474113714744805.0,6340402685501150.0,23688235518.253384,66212682583.95791,1683669430568.8286,52448335955166.68
26.53450209350177,2.1925426148123884e+16,3.2924232670433104e+16,4527117008415962.0,6415515265779914.0,24541159522.04086,68596751744.15134,1744292067931.9531,54336818134074.6
27.165192135371807,2.2184178231992724e+16,3.331413851585281e+16,4580543607834105.0,6491227725513833.0,25421326993.28225,71056971089.39001,1806851070027.2854,56285621144044.44
27.808495978079243,2.244500782994217e+16,3.370722298354939e+16,4634399168097453.0,6567548078714714.0,26329565050.756668,73595652559.77792,1871405225441.7283,58296576351974.41
28.464665897640828,2.270794241246939e+16,3.4103529204004652e+16,4688689361257926.0,6644484363419900.0,27266725540.151146,76215177211.43562,1938015080263.023,60371569874422.14
29.133959215593645,2.2973009538726664e+16,3.4503100498865844e+16,4743419877672736.0,6722044643607783.0,28233685760.4338,78917997246.8434,2006742989707.902,62512544185945.79
29.816638399905518,2.3240236862838984e+16,3.4905980392126708e+16,4798596427308865.0,6800237011046379.0,29231349211.18265,81706638103.75739,2077653171239.7178,64721499773847.51
30.51297116790363,2.3509652140005384e+16,3.531221262103357e+16,4854224741002882.0,6879069587078526.0,30260646361.450657,84583700604.32161,2150811759216.745,67000496840601.84
31.223230591261704,2.3781283232396224e+16,3.572184114673739e+16,4910310571678570.0,6958550524347624.0,31322535440.762753,87551863166.04568,2226286861113.609,69351657055292.28
31.947695203086937,2.40551581148586e+16,3.613491016470856e+16,4966859695524936.0,7038688008466950.0,32418003252.857113,90613884076.35559,2304148615359.27,71777165355409.33
32.686649107148675,2.433130488043968e+16,3.655146411493333e+16,5023877913136797.0,7119490259635774.0,33548066012.797966,93772603832.4725,2384469250836.228,74279271800399.27
33.44038208929165,2.4609751745737932e+16,3.697154769190703e+16,5081371050619461.0,7200965534205396.0,34713770208.10439,97030947548.41948,2467323148086.643,76860293478389.97
34.20918973107749,2.4890527056092316e+16,3.739520585444069e+16,5139344960660385.0,7283122126197237.0,35916193484.553925,100391927431.00143,2552786902272.3438,79522616467554.92
34.993373525699035,2.5173659290616796e+16,3.782248383529405e+16,5197805523568561.0,7365968368776171.0,37156445557.339714,103858645326.6486,2640939387936.8247,82268697853615.92
35.793240996213015,2.5459177067089104e+16,3.825342715064935e+16,5256758648284091.0,7449512635681029.0,38435669148.27509,107434295341.0719,2731861825618.6313,85101067805020.73
36.60910581613728,2.574710914670157e+16,3.8688081609440184e+16,5316210273358907.0,7533763342614468.0,39755040949.75671,111122166533.70985,2825637850366.687,88022331707371.14
37.44128793246003,2.6037484438679524e+16,3.912649332254403e+16,5376166367910594.0,7618728948594652.0,41115772616.21754,114925645689.01778,2922353582209.489,91035172358722.31
38.29011369110923,2.6330332004775588e+16,3.956870871185386e+16,5436632932550179.0,7704417957270128.0,42519111783.81736,118848220166.68172,3022097698631.3086,94142352227400.08
39.15591596493141,2.6625681063644816e+16,4.001477451923771e+16,5497616000285659.0,7790838918200074.0,43966343119.13757,122893480832.91023,3124961509110.002,97346715774046.08
40.03903428423004,2.6923560995106796e+16,4.046473781539597e+16,5559121637401859.0,7878000428101438.0,45458789397.66694,127065125074.99115,3231039031772.144,100651191839617.38
40.93981496991464,2.722400134430021e+16,4.091864600862898e+16,5621155944318459.0,7965911132064454.0,46997812612.88276,131366959901.37462,3340427072222.915,104058796101134.03
41.85861126931294,2.7527031825734196e+16,4.137654685352064e+16,5683725056426312.0,8054579724738322.0,48584815116.754715,135802905129.58134,3453225304609.2314,107572633596989.08
42.7957834946992,2.783268232724219e+16,4.183848845955026e+16,5746835144903951.0,8144014951487935.0,50221240792.51398,140376996664.30496,3569536354976.323,111195901323701.39
43.751699164593184,2.8140982913841396e+16,4.23045192996383e+16,5810492417514494.0,8234225609523289.0,51908576260.556206,145093389868.12585,3689465886979.241,114931890906016.62
