t(s),Total solute volume 1,Total retention volume 1,Total 1 volume 1,Total 2 volume 1,Total 3 volume 1,Total 4 volume 1,Total 5 volume 1,Total 6 volume 1
0.1,898666397951953.1,1036126891881881.2,66325422320955.914,71135071608968.8,0.0,0.0,0.0,0.0
0.202,1343739366489405.8,1569662997951663.0,99173710435086.31,106365384153694.05,38743570170.49995,70545310062.54146,943947817417.6688,19331300175826.63
0.30604000000000003,1675026686143397.0,1982567066777938.2,123624131076396.69,132588849820867.31,97552559576.04163,177628937150.52185,2376812854605.2925,48675405385940.26
0.41216080000000005,1948858362408592.0,2337430143479556.0,143834079572317.03,154264341539041.78,171950968100.96417,313102340406.98517,4189560373237.803,85798746277859.19
0.5204040160000001,2186464149176173.2,2657602878989414.0,161370402536083.9,173072327279529.16,259797756646.24377,473068301616.9657,6330043384991.513,129633090554375.03
0.6308120963200001,2398489677258030.5,2954689345345364.5,177018793039089.97,189855475381392.72,359819457716.4045,655209206407.6548,8767251365799.85,179543119636928.97
0.7434283382464002,2591160941800025.0,3235424153317009.5,191238756143088.62,205106612344315.44,471172515281.3867,857990195690.3334,11480647695605.541,235108032623011.03
0.8582969050113283,2768490352966349.0,3504120646720475.0,204326424873585.2,219143345555808.9,593262172617.31,1080329419307.5612,14455757383294.047,296031174349511.94
0.9754628431115548,2933243289261306.0,3763737989192617.5,216485895987735.34,232184572039191.6,725652553586.1382,1321434325982.3389,17681976500601.68,362095168524216.0
1.094972099973786,3087421983307086.0,4016412644916845.5,227864942813688.88,244388781042857.94,868016447414.221,1580710241021.1812,21151348884861.31,433136862179911.75
1.2168715419732616,3232531968186481.0,4263749554403227.0,238574680129910.97,255875144936667.06,1020104848297.8595,1857704911167.8923,24857824110369.887,509032127280329.4
1.3412089728127268,3369739696109239.5,4506993525106642.0,248701197096674.22,266735995716304.72,1181727307195.1929,2152072734829.6638,28796778865060.758,589686057277344.2
1.4680331522689813,3499971153824086.0,4747135938888250.0,258312835495106.47,277044631030610.9,1352738641645.8967,2463550568088.234,32964693219855.77,675026336108853.1
1.597393815314361,3623976407322417.0,4984984258010329.0,267464953402285.47,286860423299009.4,1533029600225.0667,2791940730720.777,37358923239479.02,764998580416193.0
1.729341691620648,3742373442887218.0,5221209014610528.0,276203160848098.12,296232290005033.1,1722520100388.1895,3137098697466.5327,41977536285301.38,859562965787033.9
1.863928525453061,3855678884790290.5,5456376583907866.0,284565586912629.94,305201125194386.25,1921154204315.4822,3498923953591.8228,46819188658821.5,958691720193825.8
2.001207095962122,3964330093697531.5,5690972656838691.0,292584510682957.4,313801548702088.2,2128896305702.9583,3877353055187.9287,51883032746097.23,1062367221649132.2
2.1412312378813647,4068701429667817.5,5925419440549306.0,300287561531994.75,322063193470656.8,2345728182945.875,4272354266902.2617,57168645269413.65,1170580528159588.0
2.284055862638992,4169116459572643.0,6160088516651363.0,307698620078265.44,330011671843810.5,2571646686524.39,4683923354378.839,62675970989842.164,1283330224125912.8
2.4297369798917723,4265857280674834.5,6395310623696538.0,314838506305865.2,337669313586095.8,2806661899963.5635,5112080238972.773,68405277947705.44,1400621503043104.5
2.578331719489608,4359171751821969.5,6631383216568832.0,321725513257459.25,345055738277124.9,3050795660672.1895,5556866307750.357,74357121471302.6,1522465429772548.5
2.7298983538794,4449279179099274.5,6868576390081848.0,328375826659774.8,352188305366596.3,3304080358545.4067,6018342229281.5625,80532314953579.8,1648878341414790.2
2.884496320956988,4536374841472369.0,7107137579516061.0,334803858935382.06,359082472407262.25,3566557951952.7363,6496586165307.352,86931905925970.0,1779881356657800.0
3.0421862473761276,4620633633176086.0,7347295333451224.0,341022518026565.44,365752083372797.44,3838279156000.8,6991692296158.719,93557156330558.1,1915499971093048.2
3.2030299723236504,4702213024780836.0,7589262373724153.0,347043425934678.44,372209603044750.3,4119302768877.9795,7503769597683.85,100409526157699.11,2055763721439622.8
3.3670905717701234,4781255492461465.0,7833238101094565.0,352877098010576.8,378466309304383.5,4409695110025.394,8032940821888.386,107490659809576.53,2200705905576649.8
3.5344323832055258,4857890527683582.0,8079410665266030.0,358533091278055.0,384532452211921.7,4709529549733.416,8579341644154.187,114802374692818.31,2350363348205766.0
3.7051210308696363,4932236312560837.0,8327958689126490.0,364020128082382.1,390417386621578.56,5018886114141.05,9143119947872.838,122346651649941.66,2504776204149734.0
3.879223451487029,5004401126387043.0,8579052716045918.0,369346199898383.75,396129683517372.7,5337851152929.186,9724435223362.293,130125626920118.22,2663987792946713.5
4.0568079205167695,5074484534196229.0,8832856433511854.0,374518655051255.2,401677224095103.6,5666517059535.708,10323458062554.953,138141585381573.45,2828044459665598.5
4.237944078927105,5142578397210466.0,9089527714740820.0,379544273291929.2,407067279745619.3,6004982035682.681,10940369734517.535,146396954875713.25,2996995457846885.0
4.422702960505647,5208767736696258.0,9349219511095928.0,384429329553378.8,412306580434463.56,6353349893538.613,11575361829654.014,154894301450430.1,3170892851238195.5
4.61115701971576,5273131476363744.0,9612080621412504.0,389179648742845.94,417401373467414.7,6711729890046.259,12228635962641.047,163636325389463.06,3349791431596331.0
4.803380160110075,5335743083503443.0,9878256359143722.0,393800653060471.94,422357474240477.75,7080236588906.38,12900403525893.713,172625857918038.97,3533748650306493.0
4.9994477633122765,5396671125204947.0,1.0147889134203194e+16,398297403050622.8,427180310268070.25,7458989746475.838,13590885486756.992,181865858493792.28,3722824561952527.5
5.199436718578522,5455979752974018.0,1.0421118963216048e+16,402674633368699.7,431874959543512.56,7848114218458.345,14300312222749.086,191359412607008.75,3917081778281618.5
5.403425452950093,5513729126666887.0,1.06980839193914e+16,406936784069300.25,436446184096068.0,8247739884769.576,15028923390096.117,201109730026536.88,4116585431257734.0
5.611493962009095,5569975786747255.0,1.0978920531237966e+16,411088028080378.5,440898459457419.56,8658001590369.013,15776967821549.922,211120143437719.16,4321403144103275.5
5.823723841249277,5624772982335259.0,1.1263764137753456e+16,415132295414665.2,445236000628806.7,9079039100190.107,16544703450094.012,221394107426939.78,4531605009397486.0
6.040198318074262,5678170961276832.0,1.155274920643226e+16,419073294578018.06,449462785041819.06,9510997066578.28,17332397255653.61,231935197774194.75,4747263573439191.0
6.261002284435747,5730217227451654.0,1.1846009619396198e+16,422914531559855.5,453582572925939.4,9954025007880.256,18140325232347.754,242747111020763.44,4968453826197762.0
6.486222330124463,5780956769713801.0,1.2143678932102454e+16,426659326729957.25,457598925430631.7,10408277297021.35,18968772374176.863,253833664283784.4,5195253196273077.0
6.715946776726952,5830432266180721.0,1.2445890608388782e+16,430310829915854.6,461515220796085.44,10873913159070.34,19818032677333.734,265198795293522.5,5427741550366185.0
6.950265712261491,5878684267025746.0,1.2752778235040428e+16,433872033893712.2,465334668822392.56,11351096676929.682,20688409157579.48,276846562632462.25,5666001196831592.0
7.18927102650672,5925751358465351.0,1.3064475718590434e+16,437345786491271.25,469060323850160.7,11839996804404.174,21580213881335.812,288781146158205.5,5910116892939717.0
7.433056447036854,5971670310243439.0,1.3381117466668792e+16,440734801472844.4,472695096434827.0,12340787386001.006,22493768009326.324,301006847594561.3,6160175855527779.0
7.681717575977592,6016476208592084.0,1.3702838555887046e+16,444041668352360.75,476241763871321.3,12853647182898.336,23429401851754.805,313528091277301.0,6416267774759337.0
7.935351927497144,6060202576373207.0,1.4029774887968158e+16,447268861260357.6,479702979704042.44,13378759904591.57,24387454934139.477,326349425042784.4,6678484830749037.0
8.194058966047088,6102881481877140.0,1.4362063335598392e+16,450418746973766.6,483081282338940.7,13916314245789.725,25368276073035.98,339475521249243.8,6946921712840471.0
8.45794014536803,6144543637557355.0,1.469984187928141e+16,453493592202961.8,486379102858989.25,14466503928187.076,26372223460982.668,352911177921759.94,7221675641351165.0
8.72709894827539,6185218489815345.0,1.5043249736308034e+16,456495570218270.44,489598772131221.94,15029527746782.139,27399664760082.63,366661320013169.8,7502846391623154.0
9.0016409272409,6224934300807702.0,1.539242748281245e+16,459426766887678.25,492742527282272.9,15605589620457.014,28450977203715.29,380731000774098.2,7790536320236510.0
9.281673745785717,6263718223125951.0,1.574751716976501e+16,462289186188531.0,495812517609758.75,16194898646564.293,29526547705933.367,395125403226182.7,8084850393262067.0
9.567307220701432,6301596368095832.0,1.6108662433647454e+16,465084755248305.06,498810809988585.56,16797669159300.799,30626772978155.973,409849841733324.75,8385896216443958.0
9.85865336511546,6338593868352424.0,1.6476008602467318e+16,467815328962921.44,501739393824169.44,17414120791672.63,31752059652822.324,424909763666455.3,8693784067216861.0
10.155826432417769,6374734935270433.0,1.6849702797690882e+16,470482694235347.1,504600185598400.2,18044478540881.93,32902824413709.41,440310751157898.56,9008626928474234.0
10.458942961066125,6410042911761213.0,1.7229894032608422e+16,473088573872242.2,507395033048857.5,18688972836984.508,34079494132659.605,456058522941932.9,9330540524014538.0
10.768121820287448,6444540320890142.0,1.7616733307586786e+16,475634630172126.75,510125719017175.0,19347839614686.93,35282506012496.86,472158936278586.5,9659643355601576.0
11.083484256693197,6478248910716642.0,1.801037370261551e+16,478122468234768.0,512793964998416.25,20021320388168.45,36512307735938.87,488617988958160.2,9996056741583400.0
11.405153941827061,6511189695714997.0,1.8410970467507916e+16,480553639018215.06,515401434419789.9,20709662328825.99,37769357620343.234,505441821384274.2,1.0339904857021474e+16
11.733257020663602,6543382995095124.0,1.8818681110081668e+16,482929642167034.75,517949735673975.6,21413118345855.23,39054124778146.53,522636718733590.4,1.069131477528797e+16
12.067922161076874,6574848468308206.0,1.9233665482609164e+16,485251928632773.5,520440424929617.7,22131947169589.664,40367089282877.336,540209113190665.0,1.1050416511095438e+16
12.409280604298411,6605605147992120.0,1.9656085866799296e+16,487521903105483.5,522875008739165.94,22866413437533.68,41708742340646.48,558165586256603.3,1.1417343064927724e+16
12.75746621638438,6635671470585334.0,2.0086107057547148e+16,489740926273146.8,525254946462153.2,23616787783029.793,43079586467030.586,576512871130468.8,1.1792230468846004e+16
13.112615540712067,6665065304814183.0,2.0523896445664172e+16,491910316924164.5,527581652520141.8,24383346926512.83,44480135669283.63,595257855162568.9,1.2175217833647284e+16
13.474867851526309,6693803978238090.0,2.096962409978247e+16,494031353906503.75,529856498497948.0,25166373769307.707,45910915633826.96,614407582378970.9,1.256644739735777e+16
13.844365208556836,6721904302018868.0,2.1423462847609904e+16,496105277955781.6,532080815104278.4,25966157489937.14,47372463918975.3,633969256076730.1,1.2966064575045382e+16
14.221252512727972,6749382594063713.0,2.188558835669538e+16,498133293403318.94,534255894003657.94,26782993642908.133,48865330152874.984,653950241489511.6,1.3374218009939372e+16
14.605677562982532,6776254700677619.0,2.2356179214850596e+16,500116569774174.0,536382989530337.9,27617184259954.67,50390076236635.85,674358068523404.1,1.3791059625848486e+16
14.997791114242183,6802536016847138.0,2.2835417010364176e+16,502056243284173.06,538463320293889.56,28469037953716.004,51947276552651.51,695200434562869.5,1.4216744680869776e+16
15.397746936527026,6828241505266709.0,2.332348641212922e+16,503953418244141.0,540498070685261.5,29338870023836.145,53537518178108.85,716485207346868.4,1.4651431822384368e+16
15.805701875257567,6853385714207933.0,2.38205752497998e+16,505809168378722.9,542488392291238.3,30227002565473.344,55161401103698.04,738220427915353.8,1.509528314333735e+16
16.221815912762718,6877982794323261.0,2.4326874594079388e+16,507624538066568.56,544435405224555.7,31133764580211.176,56819538457540.84,760414313626385.1,1.5548464239800832e+16
16.64625223101797,6902046514466677.0,2.4842578837240628e+16,509400543507974.0,546340199376219.0,32059492089367.516,58512556734361.875,783075261244239.8,1.6011144269821802e+16
17.079177275638333,6925590276607754.0,2.5367885773964504e+16,511138173825591.75,548203835596025.0,33004528249698.465,60241096029932.766,806211850098959.8,1.6483496013556534e+16
17.5207608211511,6948627129906944.0,2.5902996682583364e+16,512838392103254.9,550027346806730.2,33969223471499.26,62005810280829.445,829832845317862.5,1.6965695934696194e+16
17.97117603757412,6971169784015718.0,2.6448116406806844e+16,514502136367584.1,551811739056822.75,34953935539103.945,63807367509541.73,853947201129655.1,1.7457924243188456e+16
18.430599558325603,6993230621658568.0,2.7003453438003636e+16,516130320516589.56,553557992516477.3,35959029733789.79,65646450074985.69,878564064241779.5,1.7960364959261488e+16
18.899211549492115,7014821710549340.0,2.756921999810646e+16,517723835199147.2,555267062420800.7,36984878959092.414,67523754928469.555,903692777291774.2,1.8473205978757788e+16
19.37719578048196,7035954814689950.0,2.8145632123206944e+16,519283548648897.7,556939879964203.9,38031863868541.305,69439993875171.63,929342882373433.2,1.8996639139786716e+16
19.864739696091597,7056641405095528.0,2.8732909747899996e+16,520810307475801.9,558577353149354.1,39100372995824.336,71395893841190.25,955524124638636.2,1.9530860290703664e+16
20.36203449001343,7076892669986077.0,2.9331276790435204e+16,522304937418332.0,560180367593919.5,40190802887393.22,73392197146233.2,982246455975754.5,2.0076069359427524e+16
20.869275179813698,7096719524482001.0,2.994096123873066e+16,523768244059041.4,561749787298018.94,41303558237522.95,75429661782013.14,1009520038765627.5,2.0632470424106444e+16
21.38666068340997,7116132619837118.0,3.0562195237299436e+16,525201013506002.2,563286455375085.4,42439052025836.414,77509061696423.48,1037355249716096.0,2.1200271785142896e+16
21.91439389707817,7135142352240690.0,3.119521517514e+16,526604013042433.56,564791194748590.9,43597705657311.1,79631187083568.62,1065762683776184.1,2.177968603859121e+16
22.452681775019734,7153758871217174.0,3.1840261774635228e+16,527977991746633.06,566264808816945.2,44779949104780.27,81796844679732.62,1094753158131035.8,2.2370930150938972e+16
23.00173541052013,7171992087650028.0,3.249758018150714e+16,529323681084174.4,567708082088632.0,45986221053945.8,84006858065361.81,1124337716278739.0,2.2974225535286244e+16
23.561770118730532,7189851681454239.0,3.316742005586822e+16,530641795474172.56,569121780789526.8,47216969050917.38,86262067973151.23,1154527632190261.5,2.3589798128936004e+16
24.133005521105144,7207347108919920.0,3.3850035664412344e+16,531933032831268.75,570506653444207.0,48472649652295.64,88563332602321.16,1185334414553725.2,2.421787847240859e+16
24.715665631527248,7224487609747856.0,3.4545685973783388e+16,533198075084886.94,571863431432841.5,49753728577814.27,90911527939176.1,1216769811104256.8,2.4858701789896576e+16
25.309978944157795,7241282213796258.0,3.5254634745160996e+16,534437588677169.44,573192829525245.8,51060680865559.25,93307548084035.11,1248845813040774.2,2.551250807117193e+16
25.91617852304095,7257739747556343.0,3.597715063009911e+16,535652225040910.2,574495546393470.6,52393991029780.87,95752305584635.64,1281574659531024.0,2.6179542154962904e+16
26.53450209350177,7273868840373540.0,3.671350726765361e+16,536842621058691.4,575772265104230.8,53754153221315.95,98246731776101.95,1314968842306272.0,2.6860053813813536e+16
27.165192135371807,7289677930428947.0,3.746398338283291e+16,538009399504362.06,577023653592403.1,55141671390636.52,100791777127584.17,1349041110346963.0,2.7554297840441984e+16
27.808495978079243,7305175270496083.0,3.822886288640415e+16,539153169467891.8,578250365116685.1,56557059453541.32,103388411595668.1,1383804474660996.2,2.826253413561331e+16
28.464665897640828,7320368933485075.0,3.900843497608907e+16,540274526764565.6,579453038698459.6,58000841459506.3,106037624984657.72,1419272213155858.0,2.8985027797540884e+16
29.133959215593645,7335266817787204.0,3.980299423917819e+16,541374054329428.06,580632299544855.5,59473551762710.19,108740427313844.92,1455457875606270.8,2.97220492128339e+16
29.816638399905518,7349876652430594.0,4.061284075659579e+16,542452322597805.1,581788759456842.2,60975735195748.984,111497849191867.02,1492375288718864.0,3.04738741490042e+16
30.51297116790363,7364206002058029.0,4.1438280208443384e+16,543509889872675.56,582923017223266.8,62507947246056.11,114310942198267.14,1530038561295395.5,3.1240783848549796e+16
31.223230591261704,7378262271736276.0,4.227962398105128e+16,544547302679630.94,584035659001529.4,64070754235039.17,117180779272369.52,1568462089496148.0,3.2023065124630216e+16
31.947695203086937,7392052711606340.0,4.313718927556516e+16,545565096110072.56,585127258685686.2,65664733499950.03,120108455109585.97,1607660562205140.0,3.2821010458348364e+16
32.686649107148675,7405584421382873.0,4.4011299218096296e+16,546563794153301.3,586198378262607.8,67290473578497.89,123095086565264.83,1647648966498760.5,3.3634918097655096e+16
33.44038208929165,7418864354710984.0,4.490228297145901e+16,547543910018055.25,587249568156850.5,68948574396217.13,126141813066207.53,1688442593219530.2,3.4465092157891184e+16
34.20918973107749,7431899323387623.0,4.581047584852221e+16,548505946444075.7,588281367564791.8,70639647456601.8,129249797029967.19,1730057042656706.8,3.5311842723982484e+16
34.993373525699035,7444696001454480.0,4.673621942720078e+16,549450396004175.7,589294304778626.8,72364316034014.27,132420224292052.31,1772508230335439.0,3.617548595430204e+16
35.793240996213015,7457260929169035.0,4.7679861667108376e+16,550377741397320.06,590288897500683.2,74123215369376.95,135654304541162.38,1815812392916235.0,3.7056344186214616e+16
36.60910581613728,7469600516859544.0,4.864175702789719e+16,551288455733144.0,591265653148585.4,75916992868653.75,138953271762574.25,1859986094206552.5,3.79547460433181e+16
37.44128793246003,7481721048669992.0,4.962226658930466e+16,552183002808342.3,592225069151682.2,77746308304127.33,142318384689808.47,1905046231286274.5,3.887102654439441e+16
38.29011369110923,7493628686199952.0,5.06217581729325e+16,553061837375309.4,593167633239159.4,79611834018472.81,145750927264707.25,1951010040748946.0,3.980552721408585e+16
39.15591596493141,7505329472044681.0,5.16406064657745e+16,553925405403411.5,594093823720267.1,81514255131635.5,149252209106045.1,1997895105060596.0,4.075859619530791e+16
40.03903428423004,7516829333239910.0,5.267919314551818e+16,554774144333224.0,595004109756999.5,83454269750507.8,152823565986810.62,2045719359038047.5,4.173058836341261e+16
40.93981496991464,7528134084615812.0,5.373790700763506e+16,555608483324082.25,595898951629577.1,85432589181407.64,156466360320288.66,2094501096448602.5,4.272186544211534e+16
41.85861126931294,7539249432064467.0,5.481714409428316e+16,556428843495214.94,596778800995086.5,87449938145353.69,160181981655073.0,2144258976733051.5,4.373279612119495e+16
42.7957834946992,7550180975724416.0,5.591730782503498e+16,557235638160793.25,597644101139562.1,89507054996130.23,163971847179151.62,2195012031853922.8,4.476375617598091e+16
43.751699164593184,7560934213086253.0,5.703880912945094e+16,558029273059126.94,598495287223810.2,91604691941140.11,167837402233193.2,2246779673270954.8,4.5815128588636504e+16
44.72673314788505,7571514542022684.0,5.818206658151447e+16,558810146576301.8,599332786523253.2,93743615265026.66,171780120833176.8,2299581699045838.5,4.688730367124828e+16
