t(s),Total solute volume 1,Total retention volume 1,Total 1 volume 1,Total 2 volume 1,Total 3 volume 1,Total 4 volume 1,Total 5 volume 1,Total 6 volume 1
0.1,964857416365797.9,1154672529873703.2,88762465329957.31,101052648177948.16,0.0,0.0,0.0,0.0
0.202,1453523531091988.8,1739501357039141.0,133717511184815.22,152232237534469.88,38918342.955515504,77674460.35030448,1192734720.3319216,26767900345.72896
0.30604000000000003,1825728961310274.0,2184973429357948.5,167958706992303.8,191214520592192.66,98744169.4245401,197076781.0157437,3026238270.4938946,67918403954.94009
0.41216080000000005,2140559357075452.0,2561795293435497.5,196921662248506.7,224187729957652.62,175396365.6313876,350061726.2784667,5375428814.868433,120643266982.60193
0.5204040160000001,2420148192488868.5,2896453405429305.0,222642555267931.7,253469976284980.6,267063738.75707448,533014457.1626879,8184797093.307257,183696512237.6079
0.6308120963200001,2675523688058473.5,3202144852124099.0,246135931858232.97,280216280921916.62,372774933.175166,743996310.6169244,11424573264.068125,256409940967.97598
0.7434283382464002,2913095688207767.5,3486540077519788.0,267991468365944.0,305097967687088.8,491974761.82381237,981899226.7868046,15077742140.033524,338401642858.34106
0.8582969050113283,3136970454782159.5,3754552936990546.5,288586922084557.8,328545098715040.4,624350144.5725906,1246098350.9048162,19134708553.254154,429456251738.6333
0.9754628431115548,3349961841694616.5,4009550737096382.5,308181154693634.4,350852378061143.44,769744351.9119903,1536280877.9802566,23590669112.626724,529465952647.7129
1.094972099973786,3554095999205443.0,4253958195399701.5,326960562742356.6,372232011019773.8,928109516.474411,1852351273.719526,28444156790.55246,638397814547.8593
1.2168715419732616,3750888450736777.5,4489589005645398.0,345064567448184.44,392842723278768.94,1099478100.0918677,2194374327.540502,33696166454.951374,756274162782.5002
1.3412089728127268,3941507511684985.5,4717841392605442.0,362600648479553.7,412806876302236.1,1283944691.7027643,2562538824.239011,39349597018.28309,883160058129.627
1.4680331522689813,4126876231559304.0,4939820100391579.0,379653722165995.2,432221144061695.5,1481653856.4077134,2957133292.739011,45408879040.23558,1019154938396.9362
1.597393815314361,4307738920788579.0,5156416000931138.0,396292261659830.56,451163480604536.94,1692791735.0150304,3378529240.194089,51879717274.09554,1164386839931.4766
1.729341691620648,4484706207315221.0,5368360010179151.0,412572441936566.4,469697838977374.3,1917580076.7849274,3827169242.347182,58768907784.87558,1319008292886.2517
1.863928525453061,4658286515759204.0,5576260757013952.0,428541035733888.94,487877468141087.94,2156271911.6244974,4303558305.960336,66084205312.68339,1483193344232.7827
2.001207095962122,4828908649804956.0,5780631605927134.0,444237491027878.3,505747278097506.1,2409148362.833625,4808257507.593771,73834225591.23024,1657135365333.3857
2.1412312378813647,4996938365260540.0,5981910488767626.0,459695455678604.9,523345575639704.94,2676516275.496722,5341879260.27774,82028372663.91222,1841045420576.548
2.284055862638992,5162690776275549.0,6180474750338169.0,474943918745365.2,540705363695475.75,2958706442.4300933,5905083772.8058195,90676784513.52068,2035151047055.412
2.4297369798917723,5326439805379272.0,6376652456569738.0,490008079846952.94,557855331060497.56,3256072277.426144,6498576401.758211,99790292400.51578,2239695341929.5967
2.578331719489608,5488425493522802.0,6570731141947442.0,504910021652059.2,574820618002780.6,3568988829.895947,7123105684.899223,109380390664.32663,2454936284625.2427
2.7298983538794,5648859732980456.0,6762964669718577.0,519669237279965.25,591623416688043.4,3897852064.777664,7779461904.00154,119459214654.40387,2681146241503.605
2.884496320956988,5807930819175258.0,6953578678824264.0,534303049047652.8,608283447907171.6,4243078352.0119305,8468476065.931169,130039525083.98984,2918611614684.346
3.0421862473761276,5965807105208909.0,7142774957133166.0,548826944669825.4,624818343826994.2,4605104124.199068,9191019219.395723,141134697538.25177,3167632606555.9326
3.2030299723236504,6122639965762535.0,7330734988278436.0,563254849924217.0,641243958409248.2,4984385671.263994,9948002045.137352,152758716181.37027,3428523078529.066
3.3670905717701234,6278566223112141.0,7517622854873419.0,577599351833902.9,657574621495041.9,5381399048.359811,10740374672.131784,164926170934.11484,3701610487683.4526
3.5344323832055258,6433710149674062.0,7703587635017350.0,591871882892316.8,673823348537937.5,5796640078.691394,11569126683.23176,177652257560.49445,3987235888706.728
3.7051210308696363,6588185133844668.0,7888765395913596.0,606082874312879.8,690002015072758.0,6230624437.00761,12435287281.81236,190952780226.70264,4285753991322.625
3.879223451487029,6742095075674166.0,8073280864222911.0,620241884424599.9,706121502889034.4,6683887802.583955,13339925597.108145,204844156189.78467,4597533265519.267
4.0568079205167695,6895535563936589.0,8257248834851098.0,634357706957124.0,722191823309361.5,7156986072.866891,14284151110.620718,219343422345.43338,4922956088504.289
4.237944078927105,7048594874937098.0,8440775366443056.0,648438462926430.1,738222221797736.5,7650495630.76533,15269114189.598436,234468243419.95422,5262418928562.24
4.422702960505647,7201354824899307.0,8623958801686707.0,662491679050574.9,754221267232840.5,8165013659.99283,16296006716.416876,250236921634.86557,5616332561964.009
4.61115701971576,7353891501276789.0,8806890642753310.0,676524355026983.0,770196928500674.5,8701158503.978868,17366062804.91723,266668407706.79797,5985122319846.11
4.803380160110075,7506275891714176.0,8989656306271766.0,690543021398195.5,786156640385307.9,9259570065.264013,18480559629.68198,283782324674.4555,6369230319696.606
4.9994477633122765,7658574436709877.0,9172335777106244.0,704553790377471.9,802107361380211.8,9840910239.444784,19640818164.20583,301598935079.5719,6769107975203.856
5.199436718578522,7810849495194256.0,9355004177697134.0,718562398705234.9,818055622556604.0,10445863388.9957,20848204317.544754,320139224335.346,7185227948993.642
5.403425452950093,7963159766237131.0,9537732265243132.0,732574246427205.0,834007571658610.9,11075136844.954489,22104129808.893448,339424870418.9924,7618076783104.05
5.611493962009095,8115560651591534.0,9720586867907662.0,746594430251050.2,849969011091657.8,11729461442.639866,23410053268.33781,359478271658.7929,8068157187058.712
5.823723841249277,8268104576277100.0,9903631268878460.0,760627773038601.1,865945431498228.1,12409592087.225172,24767481365.659866,380322564067.81494,8535988427010.411
6.040198318074262,8420841271773078.0,1.008692554570194e+16,774678849858295.9,881942041417581.1,13116308348.803411,26177969998.004658,401981639581.4161,9022106735061.896
6.261002284435747,8573818027008106.0,1.0270526871100142e+16,788752011075099.2,897963793572712.2,13850415086.298098,27643125535.11855,424480165178.79297,9527065738427.865
6.486222330124463,8727079911506760.0,1.0454489780487168e+16,802851402878962.4,914015408241231.4,14612743099.76181,29164606121.2458,447843602874.57526,10051436908124.291
6.715946776726952,8880669974373704.0,1.0638866410590192e+16,816980985590455.1,930101394095610.1,15404149810.76634,30744123033.092014,472098230571.3514,10595810026980.74
6.950265712261491,9034629422236106.0,1.0823706712909118e+16,831144550030646.6,946226066839672.1,16225519970.725546,32383442093.538216,497271163768.2972,11160793676866.693
7.18927102650672,9188997778800474.0,1.1009058645194338e+16,845345732199612.6,962393565919498.5,17077766397.11294,34084385141.028423,523390378124.71423,11747015745105.445
7.433056447036854,9343813028294312.0,1.1194968343658512e+16,859588026472406.9,978607869546535.4,17961830737.63958,35848831554.76222,550484732880.4944,12355123950120.902
7.681717575977592,9499111744739194.0,1.1381480278253226e+16,873874797491593.8,994872808236788.0,18878684262.550198,37678719836.00914,578583995138.3655,12985786386426.14
7.935351927497144,9654929208731100.0,1.1568637393015248e+16,888209290910508.1,1011192077041595.2,19829328685.27752,39576049246.0209,607718865015.265,13639692089118.184
8.194058966047088,9811299513174966.0,1.1756481233215154e+16,902594643120333.6,1027569246621562.8,20814797011.767418,41542881501.16747,637921001672.4023,14317551618094.492
8.45794014536803,9968255659227018.0,1.1945052060807766e+16,917033890076384.0,1044007773294904.5,21836154418.853165,43581342526.05272,669223050235.657,15020097662251.479
8.72709894827539,1.0125829643534312e+16,1.2134388959489388e+16,931529975323711.2,1060511008174328.2,22894499162.11843,45693624265.48429,701658669619.7308,15748085663967.021
9.0016409272409,1.028405253772057e+16,1.2324529930497452e+16,946085757309471.6,1077082205491853.4,23990963513.74243,47881986556.28584,735262561271.2018,16502294464206.541
9.281673745785717,1.044295456094831e+16,1.2515511980146358e+16,960704016058286.2,1093724530198465.6,25126714730.87186,50148759060.035484,770070498847.1858,17283526968627.715
9.567307220701432,1.0602565146284308e+16,1.2707371199969874e+16,975387459277560.9,1110441064914785.5,26302956055.112595,52496343257.918304,806119358847.7598,18092610835091.117
9.85865336511546,1.0762913001506618e+16,1.2900142840235154e+16,990138727951466.9,1127234816299604.2,27520927743.77925,54927214508.96095,843447152221.7083,18930399183015.98
10.155826432417769,1.0924026164916736e+16,1.3093861377501678e+16,1004960401475399.6,1144108720895254.2,28781908133.58106,57443924173.0073,882093056966.3903,19797771325047.51
10.458942961066125,1.1085932056652698e+16,1.3288560576820844e+16,1019855002376537.2,1161065650501802.0,30087214737.46581,60049101799.87365,922097451743.85,20695633521533.15
10.768121820287448,1.1248657525943266e+16,1.3484273549102044e+16,1034825000661018.9,1178108417126121.2,31438205375.38067,62745457386.198586,963501950536.4385,21624919758328.242
11.083484256693197,1.1412228894692552e+16,1.368103280411264e+16,1049872817823528.9,1195239777546683.8,32836279339.747982,65535783701.5781,1006349438366.3574,22586592548481.54
11.405153941827061,1.1576671997741812e+16,1.3878870299527046e+16,1065000830551207.6,1212462437530275.0,34282878596.488243,68422958685.653305,1050684108104.7333,23581643758372.26
11.733257020663602,1.1742012220117012e+16,1.4077817486394548e+16,1080211374150239.6,1229779055733064.8,35779489022.46319,71409947917.88394,1096551498396.8293,24611095458898.645
12.067922161076874,1.1908274531537048e+16,1.4277905351356184e+16,1095506745720462.2,1247192247314772.8,37327641680.24016,74499807161.81526,1143998532731.1956,25676000802339.848
12.409280604298411,1.2075483518429176e+16,1.4479164455905924e+16,1110889207100641.8,1264704587291740.8,38928914131.12232,77695684985.7178,1193073559681.5225,26777444925538.17
12.75746621638438,1.2243663413671986e+16,1.468162497296033e+16,1126360987604670.2,1282318613651992.8,40584931787.41557,81000825461.5394,1243826394351.1135,27916545880071.977
13.112615540712067,1.2412838124263438e+16,1.4885316720974808e+16,1141924286566932.0,1300036830253041.8,42297369304.94423,84418570944.19078,1296308361050.86,29094455590113.605
13.474867851526309,1.2583031257092346e+16,1.5090269195819336e+16,1157581275713131.5,1317861709520982.8,44067952016.856186,87952364933.24138,1350572337242.7688,30312360838689.7
13.844365208556836,1.2754266142972914e+16,1.5296511600606308e+16,1173334101371378.5,1335795694967724.5,45898457409.79866,91605755019.18073,1406672798781.9966,31571484283086.133
14.221252512727972,1.2926565859086826e+16,1.5504072873644188e+16,1189184886536752.0,1353841203541411.2,47790716643.57387,95382395916.46379,1464665866491.5623,32873085500161.816
14.605677562982532,1.3099953249963224e+16,1.5712981714673476e+16,1205135732801358.5,1372000627823742.2,49746616115.423065,99286052585.62949,1524609354104.7966,34218462062360.445
14.997791114242183,1.327445094711464e+16,1.5923266609527226e+16,1221188722160753.5,1390276338086488.5,51768099070.120895,103320603446.85382,1586562817611.907,35608950645234.39
15.397746936527026,1.3450081387435622e+16,1.6134955853344912e+16,1237345918706527.8,1408670684218457.0,53857167257.09761,107490043687.36194,1650587606047.779,37045928167316.11
15.805701875257567,1.3626866830460962e+16,1.634807757245616e+16,1253609370213987.5,1427185997532968.5,56015882635.83967,111798488665.20822,1716746913759.5598,38530812963200.836
16.221815912762718,1.3804829374571308e+16,1.6562659745040966e+16,1269981109632997.8,1445824592465174.2,58246369130.861374,116250177411.98666,1785105834193.4438,40065065990724.836
16.64625223101797,1.3983990972226906e+16,1.6778730220662878e+16,1286463156489408.8,1464588768167500.2,60550814437.568924,120849476237.12431,1855731415241.3228,41650192073152.95
17.079177275638333,1.4164373444301386e+16,1.6996316738763794e+16,1303057518203714.5,1483480810010874.0,62931471880.38156,125600882436.47418,1928692716189.0193,43287741177310.59
17.5207608211511,1.4345998493583186e+16,1.7215446946200428e+16,1319766191333100.2,1502502990998771.8,65390662324.50854,130509028107.9996,2004060866309.014,44979309728624.54
17.97117603757412,1.4528887717504176e+16,1.7436148413896366e+16,1336591162742430.5,1521657573100350.8,67930776142.81974,135578684077.42384,2081909125141.7627,46726541964059.52
18.430599558325603,1.4713062620151936e+16,1.7658448652677388e+16,1353534410709329.0,1540946808508507.5,70554275239.28685,140814763936.78778,2162312944510.7788,48531131323968.15
18.899211549492115,1.489854462361565e+16,1.7882375128351304e+16,1370597905967947.2,1560372940828184.0,73263695130.50871,146222328198.942,2245350032318.03,50394821883894.07
19.37719578048196,1.5085355078712912e+16,1.8107955276089692e+16,1387783612695759.8,1579938206199808.8,76061647086.87985,151806588571.07645,2331100418167.206,52319409827400.03
19.864739696091597,1.5273515275138936e+16,1.833521651416309e+16,1405093489447273.0,1599644834362282.2,78950820334.99223,157572912350.4806,2419646520863.897,54306744961016.88
20.36203449001343,1.5463046451078558e+16,1.8564186257078e+16,1422529490038269.5,1619495049659636.5,81933984322.9142,163526826945.7861,2511073217842.704,56358732272440.08
20.869275179813698,1.5653969802315778e+16,1.8794891928160056e+16,1440093564383861.2,1639491071995132.5,85013991050.01952,169674024527.05685,2605467916572.8643,58477333533126.95
21.38666068340997,1.5846306490874818e+16,1.9027360971623216e+16,1457787659293396.5,1659635117736277.5,88193777463.09079,176020366808.15863,2702920627995.092,60664568946479.016
21.91439389707817,1.6040077653222218e+16,1.926162086416379e+16,1475613719225045.8,1679929400573808.0,91476367920.46025,182571889964.92422,2803524042043.6865,62922518842821.32
22.452681775019734,1.6235304408058584e+16,1.949769912611314e+16,1493573687002602.2,1700376132337808.5,94864876725.99605,189334809692.72845,2907373605309.3057,65253325422422.42
23.00173541052013,1.643200786372535e+16,1.9735623332181436e+16,1511669504496832.8,1720977523773381.0,98362510734.78815,196315526407.16843,3014567600899.2925,67659194547827.44
23.561770118730532,1.6630209125250062e+16,1.997542112182233e+16,1529903113273680.5,1741735785278580.5,101972572032.42844,203520630591.63763,3125207230553.5376,70142397586809.17
24.133005521105144,1.6829929301052636e+16,2.021712020924581e+16,1548276455211139.8,1762653127606738.5,105698460689.8307,210956908295.6741,3239396699075.5923,72705273307270.67
24.715665631527248,1.7031189509331728e+16,2.0460748393104876e+16,1566791473086820.0,1783731762535354.0,109543677595.57883,218631346788.04578,3357243301139.8564,75350229825467.42
25.309978944157795,1.7234010884150366e+16,2.070633356587881e+16,1585450111137778.0,1804973903503448.0,113511827367.83812,226551140368.64658,3478857510537.2993,78079746608947.16
25.91617852304095,1.7438414581237196e+16,2.095390372297578e+16,1604254315594202.5,1826381766219154.5,117606621347.91202,234723696343.35135,3604353071923.5176,80896376535636.33
26.53450209350177,1.7644421783518676e+16,2.120348697157364e+16,1623206035188363.5,1847957569239114.0,121831880677.57689,243156641166.08667,3733847095134.3867,83802748010535.67
27.165192135371807,1.7852053706396636e+16,2.145511153921782e+16,1642307221640109.5,1869703534521227.8,126191539462.36694,251857826752.45462,3867460152135.981,86801567141520.66
27.808495978079243,1.806133160278272e+16,2.170880578219205e+16,1661559830120018.2,1891621887951901.2,130689648023.03384,260835336969.35364,4005316376676.887,89895619975769.33
28.464665897640828,1.8272276767901548e+16,2.196459819367755e+16,1680965819691279.0,1913714859849135.8,135330376237.45058,270097494305.11984,4147543566712.3716,93087774798377.23
29.133959215593645,1.8484910543871696e+16,2.2222517411713196e+16,1700527153731105.0,1935984685442270.2,140118016975.27206,279652866724.8107,4294273289671.457,96380984494744.2
29.816638399905518,1.8699254324072624e+16,2.2482592226967812e+16,1720245800332467.5,1958433605329361.8,145056989627.7112,289510274715.33435,4445640990638.922,99778288978351.31
30.51297116790363,1.8915329557303416e+16,2.2744851590334188e+16,1740123732686684.0,1981063865912737.8,150151843734.824,299678798525.2025,4601786103525.822,103282817685571.61
31.223230591261704,1.913315775173828e+16,2.30093246203517e+16,1760162929447334.2,2003877719813284.5,155407262712.74582,310167785603.7908,4762852165303.085,106897792139183.22
31.947695203086937,1.9352760478681204e+16,2.327604061046207e+16,1780365375075619.2,2026877426263652.8,160828067683.3457,320986858245.0184,4928986933374.058,110626528582282.61
32.686649107148675,1.9574159376119336e+16,2.354502903610042e+16,1800733060167313.5,2050065251480440.2,166419221408.79868,332145921440.43835,5100342506162.298,114472440684304.94
33.44038208929165,1.9797376152073644e+16,2.3816319561620824e+16,1821267981760950.0,2073443469015104.2,172185832333.6007,343655170946.7933,5277075446992.216,118439042320883.36
34.20918973107749,2.002243258774066e+16,2.4089942047051588e+16,1841972143626908.5,2097014360083011.2,178133158736.5644,355525101573.08264,5459346911340.107,122529950429289.0
34.993373525699035,2.0249350540417784e+16,2.4365926554671444e+16,1862847556536462.5,2120780213869802.0,184266612995.34323,367766515692.23645,5647322777533.733,126748887941184.92
35.793240996213015,2.0478151946198452e+16,2.4644303355395284e+16,1883896238509783.0,2144743327813674.8,190591765966.0164,380390531982.45483,5841173780978.126,131099686794444.3
36.60910581613728,2.0708858822422324e+16,2.4925102934949276e+16,1905120215041325.8,2168906007862009.5,197114351480.2709,393408594403.26794,6041075651984.984,135586291025751.62
37.44128793246003,2.094149326985825e+16,2.520835599981417e+16,1926521519300614.2,2193270568699968.5,203840270962.6563,406832481411.2606,6247209257281.842,140212759945691.08
38.29011369110923,2.117607747459305e+16,2.5494093482904264e+16,1948102192306063.0,2217839333948326.2,210775598170.3488,420674315420.33,6459760745275.577,144983271397984.25
39.15591596493141,2.141263370959446e+16,2.578234654894662e+16,1969864283068719.2,2242614636327177.0,217926584057.79953,434946572511.2107,6678921695142.611,149902125104501.75
40.03903428423004,2.1651184335908376e+16,2.607314659951362e+16,1991809848702398.0,2267598817781289.5,225299661768.50897,449662092394.7513,6904889269815.267,154973746097580.2
40.93981496991464,2.189175180344299e+16,2.6366525277655536e+16,2013940954495857.0,2292794229562267.5,232901451756.0841,464834088633.23285,7137866372929.352,160202688241116.8
41.85861126931294,2.213435865128642e+16,2.666251447206801e+16,2036259673941984.0,2318203232261790.0,240738767036.54327,480476159123.6667,7378061809794.008,165593637841782.8
42.7957834946992,2.237902750749322e+16,2.6961146320720076e+16,2058768088718162.2,2343828195789245.5,248818618573.65594,496602296846.6423,7625690452438.034,171151417351576.88
43.751699164593184,2.262578108826639e+16,2.726245321385677e+16,2081468288611037.5,2369671499286094.0,257148220798.87384,513226900883.81024,7880973408780.561,176880989162773.28
44.72673314788505,2.2874642196453252e+16,2.7566467796276772e+16,2104362371378116.2,2395735530968300.5,265734997267.12216,530364787706.5574,8144138195964.799,182787459496127.88
