t(s),Total solute volume 1,Total retention volume 1,Total 1 volume 1,Total 2 volume 1,Total 3 volume 1,Total 4 volume 1,Total 5 volume 1,Total 6 volume 1
0.1,625131135603839.2,625206120138162.4,74984534324.4608,0.0,0.0,0.0,0.0,0.0
0.21000000000000002,960714832531004.2,960830070360117.5,115237829111.74277,0.0,0.0,0.0,0.0,0.0
0.33100000000000007,1230886367444405.8,1231034012373211.8,147644928804.5011,0.0,0.0,0.0,0.0,0.0
0.46410000000000007,1472463277063179.0,1472639899163907.2,176622100727.85986,0.0,0.0,0.0,0.0,0.0
0.6105100000000001,1699185775930825.0,1699389593415397.0,203817484577.0759,0.0,0.0,0.0,0.0,0.0
0.7715610000000002,1917964184825353.2,1918194244799486.2,230059974134.27884,0.0,0.0,0.0,0.0,0.0
0.9487171000000002,2132905814829049.8,2133161657070770.0,255842241725.10837,0.0,0.0,0.0,0.0,0.0
1.1435888100000002,2346740821708027.0,2347022313477804.0,281491769774.825,0.0,0.0,0.0,0.0,0.0
1.3579476910000003,2561440994620801.0,2561748239695372.5,307245074567.4797,0.0,0.0,0.0,0.0,0.0
1.5937424601000005,2778526903680788.5,2778860188229410.5,333284548622.8718,0.0,0.0,0.0,0.0,0.0
1.8531167061100007,2999235797980475.0,2999595556580555.5,359758600079.3227,0.0,0.0,0.0,0.0,0.0
2.138428376721001,3224620372804389.5,3225007166304221.0,386793499829.56085,0.0,0.0,0.0,0.0,0.0
2.452271214393101,3455610361861880.5,3456024862631394.5,414500769514.49005,0.0,0.0,0.0,0.0,0.0
2.7974983358324113,3693052843643025.5,3693495825659292.5,442982016274.14606,0.0,0.0,0.0,0.0,0.0
3.1772481694156527,3937739727687330.0,3938212059917063.0,472332229728.0527,0.0,0.0,0.0,0.0,0.0
3.594972986357218,4190427192777426.0,4190929834891005.5,502642113588.27936,0.0,0.0,0.0,0.0,0.0
4.05447028499294,4451849896132156.0,4452383895922211.0,533999790053.4134,0.0,0.0,0.0,0.0,0.0
4.5599173134922335,4722731686508876.0,4723298178593718.0,566492084846.1328,0.0,0.0,0.0,0.0,0.0
5.115909044841457,5003793923503156.0,5004394129028277.0,600205525113.9357,0.0,0.0,0.0,0.0,0.0
5.727499949325603,5295762125330466.0,5296397352467293.0,635227136831.1312,0.0,0.0,0.0,0.0,0.0
6.400249944258164,5599371430546889.0,5600043075646818.0,671645099932.7498,0.0,0.0,0.0,0.0,0.0
7.140274938683981,5915371206143204.0,5916080755444253.0,709549301055.7834,0.0,0.0,0.0,0.0,0.0
7.95430243255238,6244529029678152.0,6245278061489366.0,749031811196.3899,0.0,0.0,0.0,0.0,0.0
8.84973267580762,6587634191416293.0,6588424378722088.0,790187305791.5564,0.0,0.0,0.0,0.0,0.0
9.834705943388382,6945500780279735.0,6946333893714604.0,833113434879.0955,0.0,0.0,0.0,0.0,0.0
10.918176537727222,7318970306479090.0,7319848217616774.0,877911137682.1938,0.0,0.0,0.0,0.0,0.0
12.109994191499945,7708913638092540.0,7709838322967437.0,924684874901.7866,0.0,0.0,0.0,0.0,0.0
13.42099361064994,8116231748335739.0,8117205291054098.0,973542718351.0195,0.0,0.0,0.0,0.0,0.0
14.863092971714936,8541854353177798.0,8542878949365343.0,1024596187536.3708,0.0,0.0,0.0,0.0,0.0
16.44940226888643,8986734965340350.0,8987812924996740.0,1077959656383.4358,0.0,0.0,0.0,0.0,0.0
18.194342495775075,9451840258773282.0,9452974007850788.0,1133749077503.8623,0.0,0.0,0.0,0.0,0.0
20.113776745352585,9938131061574572.0,9939323141276894.0,1192079702293.4302,0.0,0.0,0.0,0.0,0.0
22.225154419887843,1.0446531976794546e+16,1.0447785039231524e+16,1253062436944.09,0.0,0.0,0.0,0.0,0.0
24.54766986187663,1.0977886796648524e+16,1.0979203595142898e+16,1316798494374.4531,0.0,0.0,0.0,0.0,0.0
27.102436848064297,1.1532897705811854e+16,1.1534281077913522e+16,1383372101659.7302,0.0,0.0,0.0,0.0,0.0
29.91268053287073,1.2112047817413804e+16,1.2113500658622024e+16,1452841208218.0173,0.0,0.0,0.0,0.0,0.0
33.003948586157804,1.2715508726053852e+16,1.2717033952450626e+16,1525226396787.7131,0.0,0.0,0.0,0.0,0.0
36.40434344477359,1.334303719433469e+16,1.3344637692825644e+16,1600498490969.875,0.0,0.0,0.0,0.0,0.0
40.14477778925095,1.399386739852454e+16,1.3995545964154638e+16,1678565630088.3308,0.0,0.0,0.0,0.0,0.0
44.25925556817605,1.4666606927624374e+16,1.4668366188418672e+16,1759260794271.3555,0.0,0.0,0.0,0.0,0.0
48.78518112499366,1.5359145655086944e+16,1.5360987985960536e+16,1842330873609.4849,0.0,0.0,0.0,0.0,0.0
53.763699237493036,1.606858657753079e+16,1.6070514005903056e+16,1927428372256.4429,0.0,0.0,0.0,0.0,0.0
59.240069161242346,1.6791206848750906e+16,1.6793220955485332e+16,2014106734458.465,0.0,0.0,0.0,0.0,0.0
65.26407607736658,1.7522455794035304e+16,1.7524557614141658e+16,2101820106374.5571,0.0,0.0,0.0,0.0,0.0
71.89048368510325,1.8256994976093464e+16,1.825918490423543e+16,2189928141990.748,0.0,0.0,0.0,0.0,0.0
79.17953205361358,1.898878361823441e+16,1.8991061324484064e+16,2277706249639.872,0.0,0.0,0.0,0.0,0.0
87.19748525897495,1.97112109125892e+16,1.971357527405156e+16,2364361462385.5933,0.0,0.0,0.0,0.0,0.0
96.01723378487245,2.0417274792255844e+16,2.0419723846137624e+16,2449053881756.7866,0.0,0.0,0.0,0.0,0.0
105.7189571633597,2.1099804340247588e+16,2.1102335263603292e+16,2530923355718.8794,0.0,0.0,0.0,0.0,0.0
116.39085287969569,2.1751719873218204e+16,2.17543289938939e+16,2609120675736.4233,0.0,0.0,0.0,0.0,0.0
128.12993816766527,2.2366320773487908e+16,2.2369003615590068e+16,2682842102245.1543,0.0,0.0,0.0,0.0,0.0
141.04293198443182,2.293758655297806e+16,2.294033791845537e+16,2751365477291.2754,0.0,0.0,0.0,0.0,0.0
155.247225182875,2.3460471972648684e+16,2.34632860582728e+16,2814085624126.7617,0.0,0.0,0.0,0.0,0.0
170.87194770116253,2.3931173181945884e+16,2.3934043728216492e+16,2870546270652.0767,0.0,0.0,0.0,0.0,0.0
188.0591424712788,2.4347339832676064e+16,2.435026029816851e+16,2920465492487.018,0.0,0.0,0.0,0.0,0.0
206.9650567184067,2.47082089784688e+16,2.4711172730243036e+16,2963751774217.271,0.0,0.0,0.0,0.0,0.0
227.76156239024738,2.5014641027139276e+16,2.5017641535461148e+16,3000508321879.63,0.0,0.0,0.0,0.0,0.0
250.63771862927214,2.526904625050949e+16,2.5272077274757308e+16,3031024247807.2905,0.0,0.0,0.0,0.0,0.0
275.8014904921994,2.5475201800198944e+16,2.54782575528206e+16,3055752621659.0674,0.0,0.0,0.0,0.0,0.0
303.4816395414193,2.5637972410013964e+16,2.5641047686982692e+16,3075276968649.965,0.0,0.0,0.0,0.0,0.0
333.92980349556126,2.576296084963011e+16,2.5766051118971536e+16,3090269341444.972,0.0,0.0,0.0,0.0,0.0
367.4227838451174,2.5856124234020612e+16,2.5859225678317052e+16,3101444296447.658,0.0,0.0,0.0,0.0,0.0
404.26506222962917,2.5923397203151016e+16,2.592650671684525e+16,3109513694177.637,0.0,0.0,0.0,0.0,0.0
444.7915684525921,2.597036134384595e+16,2.5973476490892324e+16,3115147046400.2314,0.0,0.0,0.0,0.0,0.0
489.3707252978514,2.6001991994171584e+16,2.6005110935316868e+16,3118941145294.2695,0.0,0.0,0.0,0.0,0.0
538.4077978276366,2.602250028969979e+16,2.6025621690816708e+16,3121401116890.4487,0.0,0.0,0.0,0.0,0.0
592.3485776104003,2.6035272801352564e+16,2.603839573453314e+16,3122933180626.882,0.0,0.0,0.0,0.0,0.0
651.6834353714404,2.6035272801352564e+16,2.603839573453314e+16,3122933180626.882,0.0,0.0,0.0,0.0,0.0
716.9517789085845,2.6035272801352564e+16,2.603839573453314e+16,3122933180626.882,0.0,0.0,0.0,0.0,0.0
788.7469567994431,2.6035272801352564e+16,2.603839573453314e+16,3122933180626.882,0.0,0.0,0.0,0.0,0.0
867.7216524793874,2.6035272801352564e+16,2.603839573453314e+16,3122933180626.882,0.0,0.0,0.0,0.0,0.0
954.5938177273263,2.6035272801352564e+16,2.603839573453314e+16,3122933180626.882,0.0,0.0,0.0,0.0,0.0
1050.153199500059,2.6035272801352564e+16,2.603839573453314e+16,3122933180626.882,0.0,0.0,0.0,0.0,0.0
1155.2685194500648,2.6035272801352564e+16,2.603839573453314e+16,3122933180626.882,0.0,0.0,0.0,0.0,0.0
1270.8953713950714,2.6035272801352564e+16,2.603839573453314e+16,3122933180626.882,0.0,0.0,0.0,0.0,0.0
1398.0849085345785,2.6035272801352564e+16,2.603839573453314e+16,3122933180626.882,0.0,0.0,0.0,0.0,0.0
1537.9933993880366,2.6035272801352564e+16,2.603839573453314e+16,3122933180626.882,0.0,0.0,0.0,0.0,0.0
1691.8927393268402,2.6035272801352564e+16,2.603839573453314e+16,3122933180626.882,0.0,0.0,0.0,0.0,0.0
1861.1820132595244,2.6035272801352564e+16,2.603839573453314e+16,3122933180626.882,0.0,0.0,0.0,0.0,0.0
2047.400214585477,2.6035272801352564e+16,2.603839573453314e+16,3122933180626.882,0.0,0.0,0.0,0.0,0.0
2252.2402360440246,2.6035272801352564e+16,2.603839573453314e+16,3122933180626.882,0.0,0.0,0.0,0.0,0.0
2477.564259648427,2.6035272801352564e+16,2.603839573453314e+16,3122933180626.882,0.0,0.0,0.0,0.0,0.0
2725.42068561327,2.6035272801352564e+16,2.603839573453314e+16,3122933180626.882,0.0,0.0,0.0,0.0,0.0
2998.062754174597,2.6035272801352564e+16,2.603839573453314e+16,3122933180626.882,0.0,0.0,0.0,0.0,0.0
3297.9690295920573,2.6035272801352564e+16,2.603839573453314e+16,3122933180626.882,0.0,0.0,0.0,0.0,0.0
3627.8659325512635,2.6035272801352564e+16,2.603839573453314e+16,3122933180626.882,0.0,0.0,0.0,0.0,0.0
3990.75252580639,2.6035272801352564e+16,2.603839573453314e+16,3122933180626.882,0.0,0.0,0.0,0.0,0.0
4389.927778387029,2.6035272801352564e+16,2.603839573453314e+16,3122933180626.882,0.0,0.0,0.0,0.0,0.0
4829.020556225732,2.6035272801352564e+16,2.603839573453314e+16,3122933180626.882,0.0,0.0,0.0,0.0,0.0
5312.022611848306,2.6035272801352564e+16,2.603839573453314e+16,3122933180626.882,0.0,0.0,0.0,0.0,0.0
5843.324873033137,2.6035272801352564e+16,2.603839573453314e+16,3122933180626.882,0.0,0.0,0.0,0.0,0.0
6427.757360336452,2.6035272801352564e+16,2.603839573453314e+16,3122933180626.882,0.0,0.0,0.0,0.0,0.0
7070.6330963700975,2.6035272801352564e+16,2.603839573453314e+16,3122933180626.882,0.0,0.0,0.0,0.0,0.0
7777.796406007108,2.6035272801352564e+16,2.603839573453314e+16,3122933180626.882,0.0,0.0,0.0,0.0,0.0
8555.67604660782,2.6035272801352564e+16,2.603839573453314e+16,3122933180626.882,0.0,0.0,0.0,0.0,0.0
9411.343651268602,2.6035272801352564e+16,2.603839573453314e+16,3122933180626.882,0.0,0.0,0.0,0.0,0.0
10352.578016395462,2.6035272801352564e+16,2.603839573453314e+16,3122933180626.882,0.0,0.0,0.0,0.0,0.0
11387.93581803501,2.6035272801352564e+16,2.603839573453314e+16,3122933180626.882,0.0,0.0,0.0,0.0,0.0
12526.829399838512,2.6035272801352564e+16,2.603839573453314e+16,3122933180626.882,0.0,0.0,0.0,0.0,0.0
13779.612339822364,2.6035272801352564e+16,2.603839573453314e+16,3122933180626.882,0.0,0.0,0.0,0.0,0.0
15157.673573804603,2.6035272801352564e+16,2.603839573453314e+16,3122933180626.882,0.0,0.0,0.0,0.0,0.0
16673.540931185064,2.6035272801352564e+16,2.603839573453314e+16,3122933180626.882,0.0,0.0,0.0,0.0,0.0
18340.99502430357,2.6035272801352564e+16,2.603839573453314e+16,3122933180626.882,0.0,0.0,0.0,0.0,0.0
20175.19452673393,2.6035272801352564e+16,2.603839573453314e+16,3122933180626.882,0.0,0.0,0.0,0.0,0.0
22192.813979407325,2.6035272801352564e+16,2.603839573453314e+16,3122933180626.882,0.0,0.0,0.0,0.0,0.0
24412.19537734806,2.6035272801352564e+16,2.603839573453314e+16,3122933180626.882,0.0,0.0,0.0,0.0,0.0
26853.51491508287,2.6035272801352564e+16,2.603839573453314e+16,3122933180626.882,0.0,0.0,0.0,0.0,0.0
29538.966406591157,2.6035272801352564e+16,2.603839573453314e+16,3122933180626.882,0.0,0.0,0.0,0.0,0.0
32492.963047250276,2.6035272801352564e+16,2.603839573453314e+16,3122933180626.882,0.0,0.0,0.0,0.0,0.0
35742.359351975305,2.6035272801352564e+16,2.603839573453314e+16,3122933180626.882,0.0,0.0,0.0,0.0,0.0
39316.695287172835,2.6035272801352564e+16,2.603839573453314e+16,3122933180626.882,0.0,0.0,0.0,0.0,0.0
43248.464815890125,2.6035272801352564e+16,2.603839573453314e+16,3122933180626.882,0.0,0.0,0.0,0.0,0.0
47573.41129747914,2.6035272801352564e+16,2.603839573453314e+16,3122933180626.882,0.0,0.0,0.0,0.0,0.0
52330.85242722706,2.6035272801352564e+16,2.603839573453314e+16,3122933180626.882,0.0,0.0,0.0,0.0,0.0
57564.03766994977,2.6035272801352564e+16,2.603839573453314e+16,3122933180626.882,0.0,0.0,0.0,0.0,0.0
63320.54143694475,2.6035272801352564e+16,2.603839573453314e+16,3122933180626.882,0.0,0.0,0.0,0.0,0.0
69652.69558063924,2.6035272801352564e+16,2.603839573453314e+16,3122933180626.882,0.0,0.0,0.0,0.0,0.0
76618.06513870317,2.6035272801352564e+16,2.603839573453314e+16,3122933180626.882,0.0,0.0,0.0,0.0,0.0
84279.97165257348,2.6035272801352564e+16,2.603839573453314e+16,3122933180626.882,0.0,0.0,0.0,0.0,0.0
92708.06881783083,2.6035272801352564e+16,2.603839573453314e+16,3122933180626.882,0.0,0.0,0.0,0.0,0.0
101978.97569961392,2.6035272801352564e+16,2.603839573453314e+16,3122933180626.882,0.0,0.0,0.0,0.0,0.0
112176.97326957532,2.6035272801352564e+16,2.603839573453314e+16,3122933180626.882,0.0,0.0,0.0,0.0,0.0
123394.77059653286,2.6035272801352564e+16,2.603839573453314e+16,3122933180626.882,0.0,0.0,0.0,0.0,0.0
135734.34765618618,2.6035272801352564e+16,2.603839573453314e+16,3122933180626.882,0.0,0.0,0.0,0.0,0.0
149307.8824218048,2.6035272801352564e+16,2.603839573453314e+16,3122933180626.882,0.0,0.0,0.0,0.0,0.0
164238.77066398528,2.6035272801352564e+16,2.603839573453314e+16,3122933180626.882,0.0,0.0,0.0,0.0,0.0
180662.74773038382,2.6035272801352564e+16,2.603839573453314e+16,3122933180626.882,0.0,0.0,0.0,0.0,0.0
198729.12250342223,2.6035272801352564e+16,2.603839573453314e+16,3122933180626.882,0.0,0.0,0.0,0.0,0.0
218602.13475376446,2.6035272801352564e+16,2.603839573453314e+16,3122933180626.882,0.0,0.0,0.0,0.0,0.0
240462.44822914092,2.6035272801352564e+16,2.603839573453314e+16,3122933180626.882,0.0,0.0,0.0,0.0,0.0
264508.79305205506,2.6035272801352564e+16,2.603839573453314e+16,3122933180626.882,0.0,0.0,0.0,0.0,0.0
290959.7723572606,2.6035272801352564e+16,2.603839573453314e+16,3122933180626.882,0.0,0.0,0.0,0.0,0.0
320055.84959298663,2.6035272801352564e+16,2.603839573453314e+16,3122933180626.882,0.0,0.0,0.0,0.0,0.0
352061.53455228533,2.6035272801352564e+16,2.603839573453314e+16,3122933180626.882,0.0,0.0,0.0,0.0,0.0
387267.7880075139,2.6035272801352564e+16,2.603839573453314e+16,3122933180626.882,0.0,0.0,0.0,0.0,0.0
425994.6668082653,2.6035272801352564e+16,2.603839573453314e+16,3122933180626.882,0.0,0.0,0.0,0.0,0.0
468594.23348909186,2.6035272801352564e+16,2.603839573453314e+16,3122933180626.882,0.0,0.0,0.0,0.0,0.0
515453.7568380011,2.6035272801352564e+16,2.603839573453314e+16,3122933180626.882,0.0,0.0,0.0,0.0,0.0
566999.2325218013,2.6035272801352564e+16,2.603839573453314e+16,3122933180626.882,0.0,0.0,0.0,0.0,0.0
623699.2557739815,2.6035272801352564e+16,2.603839573453314e+16,3122933180626.882,0.0,0.0,0.0,0.0,0.0
686069.2813513797,2.6035272801352564e+16,2.603839573453314e+16,3122933180626.882,0.0,0.0,0.0,0.0,0.0
754676.3094865177,2.6035272801352564e+16,2.603839573453314e+16,3122933180626.882,0.0,0.0,0.0,0.0,0.0
830144.0404351695,2.6035272801352564e+16,2.603839573453314e+16,3122933180626.882,0.0,0.0,0.0,0.0,0.0
913158.5444786865,2.6035272801352564e+16,2.603839573453314e+16,3122933180626.882,0.0,0.0,0.0,0.0,0.0
1004474.4989265553,2.6035272801352564e+16,2.603839573453314e+16,3122933180626.882,0.0,0.0,0.0,0.0,0.0
1104922.0488192108,2.6035272801352564e+16,2.603839573453314e+16,3122933180626.882,0.0,0.0,0.0,0.0,0.0
1215414.3537011321,2.6035272801352564e+16,2.603839573453314e+16,3122933180626.882,0.0,0.0,0.0,0.0,0.0
1336955.8890712454,2.6035272801352564e+16,2.603839573453314e+16,3122933180626.882,0.0,0.0,0.0,0.0,0.0
1470651.57797837,2.6035272801352564e+16,2.603839573453314e+16,3122933180626.882,0.0,0.0,0.0,0.0,0.0
1617716.835776207,2.6035272801352564e+16,2.603839573453314e+16,3122933180626.882,0.0,0.0,0.0,0.0,0.0
1779488.619353828,2.6035272801352564e+16,2.603839573453314e+16,3122933180626.882,0.0,0.0,0.0,0.0,0.0
1957437.581289211,2.6035272801352564e+16,2.603839573453314e+16,3122933180626.882,0.0,0.0,0.0,0.0,0.0
2153181.4394181324,2.6035272801352564e+16,2.603839573453314e+16,3122933180626.882,0.0,0.0,0.0,0.0,0.0
2368499.6833599457,2.6035272801352564e+16,2.603839573453314e+16,3122933180626.882,0.0,0.0,0.0,0.0,0.0
2605349.7516959403,2.6035272801352564e+16,2.603839573453314e+16,3122933180626.882,0.0,0.0,0.0,0.0,0.0
2865884.8268655348,2.6035272801352564e+16,2.603839573453314e+16,3122933180626.882,0.0,0.0,0.0,0.0,0.0
3152473.4095520885,2.6035272801352564e+16,2.603839573453314e+16,3122933180626.882,0.0,0.0,0.0,0.0,0.0
3467720.8505072976,2.6035272801352564e+16,2.603839573453314e+16,3122933180626.882,0.0,0.0,0.0,0.0,0.0
3814493.0355580277,2.6035272801352564e+16,2.603839573453314e+16,3122933180626.882,0.0,0.0,0.0,0.0,0.0
4195942.439113831,2.6035272801352564e+16,2.603839573453314e+16,3122933180626.882,0.0,0.0,0.0,0.0,0.0
4615536.783025214,2.6035272801352564e+16,2.603839573453314e+16,3122933180626.882,0.0,0.0,0.0,0.0,0.0
5077090.561327737,2.6035272801352564e+16,2.603839573453314e+16,3122933180626.882,0.0,0.0,0.0,0.0,0.0
5584799.717460511,2.6035272801352564e+16,2.603839573453314e+16,3122933180626.882,0.0,0.0,0.0,0.0,0.0
6143279.789206563,2.6035272801352564e+16,2.603839573453314e+16,3122933180626.882,0.0,0.0,0.0,0.0,0.0
6757607.868127219,2.6035272801352564e+16,2.603839573453314e+16,3122933180626.882,0.0,0.0,0.0,0.0,0.0
7433368.754939942,2.6035272801352564e+16,2.603839573453314e+16,3122933180626.882,0.0,0.0,0.0,0.0,0.0
8176705.730433936,2.6035272801352564e+16,2.603839573453314e+16,3122933180626.882,0.0,0.0,0.0,0.0,0.0
8994376.40347733,2.6035272801352564e+16,2.603839573453314e+16,3122933180626.882,0.0,0.0,0.0,0.0,0.0
9893814.143825063,2.6035272801352564e+16,2.603839573453314e+16,3122933180626.882,0.0,0.0,0.0,0.0,0.0
10883195.658207571,2.6035272801352564e+16,2.603839573453314e+16,3122933180626.882,0.0,0.0,0.0,0.0,0.0
11971515.32402833,2.6035272801352564e+16,2.603839573453314e+16,3122933180626.882,0.0,0.0,0.0,0.0,0.0
13168666.956431163,2.6035272801352564e+16,2.603839573453314e+16,3122933180626.882,0.0,0.0,0.0,0.0,0.0
14485533.75207428,2.6035272801352564e+16,2.603839573453314e+16,3122933180626.882,0.0,0.0,0.0,0.0,0.0
15934087.22728171,2.6035272801352564e+16,2.603839573453314e+16,3122933180626.882,0.0,0.0,0.0,0.0,0.0
17527496.050009884,2.6035272801352564e+16,2.603839573453314e+16,3122933180626.882,0.0,0.0,0.0,0.0,0.0
19280245.755010873,2.6035272801352564e+16,2.603839573453314e+16,3122933180626.882,0.0,0.0,0.0,0.0,0.0
21208270.430511963,2.6035272801352564e+16,2.603839573453314e+16,3122933180626.882,0.0,0.0,0.0,0.0,0.0
23329097.573563162,2.6035272801352564e+16,2.603839573453314e+16,3122933180626.882,0.0,0.0,0.0,0.0,0.0
25662007.43091948,2.6035272801352564e+16,2.603839573453314e+16,3122933180626.882,0.0,0.0,0.0,0.0,0.0
28228208.27401143,2.6035272801352564e+16,2.603839573453314e+16,3122933180626.882,0.0,0.0,0.0,0.0,0.0
31051029.201412573,2.6035272801352564e+16,2.603839573453314e+16,3122933180626.882,0.0,0.0,0.0,0.0,0.0
31536000.0,2.6035272801352564e+16,2.603839573453314e+16,3122933180626.882,0.0,0.0,0.0,0.0,0.0
