t(s),Total solute volume 1,Total retention volume 1,Total 1 volume 1,Total 2 volume 1,Total 3 volume 1,Total 4 volume 1,Total 5 volume 1,Total 6 volume 1
0.1,1393105271922661.8,5193352995607505.0,1226369007487646.5,2573878716197194.5,0.0,0.0,0.0,3.3616881476863753e-156
0.202,2072193199960294.8,7735093817314247.0,1824179439534390.5,3828555456483762.0,1982323922.0123265,10119101214.607649,545960646189.19135,9607659264473.791
0.30604000000000003,2593730577373792.0,9696421360307470.0,2283295823015347.5,4792141292874092.0,5012121864.735485,25588736176.42859,1394579718637.4717,25828486467558.836
0.41216080000000005,3034535685781963.0,1.1362236269128006e+16,2671342488196816.0,5606567018702110.0,8884128343.313793,45359276074.28528,2482521142644.708,47254311900048.07
0.5204040160000001,3425089998289687.5,1.2845471729570128e+16,3015152697581087.5,6328149971951781.0,13504589384.417297,68951800479.96086,3782378924752.152,73214226432963.45
0.6308120963200001,3780803315118172.5,1.4203196871929928e+16,3328291908464759.0,6985361138824017.0,18821986178.315296,96103174834.12068,5279310018471.341,103346274343503.36
0.7434283382464002,4110684247317492.5,1.5468773774174502e+16,3618690523260473.0,7594844724334145.0,24805768203.137714,126657368607.36858,6964552291454.235,137438263834124.94
0.8582969050113283,4420520635151562.0,1.6663645379380912e+16,3891443655954928.5,8167294271302074.0,31437555914.190723,160520513153.10834,8832840062513.498,175362018840773.72
0.9754628431115548,4714284396027057.0,1.7802539898796734e+16,4150047839009705.5,8710048244302369.0,38706789748.23624,197638677360.68683,10881143700701.674,217041930289798.1
1.094972099973786,4994836982861919.0,1.889608300167661e+16,4397022047975919.5,9228393427070744.0,46608312413.96465,237985519237.7324,13107974010974.156,262437975925389.62
1.2168715419732616,5264318188381522.0,1.995223678842434e+16,4634249971193332.0,9726283272903306.0,55140910787.32555,281554839002.30853,15512964368741.904,311535695827629.3
1.3412089728127268,5524376098559594.0,2.097715044141071e+16,4863182440917423.0,1.020676276390626e+16,64306381493.133064,328355806917.24347,18096603619495.203,364339872219532.7
1.4680331522689813,5776310842397186.0,2.197569173845842e+16,5084963978192590.0,1.0672234001333396e+16,74108903470.02818,378409758986.91144,20860057050055.223,420870340822737.7
1.597393815314361,6021168559205662.0,2.2951794339762616e+16,5300515513519568.0,1.1124629818368484e+16,84554600857.5689,431747964662.41125,23805041830175.43,481159104273198.1
1.729341691620648,6259805127187188.0,2.390869321803641e+16,5510590487984195.0,1.1565531524245812e+16,95651229327.58519,488410024984.9308,26933737721415.91,545248279643502.1
1.863928525453061,6492930739319728.0,2.4849089269060284e+16,5715814094009646.0,1.1996251262086016e+16,107407945517.63379,548442695130.2981,30248721495759.062,613188601508495.5
2.001207095962122,6721141912598865.0,2.577526747409229e+16,5916711453523063.0,1.24178911487593e+16,119835134183.14099,611899001718.2874,33752917804469.94,685038307270689.5
2.1412312378813647,6944944999522825.0,2.668918366587961e+16,6113728315432310.0,1.2831386714400392e+16,132944276519.4366,678837570371.1487,37449561770769.47,760862292906423.5
2.284055862638992,7164773801446160.0,2.7592529511693452e+16,6307246560898253.0,1.323753944461126e+16,146747848532.19302,749322106724.156,41342170133442.51,840731464649078.2
2.4297369798917723,7381002993823098.0,2.8486782034973984e+16,6497596021757076.0,1.3637041584765008e+16,161259241783.42758,823420991703.5083,45434518754352.984,924722235640948.6
2.578331719489608,7593958517275407.0,2.937324194005207e+16,6685063627917058.0,1.4030495338406538e+16,176492701096.6807,901206963410.7659,49730624947184.14,1012916131841355.9
2.7298983538794,7803925730937965.0,3.0253063682361104e+16,6869900584858343.0,1.4418427931266264e+16,192463275319.7688,982756865688.9586,54234733516880.87,1105399481640652.8
2.884496320956988,8011155888953150.0,3.112727935555792e+16,7052328074977960.0,1.4801303577145614e+16,209186778283.6798,1068151448757.6177,58951305695801.13,1202263170558365.0
3.0421862473761276,8215871342260054.0,3.199681788029471e+16,7232541836794881.0,1.517953308867406e+16,226679757825.02045,1157475211026.0432,63885010370218.984,1303602447226657.2
3.2030299723236504,8418269758735042.0,3.2862520576280824e+16,7410715879996423.0,1.5553481674384862e+16,244959471259.39926,1250816273849.6243,69040717138874.6,1409516770280538.5
3.3670905717701234,8618527578406324.0,3.3725153917284036e+16,7587005527110039.0,1.5923475322523408e+16,264043866070.20523,1348266282919.6191,74423490852573.36,1520109688242694.8
3.5344323832055258,8816802866174235.0,3.458542006821696e+16,7761549924791387.0,1.628980607169558e+16,283951564854.7348,1449920331393.981,80038587362773.77,1635488746296723.2
3.7051210308696363,9013237685277952.0,3.5443965658753816e+16,7934474133218936.0,1.66527363960531e+16,304701853776.5961,1555876900933.727,85891450265955.48,1755765415183169.2
3.879223451487029,9207960086070606.0,3.6301389142065064e+16,8105890876839394.0,1.7012502879727868e+16,326314673929.6075,1666237817607.5142,91987708474983.98,1881055038460691.5
4.0568079205167695,9401085783414664.0,3.71582470088409e+16,8275902021001460.0,1.736931931596547e+16,348810615137.7404,1781108220236.4856,98333174482599.11,2011476795141288.5
4.237944078927105,9592719580081596.0,3.8015059068011656e+16,8444599824993610.0,1.77233793369793e+16,372210911807.74506,1900596539221.691,104933843208313.36,2147153675297786.8
4.422702960505647,9782956581472360.0,3.887231296106765e+16,8612068011378877.0,1.8074858658251852e+16,396537440522.8324,2024814484262.7434,111795891340379.6,2288212466699409.5
4.61115701971576,9971883237742080.0,3.973046804283288e+16,8778382683391283.0,1.8423917003950548e+16,421812719122.14795,2153877039664.2183,118925677100493.69,2434783750889682.0
4.803380160110075,1.0159578242282828e+16,4.058995873526606e+16,8943613115882109.0,1.877069976695221e+16,448059907055.47986,2287902466154.536,126329740371585.17,2587001907404167.0
4.9994477633122765,1.0346113309963696e+16,4.1451197440394e+16,9107822440415336.0,1.9115339446709336e+16,475302806838.3071,2427012308324.2236,134014803139174.3,2745005125051285.5
5.199436718578522,1.0531553854168476e+16,4.231457708241551e+16,9271068241272774.0,1.945795690013563e+16,503565866461.0043,2571331406937.142,141987770204916.16,2908935419360261.0
5.403425452950093,1.071595957822004e+16,4.318047333630952e+16,9433403076093048.0,1.979866243431383e+16,532874182629.2702,2720987915486.8486,150255730137558.94,3078938655446897.5
5.611493962009095,1.0899384994033134e+16,4.404924659015701e+16,9594874932448578.0,2.013755676475175e+16,563253504731.801,2876113320467.169,158825956431904.1,3255164575666438.5
5.823723841249277,1.1081879878632626e+16,4.492124368027203e+16,9755527629724624.0,2.047473185883915e+16,594730239446.7697,3036842464905.4023,167705908850781.94,3437766831520488.5
6.040198318074262,1.1263489677394736e+16,4.57967994316879e+16,9915401174098128.0,2.0810271680870784e+16,627331455911.4955,3203313574771.9736,176903234928673.4,3626903019364899.0
6.261002284435747,1.144425586142473e+16,4.667623803122959e+16,1.0074532073142026e+16,2.114425285233296e+16,661084891390.3326,3375668287934.8516,186425771618640.8,3822734719531933.0
6.486222330124463,1.1624216245305182e+16,4.755987425606353e+16,1.0232953615543124e+16,2.1476745238970496e+16,696018957384.6697,3554051685372.172,196281547066736.7,4025427538535253.5
6.715946776726952,1.1803405270480122e+16,4.8448014577056536e+16,1.0390696120569386e+16,2.180781247436389e+16,732162746136.3894,3738612324394.6514,206478782500165.7,4235151154072425.5
6.950265712261491,1.1981854258743102e+16,4.934095815333853e+16,1.054778716121844e+16,2.213751242827026e+16,769546037482.3866,3929502273661.321,217025894217261.25,4452079362578371.5
7.18927102650672,1.2159591639633662e+16,5.023899773203053e+16,1.0704251764398054e+16,2.2465897626757948e+16,808199306023.1031,4126877149799.379,227931495668829.25,4676390129116184.0
7.433056447036854,1.2336643154997052e+16,5.114242046507317e+16,1.0860112591002602e+16,2.2793015630148496e+16,848153728572.5022,4330896155461.8975,239204399621711.6,4908265639419295.0
7.681717575977592,1.2513032043499546e+16,5.2051508653398504e+16,1.1015390098344538e+16,2.3118909373924516e+16,889441191860.8623,4541722118677.1455,250853620396496.84,5147892353922890.0
7.935351927497144,1.2688779207505756e+16,5.2966540427263096e+16,1.1170102687058618e+16,2.344361747704995e+16,932094300465.0453,4759521533360.27,262888376172269.06,5395461063642726.0
8.194058966047088,1.2863903364397196e+16,5.38877903703661e+16,1.1324266834309698e+16,2.3767174521544396e+16,976146384943.8418,4984464600872.744,275318091352093.2,5651166947776920.0
8.45794014536803,1.3038421184135332e+16,5.48155300943571e+16,1.147789721489133e+16,2.408961130664251e+16,1021631510158.4874,5216725272528.267,288152398983649.56,5915209632921614.0
8.72709894827539,1.321234741463765e+16,5.575002876948196e+16,1.1631006811596024e+16,2.44109550804372e+16,1068584483760.689,5456481292954.564,301401143230054.8,6187793253804277.0
9.0016409272409,1.338569499633523e+16,5.669155361637768e+16,1.1783607016061858e+16,2.4731229751534932e+16,1117040864832.433,5703914244231.151,315074381886459.44,6469126515450138.0
9.281673745785717,1.3558475167109574e+16,5.76403703634032e+16,1.1935707721149574e+16,2.5050456082934884e+16,1167036972663.6274,5959209590731.516,329182388938492.94,6759422756707294.0
9.567307220701432,1.373069755865865e+16,5.859674367335238e+16,1.208731740577516e+16,2.536865187007452e+16,1218609895655.166,6222556724606.6455,343735657159084.1,7058900015064727.0
9.85865336511546,1.3902370285217334e+16,5.956093754293469e+16,1.2238443213011502e+16,2.5685832104747316e+16,1271797500336.435,6494149011853.577,358744900740557.06,7367781092705835.0
10.155826432417769,1.4073500025446922e+16,6.053321567801054e+16,1.2389091022176814e+16,2.600200912640135e+16,1326638440487.5896,6774183838919.765,374221057959286.1,7686293623746732.0
10.458942961066125,1.4244092098214752e+16,6.151384184721947e+16,1.2539265515544512e+16,2.6317192762148388e+16,1383172166358.1057,7062862659799.84,390175293870511.56,8014670142615121.0
10.768121820287448,1.4414150532902838e+16,6.250308021634526e+16,1.2688970240236794e+16,2.663139045666521e+16,1441438933974.2434,7360391043587.081,406619003031229.6,8353148153531579.0
11.083484256693197,1.4583678134812848e+16,6.350119566549578e+16,1.2838207665801622e+16,2.6944607393035004e+16,1501479814529.08,7666978722447.36,423563812249363.9,8701970201059925.0
11.405153941827061,1.4752676546172762e+16,6.450845409095288e+16,1.29869792379175e+16,2.7256846605462316e+16,1563336703849.7993,7982839639988.33,441021583357685.5,9061383941698760.0
11.733257020663602,1.4921146303195524e+16,6.5525122693346056e+16,1.3135285428623194e+16,2.7568109084693908e+16,1627052331937.836,8308192000001.376,459004416011232.06,9431642216490240.0
12.067922161076874,1.5089086889592734e+16,6.655147025363136e+16,1.3283125783426436e+16,2.787839387688979e+16,1692670272578.419,8643258315558.742,477524650507196.3,9813003124627090.0
12.409280604298411,1.5256496786903734e+16,6.758776739820367e+16,1.3430498965609254e+16,2.8187698176610628e+16,1760234953016.9575,8988265458452.682,496594870626532.9,1.0205730098042008e+16
12.75746621638438,1.5423373521963606e+16,6.863428685433515e+16,1.3577402798014718e+16,2.8496017414518824e+16,1829791663700.5251,9343444708967.875,516227906496737.9,1.0610091976968594e+16
13.112615540712067,1.558971371180055e+16,6.969130369701667e+16,1.372383430257085e+16,2.8803345340330504e+16,1901386568083.7126,9709031805983.115,536436837475523.8,1.102636308646522e+16
13.474867851526309,1.5755513106224448e+16,7.0759095588170776e+16,1.386978973778166e+16,2.9109674101501212e+16,1975066712498.7825,10085266997402.244,557234995055314.75,1.145482331389827e+16
13.844365208556836,1.592076662834168e+16,7.183794300911471e+16,1.4015264634393016e+16,2.941499431808072e+16,2050880036091.1165,10472395090919.13,578635965788745.9,1.1895758187383542e+16
14.221252512727972,1.60854684132091e+16,7.292812948706882e+16,1.4160253829420246e+16,2.9719295154129384e+16,2128875380821.688,10870665505125.467,600653594235568.6,1.2349458955188534e+16
14.605677562982532,1.6249611844818696e+16,7.402994181643176e+16,1.4304751498706258e+16,3.0022564386050732e+16,2209102501539.225,11280332320975.404,623301985931617.2,1.2816222666101926e+16
14.997791114242183,1.6413189591586822e+16,7.514367027547992e+16,1.4448751188163024e+16,3.0324788468160332e+16,2291612076125.5894,11701654333624.424,646595510380704.4,1.3296352250779312e+16
15.397746936527026,1.6576193640504302e+16,7.62696088390897e+16,1.4592245843834622e+16,3.0625952595781624e+16,2376455715718.843,12134895104665.664,670548804070587.1,1.3790156604078076e+16
15.805701875257567,1.6738615330089988e+16,7.740805538802818e+16,1.4735227840906454e+16,3.092604076612989e+16,2463685975019.2773,12580323014790.639,695176773514362.9,1.4297950668397764e+16
16.221815912762718,1.6900445382275606e+16,7.855931191531594e+16,1.487768901177403e+16,3.1225035837222476e+16,2553356362684.8237,13038211316906.588,720494598318937.4,1.4820055518045342e+16
16.64625223101797,1.7061673933338698e+16,7.972368473011445e+16,1.5019620673273634e+16,3.152291958502984e+16,2645521351822.912,13508838189747.229,746517734282410.1,1.5356798444648398e+16
17.079177275638333,1.7222290563988508e+16,8.0901484659566e+16,1.5161013653167306e+16,3.1819672759062092e+16,2740236390587.1387,13992486792019.0,773261916522554.2,1.5908513043642984e+16
17.5207608211511,1.7382284328700386e+16,8.209302724896778e+16,1.5301858315966356e+16,3.2115275136566376e+16,2837557912887.7754,14489445317129.342,800743162638771.0,1.6475539301865948e+16
17.97117603757412,1.7541643784384064e+16,8.329863296064026e+16,1.5442144588168298e+16,3.2409705575494084e+16,2937543349226.4683,15000007048549.127,828977775910200.8,1.7058223686285876e+16
18.430599558325603,1.770035701846398e+16,8.451862737181822e+16,1.5581861982976448e+16,3.2702942066381584e+16,3040251137666.1846,15524470415866.633,857982348532935.5,1.7656919233909704e+16
18.899211549492115,1.7858411676440816e+16,8.575334137186893e+16,1.5720999624562736e+16,3.2994961783272628e+16,3145740734948.7417,16063139051595.148,887773764899584.1,1.827198564290661e+16
19.37719578048196,1.8015794988997476e+16,8.700311135912029e+16,1.5859546271929322e+16,3.3285741133798644e+16,3254072627773.2197,16616321848802.615,918369204924682.1,1.8903789364993676e+16
19.864739696091597,1.81724937987052e+16,8.826827943756157e+16,1.5997490342418502e+16,3.35752558085207e+16,3365308344249.5938,17184333019636.04,949786147419769.1,1.9552703699133444e+16
20.36203449001343,1.832849458637988e+16,8.954919361365634e+16,1.6134819934914322e+16,3.3863480829624828e+16,3479510465543.09,17767492154820.297,982042373522238.6,2.0219108886594708e+16
20.869275179813698,1.8483783497132812e+16,9.08462079935015e+16,1.6271522852775654e+16,3.4150390599053148e+16,3596742637725.77,18366124284215.047,1015155970182348.9,2.0903392207435652e+16
21.38666068340997,1.8638346366155124e+16,9.21596829805366e+16,1.6407586626534316e+16,3.443595894614272e+16,3717069583853.0215,18980559938520.43,1049145333713099.5,2.160594807846893e+16
21.91439389707817,1.879216874426966e+16,9.348998547400501e+16,1.6542998536388948e+16,3.4720159174834564e+16,3840557116283.775,19611135212227.184,1084029173408001.0,2.2327178152775324e+16
22.452681775019734,1.89452359232798e+16,9.483748906835186e+16,1.6677745634519686e+16,3.5002964110507828e+16,3967272149264.2544,20258191827912.47,1119826515232002.9,2.306749142083547e+16
23.00173541052013,1.909753296114021e+16,9.62025742537311e+16,1.6811814767246564e+16,3.5284346146485036e+16,4097282711796.277,20922077201988.883,1156556705591240.0,2.3827304313354176e+16
23.561770118730532,1.9249044706970844e+16,9.75856286177836e+16,1.694519259704943e+16,3.5564277290247068e+16,4230657960812.322,21603144512019.457,1194239415187502.2,2.460704080585576e+16
24.133005521105144,1.939975582593048e+16,9.898704704884285e+16,1.7077865624464552e+16,3.5842729209389572e+16,4367468194680.412,22301752765717.09,1232894642963668.5,2.5407132525134092e+16
24.715665631527248,1.9549650823964024e+16,1.0040723194070963e+17,1.7209820209870088e+16,3.611967327734526e+16,4507784867063.362,23018266871752.586,1272542720146603.0,2.622801885764485e+16
25.309978944157795,1.9698714072432836e+16,1.0184659339913338e+17,1.734104259516826e+16,3.639508061889079e+16,4651680601157.562,23753057712501.242,1313204314394423.5,2.707014705993334e+16
25.91617852304095,1.984692983263516e+16,1.0330554945012792e+17,1.747151892537122e+16,3.66689221554499e+16,4799229204337.983,24506502218862.805,1354900434055199.2,2.793397237119334e+16
26.53450209350177,1.9994282280219476e+16,1.0478452625024741e+17,1.760123527009243e+16,3.694116865019963e+16,4950505683236.851,25278983447295.613,1397652432544538.8,2.8819958128060984e+16
27.165192135371807,2.014075552949213e+16,1.0628395829893374e+17,1.7730177644944838e+16,3.721179075298021e+16,5105586259284.4795,26070890659210.375,1441482012849806.2,2.9728575881748304e+16
27.808495978079243,2.0286333657616204e+16,1.078042886530494e+17,1.7858332032843486e+16,3.748075904500443e+16,5264548384741.884,26882619402874.457,1486411232168893.8,3.0660305517628776e+16
28.464665897640828,2.0431000728696284e+16,1.093459691437004e+17,1.7985684405207876e+16,3.774804408335683e+16,5427470759255.6455,27714571597982.37,1532462506691904.0,3.1615635377390296e+16
29.133959215593645,2.057474081774274e+16,1.1090946059544973e+17,1.811222074305768e+16,3.801361644526879e+16,5594433346966.356,28567155623052.375,1579658616534162.8,3.259506238387629e+16
29.816638399905518,2.0717538034503668e+16,1.1249523304801704e+17,1.823792705799272e+16,3.827744677215113e+16,5765517394202.958,29440786405814.348,1628022710829420.2,3.3599092168740076e+16
30.51297116790363,2.0859376547153824e+16,1.1410376598055933e+17,1.8362789413046396e+16,3.8539505813360376e+16,5940805447796.04,30335885516757.34,1677578312992197.5,3.462823920304195e+16
31.223230591261704,2.100024060582499e+16,1.1573554853861984e+17,1.8486793943399508e+16,3.879976446967334e+16,6120381374043.908,31252881266009.48,1728349326158534.0,3.5683026930923376e+16
31.947695203086937,2.1140114565960588e+16,1.1739107976383173e+17,1.860992687694042e+16,3.905819383643702e+16,6304330378365.805,32192208803726.418,1780360038814561.8,3.676398790649704e+16
32.686649107148675,2.1278982911477708e+16,1.1907086882646114e+17,1.8732174554654076e+16,3.9314765246362216e+16,6492739025677.773,33154310224168.168,1833635130622511.0,3.787166393409484e+16
33.44038208929165,2.1416830277714276e+16,1.207754352608681e+17,1.885352345082318e+16,3.956945031192001e+16,6685695261526.364,34139634673645.484,1888199678453992.5,3.900660621202137e+16
34.20918973107749,2.155364147414032e+16,1.2250530920396643e+17,1.8973960193021052e+16,3.982222096730324e+16,6883288434016.71,35148638462521.375,1944079162640434.2,4.0169375479964904e+16
34.993373525699035,2.1689401506809504e+16,1.2426103163675818e+17,1.9093471581875936e+16,4.0073049509906984e+16,7085609316571.429,36181785181454.07,2001299473450806.5,4.136054217021689e+16
35.793240996213015,2.182409560052537e+16,1.2604315462901776e+17,1.92120446105845e+16,4.0321908641283176e+16,7292750131557.104,37239545822069.234,2059886917806784.2,4.2580686562864184e+16
36.60910581613728,2.1957709220696452e+16,1.2785224158720038e+17,1.9329666484150948e+16,4.0568771507519224e+16,7504804574815.593,38322398902251.64,2119868226245593.8,4.383039894511108e+16
37.44128793246003,2.2090228094852324e+16,1.2968886750564813e+17,1.94463246383279e+16,4.081361173899108e+16,7721867841137.18,39430830596245.125,2181270560140936.5,4.511027977489851e+16
38.29011369110923,2.2221638233791996e+16,1.3155361922116366e+17,1.9562006758233764e+16,4.105640348943646e+16,7944036650713.019,40565334869752.11,2244121519192257.8,4.642093984898876e+16
