t(s),Total solute volume 1,Total retention volume 1,Total 1 volume 1,Total 2 volume 1,Total 3 volume 1,Total 4 volume 1,Total 5 volume 1,Total 6 volume 1
0.1,1277535415264620.8,2216485712870468.2,368078767489456.25,570871530116391.1,0.0,0.0,0.0,3.710125213445117e-74
0.202,1845078426670970.2,3430269570976993.0,531597168418657.06,824480368910628.9,63870386096.0638,205104525005.49493,6405889323960.518,222438742741676.75
0.30604000000000003,2228903423099234.8,4427963381498586.5,642183408375698.9,995994058614730.6,155855417878.38907,500496745082.3491,15636062060881.818,544590077185079.9
0.41216080000000005,2518480837765890.0,5331037080501569.0,725615383167297.2,1125392849753776.4,266802840169.15015,856785182773.9092,26770253065140.01,933654168726519.9
0.5204040160000001,2748979167102263.5,6184099361869897.0,792025710316506.9,1228391923508799.5,392198472606.6047,1259473601516.1228,39355208877027.586,1373695679991180.2
0.6308120963200001,2938536895883836.0,7008815863000620.0,846640383031734.0,1313096532109572.5,529338612874.83527,1699879802348.9536,53119512334616.78,1855193321225642.2
0.7434283382464002,3097961108629381.0,7817485361186897.0,892573098539211.9,1384335862920217.8,676443693946.7457,2172289258943.6787,67884523435831.55,2371882034709352.0
0.8582969050113283,3234289953469446.0,8617831395246935.0,931851662042677.2,1445254939492211.5,832276252247.6577,2672728296124.136,83526018815114.84,2919403816879108.0
0.9754628431115548,3352391886895980.0,9415066953714230.0,965878755215178.6,1498029250311482.0,995945097020.383,3198335221998.5557,99954532944844.42,3494618248027727.5
1.094972099973786,3455784526967809.0,1.021290991323199e+16,995667861157959.5,1544230656520494.0,1166793382125.4626,3747000896074.658,117104123285814.39,4095208951021703.5
1.2168715419732616,3547094811926118.0,1.1014131995830272e+16,1021975843598934.4,1585033015567935.8,1344329682053.209,4317147396153.8193,134925452348193.53,4719441395310881.0
1.3412089728127268,3628336129204507.5,1.1820877476953246e+16,1045382792277791.1,1621336017371502.5,1528183186324.8235,4907584136010.864,153381290598774.8,5366005480178339.0
1.4680331522689813,3701084382557118.0,1.2634858840885222e+16,1066342750755439.4,1653843860589405.5,1718073347948.6533,5517410398937.396,172443470093790.75,6033908893142572.0
1.597393815314361,3766594706940673.5,1.3457482420599816e+16,1085217343873871.5,1683117407112654.0,1913788645703.9285,6145947138208.849,192090752825439.4,6722402474063278.0
1.729341691620648,3825881558471775.5,1.4289932126073246e+16,1102298852978255.1,1709609970569240.8,2115171328569.2275,6792687987800.739,212307299465009.62,7430926585272607.0
1.863928525453061,3879775268870357.5,1.5133227008751786e+16,1117826510173842.1,1733692587893730.8,2322106216727.8496,7457263299847.251,233081545245823.66,8159071727051458.0
2.001207095962122,3928962955858347.5,1.598826190550684e+16,1131998285278626.5,1755672300295605.0,2534512328644.046,8139413257366.302,254405359490134.38,8906549078998124.0
2.1412312378813647,3974018733351665.5,1.6855836804717552e+16,1144979589872054.8,1775805652799249.0,2752336522305.7505,8838967455016.043,276273407296149.78,9673168117421106.0
2.284055862638992,4015426421420838.5,1.773667849686287e+16,1156909820404829.5,1794308842276881.2,2975548600270.6836,9555829180525.645,298682658149744.5,1.0458819376829784e+16
2.4297369798917723,4053596886247629.0,1.8631456825212216e+16,1167907354123042.2,1811365465874648.5,3204137496724.979,10289963170771.562,321632003143217.06,1.126346101515618e+16
2.578331719489608,4088881463214010.5,1.954079708070335e+16,1178073416478901.0,1827132519171414.2,3438108276348.8564,11041385974801.324,345121953682042.25,1.2087108233905838e+16
2.7298983538794,4121582475831275.0,2.0465289594134244e+16,1187495111805660.5,1841745096602608.0,3677479750374.6177,11810158298846.674,369154402146800.0,1.2929824869698698e+16
2.884496320956988,4151961569761637.5,2.1405497258511588e+16,1196247824485102.8,1855320115549782.8,3922282567475.688,12596378876168.31,393732430221615.7,1.37917166570498e+16
3.0421862473761276,4180246381447431.5,2.236196150078486e+16,1204397140288298.2,1867959296243194.2,4172557673898.6177,13400179522662.305,418860154291089.2,1.467292579131828e+16
3.2030299723236504,4206635922304355.0,2.333520707686629e+16,1212000397649451.2,1879751567709258.5,4428355063545.229,14221721123598.666,444542599946737.44,1.5573626513069362e+16
3.3670905717701234,4231304961662836.5,2.432574596317689e+16,1219107950462764.0,1890775026304782.5,4689732757784.944,15061190358111.018,470785599558235.5,1.6494021502072406e+16
3.5344323832055258,4254407621578101.5,2.533408054709358e+16,1225764203805801.2,1901098542071662.2,4956755968792.262,15918797013062.117,497595708271412.3,1.7434338918384724e+16
3.7051210308696363,4276080345715299.0,2.6360706268037532e+16,1232008469323708.0,1910783085394669.8,5229496410624.169,16794771771369.52,524980134840739.2,1.8394829964581116e+16
3.879223451487029,4296444367043608.5,2.740611382426924e+16,1237875676212105.8,1919882829700061.5,5508031730082.459,17689364385022.06,552946684490033.94,1.9375766870708344e+16
4.0568079205167695,4315607771169196.0,2.847079103355672e+16,1243396965696954.8,1928446073463889.8,5792445035348.763,18602842162100.773,581503711591596.2,2.0377441224437676e+16
4.237944078927105,4333667231135130.0,2.9555224415929284e+16,1248600190858695.0,1936516015414024.2,6082824504931.657,19535488711734.7,610660080410863.1,2.140016258489388e+16
4.422702960505647,4350709473551366.0,3.0659900551763908e+16,1253510339048189.0,1944131409676030.2,6379263062980.352,20487602902209.613,640425132516543.6,2.2444257331006576e+16
4.61115701971576,4366812523670916.5,3.178530725712035e+16,1258149890613481.5,1951327122140257.0,6681858109756.075,21459497996236.434,670808659730870.6,2.351006770485886e+16
4.803380160110075,4382046767552759.0,3.293193460957682e+16,1262539124926233.5,1958134605093429.0,6990711298197.596,22451500934275.043,701820881710024.8,2.459795101806191e+16
4.9994477633122765,4396475862062430.0,3.4100275851142404e+16,1266696382567742.8,1964582303855971.0,7305928349211.673,23463951742249.434,733472427414826.8,2.570827899514997e+16
5.199436718578522,4410157517656095.0,3.5290828189631376e+16,1270638290861795.8,1970696006572076.0,7627618899664.883,24497203044313.504,765774319866920.2,2.6841437232730544e+16
5.403425452950093,4423144174301012.0,3.650409351582154e+16,1274379958618368.8,1976499146247398.8,7955896378129.449,25551619664780.652,798737963693710.9,2.7997824756918132e+16
5.611493962009095,4435483587228467.0,3.77405790505119e+16,1277935144898602.5,1982013062495025.5,8290877904300.474,26627578306108.184,832375135052149.5,2.917785366462728e+16
5.823723841249277,4447219336285607.5,3.9000797933053976e+16,1281316405767370.2,1987257229141313.2,8632684208701.271,27725467292074.246,866697973591650.5,3.0381948836767308e+16
6.040198318074262,4458391270291761.5,4.028526976089438e+16,1284535222319583.8,1992249452788254.8,8981439569861.402,28845686367106.59,901718976173456.8,3.1610547713384404e+16
6.261002284435747,4469035895892409.5,4.15945210880357e+16,1287602112715358.0,1997006046574368.8,9337271766615.512,29988646544213.38,937450992110334.2,3.286410012243247e+16
6.486222330124463,4479186718846266.0,4.292908588900176e+16,1290526730510384.5,2001541982680174.2,9700312043551.348,31154769995185.785,973907219728643.6,3.41430681551975e+16
6.715946776726952,4488874544406558.5,4.428950599381836e+16,1293317951200677.8,2005871026554731.5,10070695087948.873,32344489977749.207,1011101204086273.8,3.54479260825044e+16
6.950265712261491,4498127742409367.5,4.567633149864979e+16,1295983948598857.0,2010005855371392.0,10448559016810.512,33558250795170.78,1049046835705982.5,3.677916030675228e+16
7.18927102650672,4506972481816795.0,4.709012115600626e+16,1298532262409838.8,2013958162834340.2,10834045372798.857,34796507784522.035,1087758350205219.1,3.8137269345582744e+16
7.433056447036854,4515432938744949.0,4.853144274784998e+16,1300969858167112.8,2017738752136700.2,11227299128076.51,36059727330371.805,1127250328721595.0,3.952276384362121e+16
7.681717575977592,4523531481409285.0,5.000087344443583e+16,1303303180518485.5,2021357618604085.5,11628468695193.168,37348386901166.055,1167537699048177.5,4.093616660925944e+16
7.935351927497144,4531288834920441.0,5.149900015131391e+16,1305538200706485.2,2024824023334272.5,12037705944291.094,38662975105956.0,1208635737405473.8,4.237801267389704e+16
8.194058966047088,4538724228444905.0,5.302641984658268e+16,1307680458967715.2,2028146558956504.0,12455166226006.428,40003991769477.06,1250560070787591.5,4.384884937143041e+16
8.45794014536803,4545855526892132.0,5.458373991019572e+16,1309735102474065.8,2031333208476384.8,12881008399532.543,41371948023868.7,1293326679829157.5,4.534923643610058e+16
8.72709894827539,4552699348991718.0,5.61715784468872e+16,1311706919352710.5,2034391398039183.2,13315394865389.508,42767366415571.45,1336951902147140.0,4.6879746117075496e+16
9.0016409272409,4559271173372547.0,5.779056460407673e+16,1313600369249173.8,2037328044331627.0,13758491602506.451,44190781026142.24,1381452436118232.2,4.844096330837641e+16
9.281673745785717,4565585434040213.0,5.944133888594601e+16,1315419610835996.0,2040149597246443.0,14210468209280.508,45642737605910.69,1426845345058081.0,5.003348569295006e+16
9.567307220701432,4571655606467361.0,6.112455346473595e+16,1317168526616719.0,2042862078352100.8,14671497948322.035,47123793719546.766,1473148061773325.5,5.1657923899858616e+16
9.85865336511546,4577494285354241.0,6.2840872490184e+16,1318850745330003.8,2045471115640483.2,15141757794637.543,48634518902743.48,1520378393461473.5,5.331490167370047e+16
10.155826432417769,4583113254983523.0,6.459097239792416e+16,1320469662219980.8,2047981974965156.5,15621428487035.188,50175494829329.875,1568554526937211.8,5.5005056055501896e+16
10.458942961066125,4588523552977727.0,6.6375542217575816e+16,1322028457405800.5,2050399588531649.8,16110694582569.447,51747315488224.49,1617695034166757.8,5.672903757442311e+16
10.768121820287448,4593735528168440.0,6.819528388117552e+16,1323530112554725.8,2052728580756553.5,16609744513866.373,53350587369726.26,1667818878094450.5,5.84875104497178e+16
11.083484256693197,4598758893201040.0,7.005091253253466e+16,1324977426038376.2,2054973291774121.5,17118770649193.871,54985929660710.78,1718945418748077.2,6.02811528024631e+16
11.405153941827061,4603602772423901.0,7.1943156838054216e+16,1326373026730422.0,2057137798835785.0,17637969355161.4,56653974448362.33,1771094419611422.8,6.211065687664916e+16
11.733257020663602,4608275745547052.0,7.387275929947499e+16,1327719386585326.5,2059225935819154.0,18167541061950.28,58355366932130.11,1824286054254246.8,6.397672926927509e+16
12.067922161076874,4612785887498829.0,7.58404765690009e+16,1329018832121720.0,2061241311038153.0,18707690330990.574,60090765643642.7,1878540913211389.8,6.588009116915631e+16
12.409280604298411,4617140804860459.0,7.784707976719664e+16,1330273554919789.0,2063187323523942.5,19258625925014.676,61860842674357.984,1933880011104043.8,6.7821478604189016e+16
12.75746621638438,4621347669215671.0,7.989335480402662e+16,1331485621229842.0,2065067177927324.2,19820560880427.87,63666283910764.36,1990324793997437.5,6.9801642696865144e+16
13.112615540712067,4625413247715038.0,8.198010270338048e+16,1332656980778397.5,2066883898176561.0,20393712581947.195,65507789276979.586,2047897146990120.2,7.182134992786147e+16
13.474867851526309,4629343931122219.0,8.410813993139952e+16,1333789474848751.8,2068640340009891.2,20978302839469.688,67386072984624.84,2106619402031031.2,7.38813824075635e+16
13.844365208556836,4633145759579955.0,8.627829872890109e+16,1334884843704614.2,2070339202489241.5,21574557967136.633,69301863789876.766,2166514345961298.8,7.598253815540885e+16
14.221252512727972,4636824446309052.0,8.849142744818394e+16,1335944733418138.2,2071983038590156.8,22182708864570.35,71255905257621.97,2227605228778437.2,7.8125631386966e+16
14.605677562982532,4640385399430478.0,9.074839089447306e+16,1336970702157232.5,2073574264953115.2,22802991100264.906,73248956032660.9,2289915772121294.0,8.031149280867794e+16
14.997791114242183,4643833742081489.0,9.305007067225677e+16,1337964225981357.2,2075115170872485.8,23435644997117.203,75281790117925.52,2353470177974585.0,8.254096992023178e+16
15.397746936527026,4647174330978957.0,9.539736553675517e+16,1338926704189910.8,2076607926591636.5,24080915720092.035,77355197159690.92,2418293137592471.0,8.481492732452251e+16
15.805701875257567,4650411773567660.0,9.779119175074618e+16,1339859464262920.8,2078054590965694.0,24739053366016.723,79469982739777.72,2484409840641073.0,8.713424704520317e+16
16.221815912762718,4653550443877470.0,1.0023248344697002e+17,1340763766429796.5,2079457118547432.8,25410313055507.55,81626968674753.39,2551845984560121.0,8.949982885182517e+16
16.64625223101797,4656594497201363.0,1.027221929963245e+17,1341640807898253.5,2080817366146148.0,26094955027031.406,83826993322154.7,2620627784144557.0,9.191259059258498e+16
17.079177275638333,4659547883694877.0,1.0526129138205552e+17,1342491726772572.8,2082137098904666.0,26793244733112.113,86070911893763.33,2690781981346981.5,9.437346853470934e+16
17.5207608211511,4662414360988351.0,1.0785076858014496e+17,1343317605687392.2,2083417995935165.8,27505452938691.273,88359596775977.2,2762335855302393.5,9.688341771251701e+16
17.97117603757412,4665197505894447.0,1.1049163394609096e+17,1344119475180817.0,2084661655550720.5,28231855821658.8,90693937857330.38,2835317232576821.5,9.944341228320915e+16
18.430599558325603,4667900725285525.0,1.1318491660826995e+17,1344898316828386.5,2085869600125908.5,28972735075569.07,93074842863220.08,2909754497641698.0,1.020544458904496e+17
18.899211549492115,4670527266208852.0,1.159316658680731e+17,1345655066157401.8,2087043280616801.2,29728378014561.2,95503237697912.44,2985676603576224.5,1.0471753203580152e+17
19.37719578048196,4673080225300865.0,1.187329516070014e+17,1346390615359377.8,2088184080767845.0,30499077680506.324,97980066793898.84,3063113083000091.5,1.074337044580989e+17
19.864739696091597,4675562557556964.0,1.2158986470090046e+17,1347105815816720.0,2089293321030578.0,31285132952402.64,100506293468689.4,3142094059239040.5,1.1020401752083603e+17
20.36203449001343,4677977084507271.0,1.2450351744152198e+17,1347801480458298.8,2090372262217048.0,32086848658045.375,103082900289129.48,3222650257726271.0,1.1302954660766587e+17
20.869275179813698,4680326501844856.0,1.2747504396558981e+17,1348478385957304.5,2091422108908545.0,32904535687997.598,105710889443337.28,3304813017642469.0,1.1591138852610528e+17
21.38666068340997,4682613386549106.0,1.3050560069155157e+17,1349137274783550.5,2092444012638648.0,33738511111890.375,108391283120360.14,3388614303797828.0,1.1885066191955014e+17
21.91439389707817,4684840203542309.0,1.3359636676419435e+17,1349778857121389.8,2093439074867784.0,34589098297082.48,111125123897658.47,3474086718759217.5,1.2184850768770891e+17
22.452681775019734,4687009311915260.0,1.3674854450730611e+17,1350403812663378.5,2094408349765149.2,35456627029711.61,113913475136528.05,3561263515226151.0,1.2490608941556995e+17
23.00173541052013,4689122970753845.0,1.3996335988456067e+17,1351012792289042.0,2095352846812352.2,36341433638169.31,116757421385575.22,3650178608659114.0,1.280245938110226e+17
23.561770118730532,4691183344596422.0,1.4324206296880611e+17,1351606419637213.5,2096273533242061.2,37243861119034.82,119658068792367.88,3740866590164086.5,1.3120523115125498e+17
24.133005521105144,4693192508548962.0,1.465859284199373e+17,1352185292579797.0,2097171336323723.8,38164259265501.945,122616545523387.64,3833362739637212.5,1.344492357380589e+17
24.715665631527248,4695152453082921.0,1.4999625597153437e+17,1352749984604103.8,2098047145507499.2,39102984798338.445,125634002192411.08,3927703039173679.5,1.3775786636217557e+17
25.309978944157795,4697065088538559.0,1.534743709264475e+17,1353301046110347.0,2098901814436625.0,40060401499412.35,128711612297456.28,4023924186745044.0,1.4113240677682005e+17
25.91617852304095,4698932249354858.0,1.57021624661512e+17,1353839005630349.8,2099736162837544.0,41036880347827.11,131850572666431.86,4122063610149324.5,1.4457416618052598e+17
26.53450209350177,4700755698045290.0,1.6063939514158e+17,1354364370973008.0,2100550978296484.8,42032799658705.07,135052103911629.77,4222159481238349.5,1.480844797094566e+17
27.165192135371807,4702537128937101.0,1.6432908744305123e+17,1354877630301658.0,2101347017930391.0,43048545224658.94,138317450893209.73,4324250730426921.5,1.5166470893933702e+17
27.808495978079243,4704278171690648.0,1.680921342870908e+17,1355379253148050.5,2102125009959560.5,44084510459996.27,141647883191823.44,4428377061488592.0,1.5531624239715213e+17
28.464665897640828,4705980394613876.0,1.7192999658272874e+17,1355869691367308.0,2102885655188701.5,45141096547697.85,145044695590531.88,4534578966642767.0,1.5904049608277782e+17
29.133959215593645,4707645307785736.0,1.758441639800205e+17,1356349380037822.8,2103629628402670.0,46218712589214.97,148509208566178.12,4642897741938143.0,1.628389140007008e+17
29.816638399905518,4709274366001605.0,1.7983615543347427e+17,1356818738309899.5,2104357579682648.5,47317775757131.36,152042768790365.28,4753375502937644.0,1.667129687019953e+17
30.51297116790363,4710868971552535.0,1.8390751977592986e+17,1357278170206473.2,2105070135648030.2,48438711450735.34,155646749640217.9,4866055200709799.0,1.706641618367224e+17
31.223230591261704,4712430476849275.0,1.8805983630309075e+17,1357728065379155.2,2105767900628999.0,49581953454548.82,159322551719084.9,4980980638132095.0,1.7469402471692765e+17
31.947695203086937,4713960186901361.0,1.922947153689049e+17,1358168799822498.0,2106451457774320.5,50747944099861.6,163071603387358.9,5098196486511514.0,1.7880411889040803e+17
32.686649107148675,4715459361660683.0,1.9661379899200035e+17,1358600736549215.2,2107121370098573.2,51937134429319.93,166895361303589.56,5217748302528000.0,1.829960367254311e+17
33.44038208929165,4716929218238307.0,2.0101876147337248e+17,1359024226228870.2,2107778181472750.5,53149984364618.336,170795310976064.1,5339682545506204.0,1.8727140200658566e+17
34.20918973107749,4718370933002650.0,2.055113100255316e+17,1359439607792399.8,2108422417561789.5,54386962877345.88,174772967325042.53,5464046595021436.0,1.916318705419507e+17
34.993373525699035,4719785643566444.0,2.1009318541332045e+17,1359847209004611.2,2109054586712541.2,55648548163036.99,178829875255831.56,5590888768845653.0,1.960791307817725e+17
35.793240996213015,4721174450669798.0,2.1476616260660934e+17,1360247347006690.5,2109675180795144.8,56935227818480.945,182967610242883.53,5720258341239340.0,2.006149044488369e+17
36.60910581613728,4722538419965515.0,2.195320514450807e+17,1360640328830615.0,2110284676000847.0,58247499022340.99,187187778925115.3,5852205561595481.0,2.052409471807405e+17
37.44128793246003,4723878583712980.0,2.243926973153217e+17,1361026451887159.0,2110883533598918.2,59585868719137.875,191492019712646.2,5986781673441691.0,2.099590491842491e+17
38.29011369110923,4725195942386138.0,2.2934998184044115e+17,1361406004429199.5,2111472200655163.8,60950853806652.83,195882003405146.56,6124038933806886.0,2.1477103590195178e+17
39.15591596493141,4726491466200873.0,2.3440582358242778e+17,1361779265991765.8,2112051110714444.5,62342981326803.8,200359433822007.25,6264030632958755.0,2.1967876869141328e+17
40.03903428423004,4727766096566567.0,2.395621787574814e+17,1362146507810271.5,2112620684449353.0,63762788660052.625,204926048444533.7,6406811114518721.0,2.246841455170321e+17
40.93981496991464,4729020747466676.0,2.4482104196453053e+17,1362507993218271.8,2113181330277064.2,65210823723398.56,209583619070372.38,6552435795960874.0,2.297891016548141e+17
41.85861126931294,4730256306772294.0,2.501844469271762e+17,1362863978025917.0,2113733444946342.5,66687645172018.03,214333952480387.16,6700961189501663.0,2.34995610410277e+17
