t(s),Total solute volume 1,Total retention volume 1,Total 1 volume 1,Total 2 volume 1,Total 3 volume 1,Total 4 volume 1,Total 5 volume 1,Total 6 volume 1
0.1,1144268928618327.0,1596229672649425.0,193012778181123.2,258947965849975.12,0.0,0.0,0.0,0.0
0.202,1722635022048762.5,2403401132931268.5,290570307086349.06,389832179131113.06,211692923.07826304,543912199.1633161,12193650712.923231,350675409206.0502
0.30604000000000003,2163317382988461.8,3018702347698493.5,364903643969264.06,489558566698108.2,537005526.9331506,1379754252.3355532,30933096984.36135,889904185896.9088
0.41216080000000005,2536023090336398.5,3539334856070704.5,427770827482221.1,573901841679566.6,953745421.7511004,2450505429.6349897,54939422350.75961,1580752899315.706
0.5204040160000001,2866943521511310.5,4001818067720808.5,483589761974896.5,648789111466029.6,1452047025.3037376,3730817496.207504,83644243443.51265,2406845660605.54
0.6308120963200001,3169137153962938.0,4424359149795484.0,534563122882452.2,717175508696484.1,2026610063.5012774,5207072161.802699,116742210575.31248,3359388360806.969
0.7434283382464002,3450195834343394.0,4817543333751233.0,581971486299419.5,780779067765030.4,2674396597.165698,6871463887.764506,154058310040.5225,4433341172858.713
0.8582969050113283,3714983604708247.0,5188152887736303.0,626635308203228.1,840700521055804.8,3393684503.212774,8719567937.105682,195493331657.90686,5625847184925.262
0.9754628431115548,3966833709786167.0,5540836112529306.0,669116833024984.9,897694181618570.0,4183601029.718986,10749141910.024752,240996996332.99176,6935458360310.985
1.094972099973786,4208146228319400.0,5878940579512219.0,709820900797712.1,952303187103572.2,5043864433.966039,12959461919.770605,290553071860.5319,8361706893320.708
1.2168715419732616,4440716228996740.0,6204970633807168.0,749050299781677.9,1004933761427694.2,5974628703.167564,15350923624.916191,344170427427.0395,9904847621312.852
1.3412089728127268,4665927342629241.0,6520857252719139.0,787038417795742.0,1055899020144804.4,6976384459.112823,17924787618.202816,401877324868.1162,11565693652407.977
1.4680331522689813,4884872527226721.0,6828126396503179.0,823969612606386.8,1105446299574311.4,8049892772.430815,20683009371.934494,463717605825.96875,13345506587785.697
1.597393815314361,5098432885294159.0,7128008877993956.0,859992506656894.8,1153774993149880.8,9196139373.719666,23628121590.180607,529748053946.1991,15245920578105.104
1.729341691620648,5307331048122184.0,7421514776515040.0,895228991812724.2,1201048632280641.5,10416302096.537321,26763150558.33525,600036519341.7341,17268888327493.172
1.863928525453061,5512168475289553.0,7709485429197483.0,929780520960010.9,1247403327225974.5,11711727234.564453,30091555396.351673,674660556586.0627,19416641882708.855
2.001207095962122,5713452213651908.0,7992630729178698.0,963732621653259.4,1292953822652778.0,13083912098.881094,33617183242.271233,753706419882.4387,21691663705530.785
2.1412312378813647,5911614536289533.0,8271556499125337.0,997158208770106.5,1337797941927945.0,14534492007.66996,37344235824.230644,837268313575.453,24096665096346.152
2.284055862638992,6107027644167974.0,8546784982931587.0,1030120064355268.2,1382019914103125.0,16065230521.654276,41277244371.9139,925447829641.7582,26634570000673.7
2.4297369798917723,6300014864840103.0,8818770455043723.0,1062672726593121.8,1425692908180193.5,17678012107.542007,45421050766.41592,1018353525052.3021,29308502842365.066
2.578331719489608,6490859315211325.0,9087911295393052.0,1094863951023972.8,1468880993494393.5,19374836653.045284,49780793447.46079,1116100605799.0623,32121779427458.76
2.7298983538794,6679810695275002.0,9354559459545052.0,1126735856496511.8,1511640677136196.0,21157815418.95691,54361897012.93388,1218810693706.8892,35077900231214.305
2.884496320956988,6867090682121187.0,9619027998210236.0,1158325835017386.8,1554022124615059.5,23029168124.9135,59170064731.25785,1326611658554.0193,38180545565199.38
3.0421862473761276,7052897260486983.0,9881597094815972.0,1189667282218993.2,1596070139862703.2,24991220943.330997,64211273387.189766,1439637502509.8562,41433572250429.46
3.2030299723236504,7237408234749332.0,1.0142518962477826e+16,1220790189754679.5,1637824959996771.2,27046405231.534584,69491770024.30438,1558028287098.1758,44841011514668.93
3.3670905717701234,7420784103367045.0,1.0402021852648472e+16,1251721630153417.2,1679322905806909.2,29197256872.37598,75018070250.90283,1681930095213.5483,48407067898788.69
3.5344323832055258,7603170431364598.0,1.066031336441999e+16,1282486157005130.2,1720596918647646.0,31446416123.26905,80796957852.22995,1811495022426.3743,52136119006229.11
3.7051210308696363,7784699823681811.0,1.0917583197782856e+16,1313106137820996.8,1761677007007289.5,33796627895.68411,86835485508.70027,1946881193085.447,56032715966284.45
3.879223451487029,7965493578249245.0,1.11740054607448e+16,1343602032870623.2,1802590620598766.0,36250742403.844315,93140976462.73679,2088252797689.237,60101584509625.4
4.0568079205167695,8145663079899142.0,1.1429740615472118e+16,1373992630303873.0,1843362965801596.8,38811716134.12824,99721027009.62541,2235780148732.2085,64347626575637.19
4.237944078927105,8325310982923854.0,1.1684937130083908e+16,1404295245622225.8,1884017273274711.8,41482613096.53704,106583509713.09949,2389639752800.2056,68775922387497.08
4.422702960505647,8504532220022519.0,1.1939732888693726e+16,1434525891865726.8,1924575026281102.5,44266606327.274414,113736577266.12473,2550014397131.6953,73391732943658.62
4.61115701971576,8683414867674863.0,1.2194256401559154e+16,1464699425582316.2,1965056156521781.5,47166979617.53267,121188666932.89746,2717093249210.3,78200502884447.39
4.803380160110075,8862040892034659.0,1.2448627848913266e+16,1494829672643521.0,2005479212931446.5,50187129448.38669,128948505520.4134,2891071968230.7144,83207863700435.78
4.9994477633122765,9040486794806090.0,1.2702959985600938e+16,1524929537189474.0,2045861507840251.2,53330567115.541664,137025114837.84389,3072152827501.608,88419637255646.69
5.199436718578522,9218824174932750.0,1.2957358928579558e+16,1555011096373363.0,2086219244083983.0,56600921030.785034,145427817609.93573,3260544847028.228,93841839603778.38
5.403425452950093,9397120219054604.0,1.3211924845338194e+16,1585085683090649.8,2126567625994435.8,60001939189.51311,154166243817.12494,3456463935662.0894,99480685079828.06
5.611493962009095,9575438131399786.0,1.3466752558100472e+16,1615163958492305.0,2166920956683911.5,63537491795.7705,163250337440.36435,3660133042324.843,105342590652915.72
5.823723841249277,9753837511943132.0,1.3721932076119744e+16,1645255975771710.2,2207292723622432.5,67211574037.940445,172690363593.03522,3871782315910.801,111434180528930.56
6.040198318074262,9932374690181294.0,1.3977549066310036e+16,1675371236465146.5,2247695674171051.5,71028309009.63826,182496916025.94662,4091649273554.453,117762290993968.5
6.261002284435747,1.0111103020673662e+16,1.4233685270783684e+16,1705518740302996.2,2288141882462746.5,74991950771.53885,192680924994.45416,4319978977016.991,124333975491477.72
6.486222330124463,1.0290073145516432e+16,1.4490418878497742e+16,1735707029483280.5,2328642808800270.5,79106887550.8599,203253665479.2756,4557024217003.025,131156509927688.39
6.715946776726952,1.0469333228112282e+16,1.4747824857091232e+16,1765944228103403.0,2369209352558198.5,83377645076.06235,214226765754.741,4803045705267.081,138237398201271.75
6.950265712261491,1.0648929161933762e+16,1.500597525006892e+16,1796238077373945.5,2409851899426087.5,87808890045.04639,225612216300.04153,5058312274410.519,145584377954379.3
7.18927102650672,1.0828904757429282e+16,1.5264939443721432e+16,1826595967145522.5,2450580363705324.5,92405433725.72215,237422379050.62503,5323101085304.701,153205426543213.34
7.433056447036854,1.1009301909761162e+16,1.5524784407533708e+16,1857024964202470.5,2491404226268129.0,97172235688.37677,249669996988.21677,5597697842106.708,161108767227155.03
7.681717575977592,1.1190160749682642e+16,1.578557491129907e+16,1887531837712481.5,2532332568701132.0,102114407669.70058,262368204069.1474,5882397014859.905,169302875576239.44
7.935351927497144,1.1371519779540014e+16,1.6047373721709872e+16,1918123082167111.5,2573374104082548.5,107237217568.74477,275530535491.6648,6177502069695.167,177796486097418.94
8.194058966047088,1.1553415996113748e+16,1.6310241780816462e+16,1948804938102364.5,2614537204781181.0,112546093575.42532,289170938303.8223,6483325706667.959,186598599080648.8
8.45794014536803,1.1735885001783388e+16,1.6574238368428526e+16,1979583410849767.5,2655829927613003.0,118046628432.50072,303303782354.3249,6800190105285.014,195718487666320.84
8.72709894827539,1.1918961105307398e+16,1.6839421250259966e+16,2010464287535659.0,2697260036647649.0,123744583832.22519,317943871589.4127,7128427177789.473,205165705136050.06
9.0016409272409,1.2102677413341484e+16,1.7105846813388886e+16,2041453152518310.5,2738835023918950.0,129645894949.12057,333106455699.5159,7468378830288.1455,214950092429202.53
9.281673745785717,1.2287065913677898e+16,1.7373570190405506e+16,2072555401428559.8,2780562128262062.0,135756675110.53424,348807242119.9241,7820397231816.536,225081785887942.44
9.567307220701432,1.2472157551067164e+16,1.7642645373452566e+16,2103776253959245.5,2822448352471827.0,142083220606.8515,365062408390.32104,8184845091449.484,235571225233880.28
9.85865336511546,1.2657982296377476e+16,1.791312531921583e+16,2135120765530872.5,2864500478953649.5,148632015643.40338,381888614878.3866,8562095943575.116,246429161779732.12
10.155826432417769,1.2844569209758148e+16,1.818506204579773e+16,2166593837945861.2,2906725084017252.0,155409737436.29276,399303017873.20514,8952534441459.916,257666666879654.22
10.458942961066125,1.3031946498394478e+16,1.84585067222977e+16,2198200229130556.5,2949128550946735.5,162423261454.4968,417323283054.5264,9356556659241.023,269295140622185.4
10.768121820287448,1.3220141569374022e+16,1.873350975182921e+16,2229944562052532.0,2991717081964089.0,169679666810.75595,435967599344.34326,9774570402490.457,281326320769954.88
11.083484256693197,1.3409181078124914e+16,1.901012084861985e+16,2261831332891121.0,3034496709190833.0,177186241803.89508,455254693147.56226,10206995527503.314,293772291950537.1
11.405153941827061,1.3599090972836022e+16,1.928838910977154e+16,2293864918530072.0,3077473304700332.5,184950489615.3279,475203842988.8706,10654264269469.068,306645495103039.9
11.733257020663602,1.3789896535223114e+16,1.9568363082193732e+16,2326049583433918.0,3120652589743113.0,192980134162.6352,495834894553.1794,11116821579691.703,319958737185192.9
12.067922161076874,1.3981622417966434e+16,1.985009082516846e+16,2358389485962841.0,3164040143218990.5,201283126113.19202,517168276137.3469,11595125472031.092,333725201145904.56
12.409280604298411,1.4174292679109822e+16,2.013361996895728e+16,2390888684175074.5,3207641409461662.0,209867649060.94104,539225014521.0911,12089647378743.29,347958456168396.8
12.75746621638438,1.4367930813681938e+16,2.041899776981935e+16,2423551141160680.0,3251461705394496.5,218742125869.49384,562026751265.2943,12600872515903.42,362672468189225.75
13.112615540712067,1.4562559782772576e+16,2.070627116177098e+16,2456380729946050.5,3295506227110529.5,227915225184.8397,585595759446.1245,13129300258600.184,377881610698605.2
13.474867851526309,1.4758202040273278e+16,2.0995486805384404e+16,2489381238004534.0,3339780055923894.5,237395868121.03735,609954960833.6357,13675444526096.053,393600675827644.5
13.844365208556836,1.4954879557471616e+16,2.128669113389596e+16,2522556371404861.0,3384288163935470.0,247193235122.32596,635127943523.704,14239834177152.07,409844885728219.75
14.221252512727972,1.5152613845667828e+16,2.157993039686518e+16,2555909758626117.5,3429035419151055.5,257316773005.2076,661138980032.3832,14823013415720.65,426629904251332.56
14.605677562982532,1.5351425976968408e+16,2.1875250701605756e+16,2589444954065170.5,3474026590186922.0,267776202184.0965,688013045861.977,15425542207214.947,443971848929968.0
14.997791114242183,1.555133660339402e+16,2.2172698052588396e+16,2623165441259688.5,3519266350593948.0,278581524084.22906,715775838548.2704,16047996705566.404,461887303272548.3
15.397746936527026,1.5752365974428178e+16,2.2472318388995812e+16,2657074635848273.5,3564759282828890.5,289743028745.5923,744453797198.605,16690969691287.793,480393329373232.3
15.805701875257567,1.5954533953119402e+16,2.2774157620595572e+16,2691175888286528.0,3610509881898322.0,301271302621.68713,774074122530.6036,17355071020761.645,499507480845400.6
16.221815912762718,1.6157860030841064e+16,2.3078261662082252e+16,2725472486336686.5,3656522558698720.5,313177236577.0293,804664797421.5579,18040928086978.363,519247816084784.75
16.64625223101797,1.636236334080161e+16,2.3384676466024884e+16,2759967657346540.0,3702801643073908.5,325472034087.33905,836254607978.6447,18749186291952.242,539632911868814.8
17.079177275638333,1.656806267039148e+16,2.3693448054547244e+16,2794664570332005.5,3749351386609078.0,338167219646.42615,868873165140.2882,19480509531046.53,560681877298827.25
17.5207608211511,1.6774976472443414e+16,2.4004622549854612e+16,2829566337876586.5,3796175965179087.5,351274647383.86646,902550926819.1313,20235580689442.234,582414368091927.8
17.97117603757412,1.6983122875478006e+16,2.4318246203715244e+16,2864676017859490.5,3843279481266948.5,364806509897.5645,937319220597.2415,21015102150988.836,604850601229323.6
18.430599558325603,1.7192519692998594e+16,2.4634365425991524e+16,2899996615023517.0,3890665966067295.5,378775347305.4241,973210266984.2805,21819796319677.63,628011369968104.0
18.899211549492115,1.7403184431894738e+16,2.4953026812312652e+16,2935531082392532.0,3938339381388132.5,393194056520.3211,1010257203249.5181,22650406153981.965,651918059223451.0
19.37719578048196,1.7615134300008846e+16,2.5274277170971036e+16,2971282322547774.0,3986303621363072.0,408075900752.6853,1048494107838.7081,23507695714310.22,676592661328431.5
19.864739696091597,1.782838621291523e+16,2.559816354911896e+16,3007253188771329.0,4034562513985476.5,423434519244.9952,1087956025386.8923,24392450723821.504,702057792178499.2
20.36203449001343,1.8042956799956916e+16,2.5924733258336416e+16,3043446486064438.0,4083119822474638.5,439283937242.5638,1128678992338.4062,25305479142854.945,728336707767979.2
20.869275179813698,1.8258862409583024e+16,2.6254033899636716e+16,3079864972047751.5,4131979246483525.0,455638576205.0095,1170700063185.3364,26247611757227.082,755453321125847.5
21.38666068340997,1.8476119114023544e+16,2.658611338797063e+16,3116511357749909.5,4181144423156812.0,472513264262.85315,1214057337335.9175,27219702780651.29,783432219658153.8
21.91439389707817,1.8694742713338956e+16,2.692101997628627e+16,3153388308290576.5,4230618928047176.5,489923246923.71484,1258789986624.271,28222630471540.418,812298682904507.9
22.452681775019734,1.8914748738875536e+16,2.7258802279198172e+16,3190498443463286.0,4280406275897295.0,507884198032.5983,1304938283473.0996,29257297764447.426,842078700716135.1
23.00173541052013,1.9136152456157224e+16,2.759950929631493e+16,3227844338223257.5,4330509921294327.0,526412230990.79803,1352543629720.971,30324632916408.047,872798991862957.8
23.561770118730532,1.9358968867242388e+16,2.7943190435272492e+16,3265428523084901.5,4380933259203121.5,545523910237.96765,1401648586125.8286,31425590168446.598,904487023077287.6
24.133005521105144,1.9583212712570044e+16,2.8289895534517276e+16,3303253484433262.5,4431679625384162.0,565236263001.9154,1452296902556.4907,32561150422506.758,937171028541687.0
24.715665631527248,1.980889847232085e+16,2.8639674885878676e+16,3341321664753552.0,4482752296701422.0,585566791320.6876,1504533548883.8875,33732321934072.336,970880029828594.8
25.309978944157795,2.0036040367313336e+16,2.899257925697204e+16,3379635462782394.0,4534154491325326.0,606533484341.5548,1558404746583.8054,34940141020741.93,1005643856299335.0
25.91617852304095,2.026465235945814e+16,2.9348659913467004e+16,3418197233584346.5,4585889368835391.0,628154830901.45,1613958001062.962,36185672787021.07,1041493165970143.6
26.53450209350177,2.0494748151787004e+16,2.9707968641256236e+16,3457009288556871.0,4637960030226896.0,650449832393.4773,1671242134720.179,37470011865598.266,1078459466852775.2
27.165192135371807,2.0726341188076468e+16,3.0070557768558348e+16,3496073895366799.5,4690369517825706.0,673438015924.0723,1730307320754.4697,38794283175366.875,1116575138777387.9
27.808495978079243,2.09594446520817e+16,3.0436480187984916e+16,3535393277821177.5,4743120815114846.0,697139447765.3628,1791205117731.7402,40159642696457.71,1155873455705239.0
28.464665897640828,2.119407146639698e+16,3.0805789378601948e+16,3574969615674940.0,4796216846476655.0,721574747107.332,1853988504921.897,41567278262547.03,1196388608538777.0
29.133959215593645,2.143023429095663e+16,3.1178539428014216e+16,3614805044378171.5,4849660476853565.0,746765100114.2866,1918711918418.0151,43018410370696.58,1238155728436698.5
29.816638399905518,2.166794552119127e+16,3.1554785054499824e+16,3654901654765027.5,4903454511330831.0,772732274290.146,1985431288049.078,44514293008991.66,1281210910641406.0
30.51297116790363,2.1907217285851828e+16,3.1934581629219536e+16,3695261492686728.5,4957601694644141.0,799498633157.0684,2054204075097.9856,46056214502231.66,1325591238826381.5
31.223230591261704,2.2148061444513636e+16,3.2317985198527676e+16,3735886558590527.0,5012104710614733.0,827087151251.8188,2125089310836.0486,47645498375930.484,1371334809970783.2
31.947695203086937,2.2390489584772764e+16,3.2705052506407336e+16,3776778807046825.0,5066966181514994.0,855521429444.287,2198147635885.4783,49283504238881.09,1418480759768622.2
32.686649107148675,2.26345130191454e+16,3.309584101705351e+16,3817940146226125.5,5122188667366722.0,884825710582.521,2273441340420.896,50971628684533.664,1467069288579708.0
33.44038208929165,2.288014278168097e+16,3.34904089376251e+16,3859372437327810.5,5177774665174749.0,915024895468.5596,2351034405220.979,52711306211435.695,1517141687929496.2
34.20918973107749,2.312738962429965e+16,3.388881524119061e+16,3901077493962302.5,5233726608098074.0,946144559169.2649,2430992543581.106,54504010162977.71,1568740367564849.0
34.993373525699035,2.3376264012863724e+16,3.4291119689883996e+16,3943057081488386.5,5290046864560806.0,978210967666.3687,2513383244097.6895,56351253686683.79,1621908883072566.8
35.793240996213015,2.3626776122992344e+16,3.4697382858294724e+16,3985312916307272.5,5346737737305064.0,1011251094849.7422,2598275814334.6006,58254590713282.11,1676691964067554.8
36.60910581613728,2.3878935835628824e+16,3.510766615710973e+16,4027846665114930.5,5403801462387886.0,1045292639857.9413,2685741425382.115,60215616955785.61,1733135542957036.5
37.44128793246003,2.4132752732370244e+16,3.552203185702711e+16,4070659944114231.5,5461240208124207.0,1080364044769.8698,2775853157318.214,62235970928808.19,1791286784287488.8
38.29011369110923,2.438823609056704e+16,3.594054311296041e+16,4113754318188387.0,5519056073978043.0,1116494512651.4082,2868686045582.193,64317334988333.336,1851194114680359.8
39.15591596493141,2.4645394878201836e+16,3.636326398855164e+16,4157131300037147.0,5577251089403485.0,1153714025960.6428,2964317128269.8335,66461436392149.75,1912907253362797.8
40.03903428423004,2.49042377485562e+16,3.679025948101116e+16,4200792349277166.5,5635827212637777.0,1192053365315.3022,3062825494359.5327,68670048381158.28,1976477243299165.2
40.93981496991464,2.5164773034673504e+16,3.722159554630211e+16,4244738871508014.5,5694786329448313.0,1231544128625.8064,3164292332878.1006,70944991281747.61,2041956482929011.0
41.85861126931294,2.542700874362586e+16,3.765733912468619e+16,4288972217345155.5,5754130251835215.0,1272218750597.2666,3268800983014.7334,73288133629430.81,2109398758516906.5
42.7957834946992,2.56909525505948e+16,3.809755816664904e+16,4333493681421454.0,5813860716691781.0,1314110522603.5457,3376436985191.366,75701393313923.7,2178859277119296.8
43.751699164593184,2.5956611792772296e+16,3.8542321659220136e+16,4378304501358458.0,5873979384424288.0,1357253612936.426,3487288133097.032,78186738745836.98,2250394700173190.0
