t(s),Total solute volume 1,Total retention volume 1,Total 1 volume 1,Total 2 volume 1,Total 3 volume 1,Total 4 volume 1,Total 5 volume 1,Total 6 volume 1
0.1,1323473711248431.8,2617890617675497.5,487117646595586.6,807299259831480.0,0.0,0.0,0.0,-8.892789209081686e-83
0.202,1886157935220275.5,4079670574841873.0,694219191666097.6,1150528498601180.5,72577452228.68164,258079929206.13327,9348874576836.824,339085417396048.3
0.30604000000000003,2252634884073822.0,5303937443354281.0,829104683663873.9,1374074074536647.0,175090073815.72397,622616221785.657,22569261511282.082,824756833273055.5
0.41216080000000005,2520096411800969.0,6427661696269710.0,927546563353361.6,1537221691317352.0,296763194037.8344,1055290905552.279,38264862499585.41,1403180113198845.8
0.5204040160000001,2726823252783792.0,7500913930302049.0,1003634436857213.6,1663322040903144.0,432447625054.1523,1537793132804.797,55770496031009.73,2049393462969028.0
0.6308120963200001,2892432219144403.5,8547784810470599.0,1064588467249132.8,1764341091111995.2,579173512055.6809,2059562037187.6309,74702650240367.89,2749081647175460.5
0.7434283382464002,3028477491127409.5,9581823106231694.0,1114661285583701.8,1847326721999644.2,735062251221.2054,2613917313999.988,94818728851166.19,3493189899104546.5
0.8582969050113283,3142373891740731.5,1.0611469430011794e+16,1156581991267372.8,1916801866464645.8,898858865231.3555,3196396308587.2617,115956648323038.66,4275659777042188.5
0.9754628431115548,3239166335487659.5,1.1642385562517432e+16,1192207415293089.5,1975843848089678.2,1069695079227.7878,3803911503143.896,138004249350232.77,5092290107714397.0
1.094972099973786,3322436978240796.5,1.2678593140567482e+16,1222856005783211.2,2026637729240496.0,1246956302870.64,4434277500461.299,160882126323643.66,5940099067175999.0
1.2168715419732616,3394814008745097.5,1.372308527624711e+16,1249495093766063.5,2070786666393622.2,1430201492345.5208,5085926050954.649,184533283149351.03,6816940096649661.0
1.3412089728127268,3458276639027723.5,1.477817928192266e+16,1272853147931185.2,2109497949791800.0,1619112306038.0186,5757725248839.491,208916570062431.53,7721258137554645.0
1.4680331522689813,3514347544073312.5,1.5845731751393988e+16,1293490603966555.0,2143700388808313.8,1813459533795.999,6448860153623.92,234002349866687.34,8651928544991698.0
1.597393815314361,3564219338210091.0,1.6927275746568872e+16,1311846415450873.5,2174121460677206.5,2013080213798.4463,7158751417001.785,259769543588689.03,9608147157011194.0
1.729341691620648,3608840510056431.0,1.8024111614799344e+16,1328269683065652.8,2201339729543271.0,2217861620688.8623,7886998344159.187,286203563023900.94,1.0589353269145268e+16
1.863928525453061,3648975451997266.0,1.9137369022315812e+16,1343041749041293.8,2225821463557515.2,2427729812540.215,8633338166440.054,313294831744124.94,1.1595174457996622e+16
2.001207095962122,3685247390252451.0,2.0268050478029548e+16,1356391997995920.0,2247946821586029.5,2642641283303.8604,9397616357239.621,341037707000182.7,1.2625386303554428e+16
2.1412312378813647,3718169713116509.0,2.1417062590053856e+16,1368509387605751.5,2268028962974579.5,2862576778958.6753,10179764642122.305,369429680969399.7,1.3679882503966558e+16
2.284055862638992,3748169238852945.5,2.258523897707446e+16,1379551012585161.8,2286328240621446.0,3087536650973.1826,10979784475715.877,398470780498684.8,1.4758652383389548e+16
2.4297369798917723,3775603767091141.0,2.377335737171096e+16,1389648564653004.0,2303062907071119.0,3317537320980.8115,11797734470157.887,428163110341426.6,1.586176375076314e+16
2.578331719489608,3800775501866400.0,2.498215259952577e+16,1398913273016067.8,2318417302371208.5,3552608561044.076,12633720723845.295,458510501725273.6,1.698934969126191e+16
2.7298983538794,3823941444886187.5,2.6212326576467772e+16,1407439729714201.8,2332548193812005.0,3792791380797.4165,13487889308304.797,489518239305459.44,1.8141598288060796e+16
2.884496320956988,3845321533035186.0,2.746455611618169e+16,1415308884710049.8,2345589739684926.5,4038136371805.545,14360420380975.959,521192847179725.8,1.9318744554819024e+16
3.0421862473761276,3865105074477502.5,2.873949910526355e+16,1422590414760539.0,2357657415210314.5,4288702400300.0063,15251523536875.977,553541919910868.5,2.0521064054967144e+16
3.2030299723236504,3883455886305110.0,3.003779944646031e+16,1429344614379549.2,2368851146427539.5,4544555568132.904,16161434114089.395,586573988204810.8,2.1748867821461076e+16
3.3670905717701234,3900516430572589.0,3.136009106077569e+16,1435623918146684.0,2379257833115496.0,4805768382218.698,17090410240682.963,620298411529991.5,2.300249828878799e+16
3.5344323832055258,3916411170073730.0,3.2707001163006764e+16,1441474135834261.2,2388953395767089.0,5072419087483.718,18038730463092.625,654725291868094.6,2.4282326019912984e+16
3.7051210308696363,3931249310778554.5,3.4079152970844788e+16,1446935461788583.5,2398004448435640.0,5344591129116.3545,19006691834341.094,689865404177332.0,2.5588747062701228e+16
3.879223451487029,3945127058098536.5,3.5477167968440732e+16,1452043305370807.2,2406469675023549.5,5622372717868.093,19994608368739.258,725730140176974.8,2.6922180808684228e+16
4.0568079205167695,3958129484785541.5,3.690166781667977e+16,1456828978455776.0,2414400968673383.5,5905856478091.135,21002809790833.54,762331462828499.2,2.82830682556677e+16
4.237944078927105,3970332086350910.0,3.83532759812343e+16,1461320267919481.5,2421844380550631.0,6195139162669.371,22031640522260.355,799681869466121.8,2.967187059726223e+16
4.422702960505647,3981802083366743.5,3.98326191336482e+16,1465541914964051.8,2428840914228539.5,6490321422395.659,23081458862244.1,837794361968221.8,3.108906807883604e+16
4.61115701971576,3992599517440377.0,4.134032836877726e+16,1469516018502058.0,2435427194216435.0,6791507619949.776,24152636326729.555,876682422697219.4,3.2535159071974444e+16
4.803380160110075,4002778178007456.0,4.2877040272822936e+16,1473262376271953.8,2441636031290001.0,7098805680639.617,25245557118277.047,916359995194896.4,3.4010659329259748e+16
4.9994477633122765,4012386389629627.0,4.444339786922486e+16,1476798774610822.0,2447496902731326.5,7412326973628.924,26360617704401.938,956841468821846.4,3.5516101388753228e+16
5.199436718578522,4021467683670427.5,4.604005146426953e+16,1480141235671393.0,2453036362041437.5,7732186218597.085,27498226486384.79,998141666687631.6,3.705203410349369e+16
5.403425452950093,4030061373662870.5,4.766765941006416e+16,1483304229191806.0,2458278389906059.5,8058501413738.617,28658803544000.176,1040275836342591.0,3.861902227600316e+16
5.611493962009095,4038203050080025.5,4.932688879920881e+16,1486300854600863.8,2463244695998515.0,8391393781773.062,29842780444325.96,1083259642800849.2,4.021764638150246e+16
5.823723841249277,4045925007357745.0,5.101841610288132e+16,1489142998187990.8,2467954979457313.0,8730987731243.587,31050600104956.473,1127109163542637.2,4.1848502366499496e+16
6.040198318074262,4053256613730051.0,5.274292776196482e+16,1491841469224852.0,2472427154480366.0,9077410830870.547,32282716703675.83,1171840885207036.0,4.351220151178796e+16
6.261002284435747,4060224632598514.0,5.4501120739173976e+16,1494406118248540.0,2476677546355620.0,9430793795117.855,33539595628043.008,1217471701736995.5,4.520937035081122e+16
6.486222330124463,4066853502670093.5,5.629370303879523e+16,1496845940169103.2,2480721062341055.0,9791270479448.572,34821713459471.68,1264018913779556.8,4.694065063589648e+16
6.715946776726952,4073165582890736.5,5.812139419956151e+16,1499169164419808.8,2484571341070612.0,10158977884004.213,36129557987305.75,1311500229177651.8,4.870669934613139e+16
6.950265712261491,4079181367216766.0,5.998492576529924e+16,1501383334005877.5,2488240883561609.5,10534056164653.307,37463628249142.82,1359933764417113.2,5.050818873168403e+16
7.18927102650672,4084919673458136.0,6.18850417372572e+16,1503495375010147.5,2491741168406400.5,10916648650528.865,38824434594275.46,1409338046915016.5,5.234580639022274e+16
7.433056447036854,4090397809762893.0,6.3822499011432664e+16,1505511657869317.5,2495082753325451.0,11306901867315.766,40212498767625.68,1459732018053862.5,5.422025537178624e+16
7.681717575977592,4095631721762128.5,6.579806780371764e+16,1507438051532133.5,2498275364923631.0,11704965565668.908,41628354011971.43,1511135036881479.2,5.6132254309040584e+16
7.935351927497144,4100636122938305.5,6.781253206528088e+16,1509279971442738.2,2501327978212979.5,12110992754239.834,43072545186609.21,1563566884409150.8,5.808253757033681e+16
8.194058966047088,4105424610399734.5,6.9866689890262296e+16,1511042422152628.5,2504248887233492.5,12525139736871.764,44545628900891.61,1617047768451057.8,6.007185543338766e+16
8.45794014536803,4110009767925787.5,7.1961353917573864e+16,1512730035247464.5,2507045767909166.0,12947566153591.836,46048173661318.9,1671598328957081.5,6.210097427771945e+16
8.72709894827539,4114403257880647.5,7.409735172836362e+16,1514347103176872.0,2509725734114080.5,13378435025085.758,47580760031070.73,1727239643798284.2,6.417067679433759e+16
9.0016409272409,4118615903368831.5,7.627552624050093e+16,1515897609492556.5,2512295387786042.0,13817912800389.873,49143980801034.46,1783993234970815.2,6.6281762211281336e+16
9.281673745785717,4122657761815579.5,7.84967361012714e+16,1517385255930332.8,2514760863809591.5,14266169407575.084,50738441171532.27,1841881075189175.8,6.843504653394765e+16
9.567307220701432,4126538190994812.5,8.076185607933123e+16,1518813486712362.0,2517127870292060.0,14723378307233.229,52364758944075.234,1900925594844311.2,7.063136279923635e+16
9.85865336511546,4130265908390373.0,8.307177745684565e+16,1520185510395657.2,2519401724773110.5,15189716548604.5,54023564722573.055,1961149689305823.8,7.287156134270955e+16
10.155826432417769,4133849044659921.5,8.542740842264027e+16,1521504319549984.5,2521587386836889.5,15665364828211.271,55715502123522.23,2022576726550873.0,7.51565100780909e+16
10.458942961066125,4137295191871192.5,8.782967446709742e+16,1522772708511722.5,2523689487535481.5,16150507550883.924,57441227994770.58,2085230555105072.5,7.748709478852826e+16
10.768121820287448,4140611447095216.0,9.027951877946734e+16,1523993289428758.5,2525712355980129.5,16645332893083.61,59201412642519.78,2149135512283180.0,7.986421942914443e+16
11.083484256693197,4143804451867473.5,9.277790264818818e+16,1525168506784588.8,2527660043411972.0,17150032868442.4,60996740066288.82,2214316432719355.0,8.228880644046994e+16
11.405153941827061,4146880427965212.0,9.532580586476411e+16,1526300650566483.5,2529536345025671.0,17664803395455.375,62827908201607.22,2280798657178623.0,8.476179707243106e+16
11.733257020663602,4149845209894218.5,9.792422713169714e+16,1527391868222596.2,2531344819785894.5,18189844367271.04,64695629170249.516,2348608041642691.5,8.728415171861408e+16
12.067922161076874,4152704274431590.0,1.0057418447493142e+17,1528444175535464.5,2533088808447979.0,18725359723536.453,66600629537862.18,2417770966664621.0,8.985685026059051e+16
12.409280604298411,4155462767529778.5,1.032767156612354e+17,1529459466524298.5,2534771449968980.5,19271557524263.547,68543650578862.98,2488314346988081.5,9.248089242212122e+16
12.75746621638438,4158125528851799.5,1.0603287862091144e+17,1530439522475439.2,2536395696473819.0,19828650025689.72,70525448548524.42,2560265641427813.5,9.515729813310843e+16
13.112615540712067,4160697114176506.5,1.0884375187620578e+17,1531386020188818.8,2537964326922184.0,20396853758113.785,72546794962175.17,2633652863009093.0,9.788710790318882e+16
13.474867851526309,4163181815885694.5,1.1171043497576045e+17,1532300539518449.0,2539479959605328.0,20976389605694.074,74608476881477.8,2708504589364425.0,1.0067138320489944e+17
13.844365208556836,4165583681721210.0,1.1463404893543942e+17,1533184570276170.8,2540945063587693.0,21567482888201.16,76711297207758.03,2784849973386786.0,1.0351120686637171e+17
14.221252512727972,4167906531979538.0,1.1761573668583395e+17,1534039518560282.0,2542361969195295.5,22170363444721.918,78856074982379.97,2862718754139077.5,1.0640768347353267e+17
14.605677562982532,4170153975293006.0,1.2065666352674813e+17,1534866712563981.5,2543732877642081.0,22785265719316.48,81043645694177.4,2942141268020133.0,1.0936193978181534e+17
14.997791114242183,4172329423130926.5,1.2375801758894898e+17,1535667407912638.0,2545059869875387.5,23412428848633.977,83274861593962.3,3023148460188187.5,1.1237512513739922e+17
15.397746936527026,4174436103139669.0,1.269210103034553e+17,1536442792573767.2,2546344914713219.0,24052096751494.535,85550592016148.78,3105771896243015.0,1.154484119080179e+17
15.805701875257567,4176477071428463.0,1.3014687687863014e+17,1537193991378913.2,2547589876338360.0,24704518220450.47,87871723707536.61,3190043774168450.5,1.1858299592338798e+17
16.221815912762718,4178455223896397.5,1.3343687678533928e+17,1537922070192681.5,2548796521207752.5,25369947015340.75,90239161163312.75,3275996936537420.0,1.2178009692532645e+17
16.64625223101797,4180373306686706.5,1.367922942504242e+17,1538628039760541.5,2549966524429393.5,26048641958856.05,92653826970337.88,3363664882981825.0,1.2504095902763664e+17
17.079177275638333,4182233925845404.5,1.4021443875874136e+17,1539312859263771.8,2551101475654003.0,26740867034133.887,95116662157790.98,3453081782930047.5,1.2836685118585634e+17
17.5207608211511,4184039556253973.5,1.4370464556400782e+17,1539977439607252.0,2552202884523815.5,27446891484405.613,97628626555255.72,3544282488615061.0,1.3175906767696806e+17
17.97117603757412,4185792549898735.5,1.472642762086958e+17,1540622646463053.2,2553272185716795.5,28166989914719.03,100190699158339.39,3637302548356450.0,1.3521892858918782e+17
18.430599558325603,4187495143533609.5,1.5089471905321373e+17,1541249303090816.8,2554310743620778.5,28901442395761.39,102803878501919.28,3732178220119769.5,1.387477803219511e+17
18.899211549492115,4189149465787372.5,1.545973898146073e+17,1541858192953646.0,2555319856668846.5,29650534569811.48,105469183041121.64,3828946485357184.0,1.4234699609622928e+17
19.37719578048196,4190757543761875.0,1.583737321150179e+17,1542450062146639.8,2556300761364084.0,30414557758847.895,108187651540139.12,3927645063133110.5,1.4601797647531328e+17
19.864739696091597,4192321309163072.5,1.6222521804013098e+17,1543025621653488.2,2557254636019466.5,31193809074844.875,110960343469006.53,4028312424539201.5,1.4976214989621184e+17
20.36203449001343,4193842604003105.5,1.661533487078444e+17,1543585549445174.2,2558182604236019.5,31988591532287.3,113788339408448.08,4130987807403051.0,1.5358097321181642e+17
20.869275179813698,4195323185907912.0,1.7015965484739664e+17,1544130492433499.8,2559085738140407.0,32799214162937.26,116672741462927.16,4235711231295000.0,1.574759322439938e+17
21.38666068340997,4196764733061962.0,1.7424569738918e+17,1544661068291039.5,2559965061401145.5,33625992132887.83,119614673682024.19,4342523512837961.0,1.61448542347773e+17
21.91439389707817,4198168848818667.0,1.7841306806548138e+17,1545177867148042.0,2560821552040849.5,34469246861937.688,122615282490279.12,4451466281325043.5,1.6550034898679683e+17
22.452681775019734,4199537066002596.5,1.8266339002237926e+17,1545681453175917.2,2561656145060580.0,35329306145325.29,125675737125637.08,4562581994650078.0,1.6963292832021933e+17
23.00173541052013,4200870850927350.0,1.8699831844303824e+17,1546172366066049.5,2562469734890647.5,36206504277859.49,128797230086640.58,4675913955556272.0,1.738478878012336e+17
23.561770118730532,4202171607150786.0,1.914195411826358e+17,1546651122411939.2,2563263177681260.5,37101182180484.68,131980977588513.25,4791506328208273.0,1.7814686678741466e+17
24.133005521105144,4203440678987526.0,1.959287794151634e+17,1547118217002026.8,2564037293445109.0,38013687529322.945,135228220028292.81,4909404155093334.0,1.8253153716307805e+17
24.715665631527248,4204679354796859.5,2.005277882923468e+17,1547574124029831.2,2564792868062930.0,38944374887231.37,138540222459160.94,5029653374257140.0,1.8700360397385366e+17
25.309978944157795,4205888870062818.0,2.052183576149198e+17,1548019298227603.0,2565530655162303.5,39893605837918.81,141918275074136.72,5152300836880026.0,1.91564806073675e+17
25.91617852304095,4207070410281544.5,2.1000231251651232e+17,1548454175929048.0,2566251377878912.5,40861749122663.83,145363693699292.3,5277394325199812.0,1.9621691678440077e+17
26.53450209350177,4208225113670084.5,2.1488151416039027e+17,1548879176066337.0,2566955730508889.5,41849180779678.305,148877820296661.66,5404982570787082.0,2.0096174456828163e+17
27.165192135371807,4209354073709419.0,2.1985786044930474e+17,1549294701106078.5,2567644380059986.0,42856284286161.84,152462023477010.75,5535115273179303.0,2.058011337134864e+17
27.808495978079243,4210458341533581.5,2.24933286748704e+17,1549701137928660.2,2568317967708931.0,43883450703092.22,156117699022644.62,5667843118880104.0,2.1073696503292675e+17
28.464665897640828,4211538928175701.5,2.3010976662356672e+17,1550098858654942.0,2568977110171471.0,44931078822799.68,159846270420435.28,5803217800730281.0,2.1577115657659114e+17
29.133959215593645,4212596806681065.0,2.3538931258911693e+17,1550488221423963.8,2569622400991305.5,45999575319371.875,163649189405242.8,5941292037657133.0,2.2090566435763882e+17
29.816638399905518,4213632914096330.5,2.407739768756836e+17,1550869571125121.0,2570254411753505.5,47089354901938.67,167527936513925.84,6082119594808909.0,2.2614248309248403e+17
30.51297116790363,4214648153343489.0,2.462658522079751e+17,1551243240087886.2,2570873693227580.0,48200840470886.12,171484021650124.97,6225755304081435.0,2.3148364695511405e+17
31.223230591261704,4215643394986447.0,2.5186707259903632e+17,1551609548732001.2,2571480776445049.0,49334463277050.08,175518984660017.62,6372255085043790.0,2.3693123034589168e+17
31.947695203086937,4216619478897361.5,2.5757981415916426e+17,1551968806180820.0,2572076173715922.5,50490663083941.37,179634395919236.06,6521675966270333.0,2.4248734867509683e+17
32.686649107148675,4217577215829584.0,2.6340629592006336e+17,1552321310840219.5,2572660379588146.5,51669888333053.266,183831856931157.6,6674076107086446.0,2.481541591614546e+17
33.44038208929165,4218517388903372.5,2.6934878067451347e+17,1552667350945436.0,2573233871753878.0,52872596312306.766,188113000936761.8,6829514819735477.0,2.539338616459263e+17
34.20918973107749,4219440755010028.5,2.754095758318462e+17,1553007205077885.0,2573797111905986.5,54099253327684.91,192479493536275.03,6988052591974400.0,2.598286994210141e+17
34.993373525699035,4220348046139973.0,2.8159103428951382e+17,1553341142653964.2,2574350546548156.0,55350334878113.29,196933033322804.38,7149751110106033.0,2.6584096007586483e+17
35.793240996213015,4221239970639539.5,2.8789555532104054e+17,1553669424387614.2,2574894607761518.0,56626325833641.33,201475352528184.38,7314673282455747.0,2.719729763574342e+17
36.60910581613728,4222117214401073.0,2.9432558548066266e+17,1553992302728380.0,2575429713930587.0,57927720616981.56,206108217681253.78,7482883263300615.0,2.782271270480037e+17
37.44128793246003,4222980441990732.5,3.008836195249491e+17,1554310022276480.0,2575956270431220.5,59255023388463.23,210833430278786.8,7654446477259160.0,2.846058378593241e+17
38.29011369110923,4223830297717778.0,3.0757220135171526e+17,1554622820176379.0,2576474670282831.0,60608748234460.75,215652827469305.53,7829429644150225.0,2.911115823436838e+17
39.15591596493141,4224667406649116.5,3.1439392495653286e+17,1554930926490197.8,2576985294767306.5,61989419359354.1,220568282750009.47,8007900804329125.0,2.977468828221878e+17
40.03903428423004,4225492375572477.0,3.2135143540715814e+17,1555234564552228.0,2577488514016459.0,63397571281082.42,225581706677050.5,8189929344510001.0,3.0451431133054886e+17
40.93981496991464,4226305793911466.0,3.28447429836183e+17,1555533951305723.0,2577984687570260.0,64833749030351.875,230695047589402.78,8375586024082815.0,3.114164905826937e+17
41.85861126931294,4227108234595371.5,3.356846584522505e+17,1555829297623041.0,2578474164907375.0,66298508353558.695,235910292346561.06,8564943001934220.0,3.184560949524906e+17
