t(s),Total solute volume 1,Total retention volume 1,Total 1 volume 1,Total 2 volume 1,Total 3 volume 1,Total 4 volume 1,Total 5 volume 1,Total 6 volume 1
0.1,1389665646485961.5,7115728075414663.0,1732020487244934.5,3994041941683769.0,0.0,0.0,0.0,0.004426733051481951
0.202,2046571768647733.8,1.0497559015111414e+16,2550761519559617.0,5882075385969156.0,5966247720.645386,35086838491.13385,1790669676399.5686,16318618172297.918
0.30604000000000003,2554929878722986.0,1.3132130762092726e+16,3184357950375209.5,7343155477246102.0,15045641203.453255,88515684104.99663,4635138249540.363,44948756173578.79
0.41216080000000005,2984846675727248.5,1.5375985596122708e+16,3720188348597040.0,8578785483629157.0,26630652556.363163,156695965130.11847,8299354393808.585,83682407157774.03
0.5204040160000001,3365382202846458.5,1.7376659525710646e+16,4194471974375086.5,9672487845102868.0,40437323376.60746,237954523991.48697,12682405949805.096,131356705589053.83
0.6308120963200001,3711446295916770.5,1.9209763528501332e+16,4625791834768969.0,1.0667115278518692e+16,56307234295.32857,331358235430.96796,17730017624823.22,187292436202354.56
0.7434283382464002,4031810434662870.5,2.091974839894645e+16,5025080339790109.0,1.1587878068144214e+16,74144538751.69814,436342601100.46136,23409749935524.49,251059319273875.78
0.8582969050113283,4332130310835897.0,2.253526881935476e+16,5399386509327466.0,1.2451031338091702e+16,93889733893.6671,552557172094.8373,29701480072490.992,322372734121213.9
0.9754628431115548,4616296526935938.0,2.407604356200614e+16,5753559428878198.0,1.3267757133352096e+16,115506651492.17883,679788911260.3942,36592877506272.55,401042299770867.44
1.094972099973786,4887116933061976.0,2.555631822567853e+16,6091098686157107.0,1.4046125540198112e+16,138975212590.51053,817919518888.0741,44076938468867.88,486943233060994.3
1.2168715419732616,5146694094255448.0,2.6986779159790384e+16,6414624830822860.0,1.4792179572942408e+16,164287047991.62094,966899641019.4946,52150513997547.63,579998961083094.5
1.3412089728127268,5396649128644895.0,2.8375687410144284e+16,6726158357085076.0,1.5510578511420286e+16,191442684909.28226,1126732302475.897,60813371717042.05,680169866289584.9
1.4680331522689813,5638261918104299.0,2.9729588372624304e+16,7027294456461092.0,1.6205000882948766e+16,220449652781.0566,1297461753172.1257,70067567480183.33,787445636224006.8
1.597393815314361,5872562913384487.0,3.1053776028787228e+16,7319317439884296.0,1.6878408321016322e+16,251321159518.49326,1479165673691.7644,79917007886844.83,901839859782067.9
1.729341691620648,6100395483935979.0,3.2352607948759056e+16,7603278447935240.0,1.7533224765929152e+16,284075138077.727,1671949561530.0288,90367136059780.77,1023386090199287.9
1.863928525453061,6322459583649422.0,3.3629725701796908e+16,7880049874006716.0,1.8171461965209356e+16,318733542525.31244,1875942586452.6267,101424700133958.19,1152134902668477.8
2.001207095962122,6539343142049268.0,3.4888213170102828e+16,8150364488982996.0,1.8794809695511424e+16,355321817511.4408,2091294466905.9482,113097579062179.05,1288151648212556.8
2.1412312378813647,6751545146157593.0,3.613071285740076e+16,8414844209515174.0,1.940470210255823e+16,393868491504.3935,2318173075136.029,125394649233573.6,1431514708369560.5
2.284055862638992,6959492949345897.0,3.735951303617563e+16,8674021671054238.0,2.000236744877129e+16,434404860394.6967,2556762574396.1562,138325680841030.98,1582314118728438.2
2.4297369798917723,7163555477226689.0,3.857661418579139e+16,8928356687124957.0,2.05888660685191e+16,476964738412.16626,2807261952480.97,151901256377973.34,1740650469851785.8
2.578331719489608,7364053458549310.0,3.978378042684459e+16,9178249000688680.0,2.1165119772884572e+16,521584260064.8631,3069883855665.41,166132705892278.0,1906634020714038.8
2.7298983538794,7561267460252988.0,4.0982579890473464e+16,9424048298699100.0,2.173193494332775e+16,568301721353.4226,3344853653886.039,181032055130501.72,2080383977687901.0
2.884496320956988,7755444275771491.0,4.217441679670519e+16,9666062174219346.0,2.2290020892404376e+16,617157451636.6299,3632408686387.2725,196611983737477.22,2262027904434476.0
3.0421862473761276,7946802060565703.0,4.336055723103483e+16,9904562527135894.0,2.2840004623873572e+16,668193709713.2975,3932797649945.487,212885791398451.72,2451701236701556.0
3.2030299723236504,8135534502179408.0,4.454215006887702e+16,1.0139790761542594e+16,2.338244281791485e+16,721454599248.5378,4246280100986.546,229867370325677.62,2649546882214290.5
3.3670905717701234,8321814237420182.0,4.5720244119933576e+16,1.0371962044772556e+16,2.3917831652496076e+16,776985999806.9492,4573126049592.067,247571182864446.75,2855714890330928.5
3.5344323832055258,8505795676112862.0,4.689580229593782e+16,1.060126882680703e+16,2.4446614919163556e+16,834835510590.9415,4913615628309.926,266012243268121.2,3070362179447415.0
3.7051210308696363,8687617352481780.0,4.80697134113412e+16,1.0827883770940204e+16,2.496919078118271e+16,895052404606.5193,5268038822359.017,285206102896553.94,3293652312612996.5
3.879223451487029,8867403897109436.0,4.924280208461828e+16,1.105196221154642e+16,2.548591744117254e+16,957687591450.6548,5636695250596.469,305168838247081.0,3525755313700714.0
4.0568079205167695,9045267701581084.0,5.041583710273473e+16,1.1273644228823878e+16,2.5997117925483784e+16,1022793587275.3014,6019893988739.917,325917041345557.94,3766847517924434.0
4.237944078927105,9221310332296194.0,5.158953853251855e+16,1.1493056410910364e+16,2.6503084147654452e+16,1090424490761.9033,6417953427979.582,347467812116324.8,4017111451622507.0
4.422702960505647,9395623738081334.0,5.276458380297684e+16,1.1710313359001596e+16,2.7004080379226796e+16,1160635964157.933,6831201163395.921,369838752421259.6,4276735737118316.5
4.61115701971576,9568291287168850.0,5.394161293692805e+16,1.1925518979798376e+16,2.7500346230142384e+16,1233485218598.2925,7259973907607.511,393047961514204.4,4545915019178016.0
4.803380160110075,9739388662097966.0,5.512123307504985e+16,1.2138767600873884e+16,2.799209922078956e+16,1309031003070.4333,7704617425874.689,417114032701576.9,4824849910157936.0
4.9994477633122765,9908984635632032.0,5.630402240797628e+16,1.2350144937744824e+16,2.8479537012078484e+16,1387333596490.955,8165486489525.182,442056051035611.4,5113746951399335.0
5.199436718578522,1.0077141746495262e+16,5.749053361051394e+16,1.255972893608138e+16,2.896283934758493e+16,1468454802449.0642,8642944845084.575,467893591895354.75,5412818588809409.0
5.403425452950093,1.0243916890333426e+16,5.868129685498772e+16,1.276759050825604e+16,2.9442169752038864e+16,1552457946243.552,9137365196913.447,494646720333838.56,5722283160882371.0
5.611493962009095,1.040936183859555e+16,5.987682246714096e+16,1.2973794180056218e+16,2.991767702264971e+16,1639407873898.1157,9649129201495.604,522335991088833.44,6042364897675199.0
5.823723841249277,1.057352369585944e+16,6.107760327711253e+16,1.3178398660675606e+16,3.038949654351145e+16,1729370952887.568,10178627471803.268,550982449170213.94,6373293929471116.0
6.040198318074262,1.0736445304367674e+16,6.22841167092251e+16,1.3381457346911108e+16,3.085775144828557e+16,1822415074347.21,10726259590398.06,580607630949859.9,6715306304046123.0
6.261002284435747,1.089816560311516e+16,6.349682664717422e+16,1.3583018770714526e+16,3.132255365225921e+16,1918609656570.4014,11292434130120.496,611233565690731.5,7068644011607898.0
6.486222330124463,1.1058719947663536e+16,6.471618510538536e+16,1.3783126997795914e+16,3.178400477152816e+16,2018025649627.068,11877568681382.986,642882777460755.2,7433555016605974.0
6.715946776726952,1.1218140395900834e+16,6.5942633732519176e+16,1.3981821983782588e+16,3.224219694430276e+16,2120735540959.058,12482089885218.18,675578287384646.9,7810293295722194.0
6.950265712261491,1.1376455964175174e+16,6.717660516916351e+16,1.4179139893453294e+16,3.269721356706479e+16,2226813361827.974,13106433471350.516,709343616193228.8,8199118881443863.0
7.18927102650672,1.1533692857575444e+16,6.841852427847902e+16,1.4375113387750744e+16,3.314912995642076e+16,2336334694507.8984,13751044300657.502,744202787035190.0,8600297910701687.0
7.433056447036854,1.1689874677587082e+16,6.966880926584509e+16,1.4569771882594862e+16,3.3598013945927908e+16,2449376680129.894,14416376411472.557,780180328520903.5,9014102678122728.0
7.681717575977592,1.1845022609893488e+16,7.09278727012761e+16,1.476314178295078e+16,3.4043926425856504e+16,2566018027097.573,15102893069254.305,817301277971909.9,9440811693507058.0
7.935351927497144,1.1999155594710374e+16,7.219612245646688e+16,1.4955246695126384e+16,3.4486921832750464e+16,2686339020003.9717,15811066819211.371,855591184853148.2,9880709743187328.0
8.194058966047088,1.2152290481716472e+16,7.347396256671573e+16,1.5146107619871586e+16,3.492704859471548e+16,2810421528989.3975,16541379541527.615,895076114368066.0,1.0334087954973644e+16
8.45794014536803,1.2304442171370214e+16,7.476179402661051e+16,1.5335743128509426e+16,3.5364349537578964e+16,2938349019488.3896,17294322508882.465,935782651199363.9,1.0801243866424214e+16
8.72709894827539,1.2455623744168586e+16,7.606001552720611e+16,1.552416952403899e+16,3.5798862256394776e+16,3070206562321.4507,18070396446004.86,977737903380549.1,1.128248149621486e+16
9.0016409272409,1.2605846579206238e+16,7.736902414143405e+16,1.571140098890252e+16,3.62306194561953e+16,3206080844093.8687,18870111591039.273,1020969506285528.6,1.1778111418409302e+16
9.281673745785717,1.2755120463222646e+16,7.86892159636446e+16,1.5897449720897226e+16,3.66596492654053e+16,3346060177870.113,19693987758537.86,1065505626725422.8,1.2288450839457524e+16
9.567307220701432,1.2903453691179212e+16,8.00209867084544e+16,1.608232605853043e+16,3.708597552491173e+16,3490234514097.871,20542554403925.984,1111374967143456.1,1.2813823677771496e+16
9.85865336511546,1.3050853159282684e+16,8.136473227345491e+16,1.626603859695994e+16,3.750961805542328e+16,3638695451760.8745,21416350689318.246,1158606769900400.5,1.3354560645747606e+16
10.155826432417769,1.3197324451262334e+16,8.272084926979747e+16,1.6448594295526584e+16,3.793059290544101e+16,3791536249744.52,22315925550590.527,1207230821644498.5,1.391099933412269e+16
10.458942961066125,1.334287191861492e+16,8.408973552420501e+16,1.6629998577767806e+16,3.834891258189072e+16,3948851838402.7803,23241837765640.305,1257277457761140.0,1.4483484298566426e+16
10.768121820287448,1.3487498755448564e+16,8.547179055556304e+16,1.6810255424700252e+16,3.8764586265233144e+16,4110738831319.0854,24194656023791.508,1308777566898869.0,1.5072367148427124e+16
11.083484256693197,1.3631207068486868e+16,8.686741602888382e+16,1.6989367462069888e+16,3.917762001066298e+16,4277295537257.976,25174958996325.47,1361762595569479.8,1.5678006637561008e+16
11.405153941827061,1.3773997942730904e+16,8.827701618913896e+16,1.7167336042190242e+16,3.958801693682905e+16,4448621972308.244,26183335408141.11,1416264552821179.8,1.6300768757187114e+16
11.733257020663602,1.391587150322314e+16,8.970099827718434e+16,1.7344161320922546e+16,3.999577740335039e+16,4624819872221.976,27220384110570.86,1472316014984827.2,1.6941026830720578e+16
12.067922161076874,1.4056826973308874e+16,9.11397729297675e+16,1.7519842330290198e+16,4.040089917826604e+16,4805992704957.694,28286714155399.36,1529950130494431.5,1.7599161610547626e+16
12.409280604298411,1.4196862729748486e+16,9.25937545654035e+16,1.7694377047168442e+16,4.080337759643359e+16,4992245683439.279,29382944870154.28,1589200624784091.2,1.8275561376715264e+16
12.75746621638438,1.43359763549967e+16,9.406336175772043e+16,1.786776245844305e+16,4.120320570978584e+16,5183685778546.008,30509705934758.344,1650101805264604.2,1.8970622037516828e+16
13.112615540712067,1.4474164686931868e+16,9.554901759772056e+16,1.8039994622990724e+16,4.160037443025745e+16,5380421732352.473,31667637459653.25,1712688566384011.0,1.968474723196453e+16
13.474867851526309,1.4611423866288362e+16,9.705115004625734e+16,1.8211068730796972e+16,4.199487266611114e+16,5582564071640.662,32857390065525.63,1776996394777369.8,2.0418348434146464e+16
13.844365208556836,1.4747749382019902e+16,9.8570192277906e+16,1.8380979159494972e+16,4.238668745231695e+16,5790225121709.855,34079624964786.414,1843061374512004.0,2.11718450594756e+16
14.221252512727972,1.488313611479739e+16,1.0010658301729045e+17,1.8549719528579396e+16,4.277580407556915e+16,6003519020513.54,35335014044974.18,1910920192435526.0,2.1945664572843616e+16
14.605677562982532,1.5017578378824052e+16,1.0166076686883909e+17,1.8717282751523124e+16,4.316220619446779e+16,6222561733155.869,36624239954274.17,1980610143634915.5,2.2740242598701624e+16
14.997791114242183,1.5151069962132156e+16,1.0323319464083778e+17,1.888366108600144e+16,4.354587595533568e+16,6447471066783.673,37947996189363.945,2052169137015939.5,2.355602303309644e+16
15.397746936527026,1.5283604165508238e+16,1.0482432366459094e+17,1.9048846182406588e+16,4.392679410409313e+16,6678366685913.32,39306987185817.14,2125635701013195.0,2.439345815769806e+16
15.805701875257567,1.541517384017824e+16,1.0643461810940813e+17,1.921282913081709e+16,4.4304940094569976e+16,6915370128235.367,40701928411316.54,2201048989442032.0,2.5253008755861212e+16
16.221815912762718,1.5545771424370792e+16,1.0806454929408955e+17,1.937560050656866e+16,4.468029219359104e+16,7158604820943.015,42133546461947.8,2278448787504718.5,2.6135144230771348e+16
16.64625223101797,1.5675388978863272e+16,1.0971459599551616e+17,1.9537150414557304e+16,4.505282758314018e+16,7408196097633.97,43602579161864.92,2357875517964046.5,2.7040342725731736e+16
17.079177275638333,1.5804018221604392e+16,1.1138524475490163e+17,1.9697468532391364e+16,4.542252245986882e+16,7664271215838.662,45109775666638.49,2439370247498736.0,2.7969091246655864e+16
17.5207608211511,1.5931650561496292e+16,1.1307699018221934e+17,1.9856544152496308e+16,4.578935213218897e+16,7926959375230.936,46655896570615.98,2522974693255897.5,2.8921885786835972e+16
17.97117603757412,1.605827713140942e+16,1.1479033525927197e+17,2.0014366223262776e+16,4.61532911151619e+16,8196391736580.799,48241714018645.43,2608731229616872.0,2.989923145406579e+16
18.430599558325603,1.6183888820494602e+16,1.1652579164184038e+17,2.0170923389319256e+16,4.65143132233659e+16,8472701441511.846,49868011822529.81,2696682895193657.5,3.0901642600202892e+16
18.899211549492115,1.6308476305848604e+16,1.1828387996130557e+17,2.0326204030998504e+16,4.687239166190647e+16,8756023633129.485,51535585582600.17,2786873400074282.0,3.1929642953261984e+16
19.37719578048196,1.6432030083581496e+16,1.2006513012611579e+17,2.0480196303058828e+16,4.722749911570736e+16,9046495477588.752,53245242814813.33,2879347133336217.0,3.2983765752139456e+16
19.864739696091597,1.655454049932801e+16,1.218700816234357e+17,2.063288817271178e+16,4.757960783720294e+16,9344256186673.953,54997803083797.28,2974149170848108.5,3.406455388407445e+16
20.36203449001343,1.667599777823717e+16,1.2369928382129466e+17,2.0784267457000356e+16,4.79286897325318e+16,9649447041465.102,56794098142285.766,3071325283380907.5,3.517256002496056e+16
20.869275179813698,1.6796392054469752e+16,1.2555329627152198e+17,2.0934321859563148e+16,4.827471644631523e+16,9962211417168.807,58634972077399.1,3170921945050341.0,3.630834678262896e+16
21.38666068340997,1.6915713400226648e+16,1.2743268901374544e+17,2.1083039006814104e+16,4.861765944508763e+16,10282694809194.363,60521281464244.4,3272986342113749.0,3.747248684322975e+16
21.91439389707817,1.7033951854326014e+16,1.2933804288069731e+17,2.123040648355984e+16,4.8957490099430504e+16,10611044860557.943,62453895527324.34,3377566382144908.5,3.8665563120848184e+16
22.452681775019734,1.7151097450342308e+16,1.3126994980506826e+17,2.1376411868071156e+16,4.929417976484653e+16,10947411390700.412,64433696310256.305,3484710703611499.5,3.98881689104958e+16
23.00173541052013,1.7267140244315776e+16,1.3322901312812238e+17,2.152104276661871e+16,4.96276998613997e+16,11291946425806.342,66461578854317.16,3594468685880471.5,4.114090804462762e+16
23.561770118730532,1.7382070342036048e+16,1.3521584791028008e+17,2.166428684747825e+16,4.99580219521311e+16,11644804230714.01,68538451386342.26,3706890459677449.5,4.242439505334014e+16
24.133005521105144,1.7495877925900078e+16,1.3723108124385712e+17,2.180613187440523e+16,5.028511782025119e+16,12006141342507.871,70665235516515.7,3822026918026811.0,4.373925532841477e+16
24.715665631527248,1.7608553281340472e+16,1.3927535256813963e+17,2.1946565739573836e+16,5.060895954509799e+16,12376116605886.438,72842866446599.27,3939929727699894.0,4.508612529137503e+16
25.309978944157795,1.7720086822816686e+16,1.4134931398696149e+17,2.2085576495971572e+16,5.09295195768378e+16,12754891210400.18,75072293189156.66,4060651341199123.0,4.64656525657367e+16
25.91617852304095,1.783046911935868e+16,1.434536305889419e+17,2.222315238923548e+16,5.124677080988092e+16,13142628729654.553,77354478798331.39,4184245009306558.0,4.7878496153632216e+16
26.53450209350177,1.7939690919648692e+16,1.455889807705325e+17,2.2359281888913256e+16,5.1560686654968744e+16,13539495162574.81,79690400612748.66,4310764794225564.5,4.932532661700097e+16
27.165192135371807,1.804774317662489e+16,1.4775605656201453e+17,2.249395371912803e+16,5.1871241109887704e+16,13945658976828.773,82081050511106.77,4440265583344798.5,5.080682626354101e+16
27.808495978079243,1.815461707158726e+16,1.49955563956576e+17,2.262715688862304e+16,5.217840882875166e+16,14361291154504.896,84527435181028.2,4572803103653889.0,5.232368933762455e+16
28.464665897640828,1.8260304037784176e+16,1.521882232426034e+17,2.2758880720158892e+16,5.24821651897925e+16,14786565240141.895,87030576401741.52,4708433936840325.0,5.3876622216385656e+16
29.133959215593645,1.836479578345554e+16,1.5445476933929984e+17,2.288911487923347e+16,5.2782486361587976e+16,15221657391206.14,89591511341156.52,4847215535097190.0,5.546634361119335e+16
29.816638399905518,1.846808431430643e+16,1.567559521357533e+17,2.3017849402092428e+16,5.307934936765449e+16,15666746431112.338,92211292867895.66,4989206237671349.0,5.709358477472961e+16
30.51297116790363,1.857016195538421e+16,1.5909253683356256e+17,2.3145074722995452e+16,5.3372732149322856e+16,16122013904880.865,94890989878835.03,5134465288181419.0,5.87590897138948e+16
31.223230591261704,1.8671021372328636e+16,1.614653042931307e+17,2.3270781700702004e+16,5.366261362681439e+16,16587644137524.842,97631687642694.67,5283052852734905.0,6.0463615408770504e+16
31.947695203086937,1.877065559196591e+16,1.6387505138373245e+17,2.3394961644138456e+16,5.394897375842996e+16,17063824295256.441,100434488160215.83,5435030038873141.0,6.220793203786946e+16
32.686649107148675,1.886905802221352e+16,1.6632259133745418e+17,2.351760633720692e+16,5.423179359775901e+16,17550744449600.97,103300510541437.69,5590458915372674.0,6.399282320991114e+16
33.44038208929165,1.8966222471264948e+16,1.688087541071143e+17,2.3638708062696064e+16,5.4511055348817864e+16,18048597644503.336,106230891400577.36,5749402532930617.0,6.581908620235989e+16
34.20918973107749,1.9062143166019316e+16,1.7133438672825517e+17,2.3758259625251348e+16,5.478674241901951e+16,18557579966508.92,109226785268993.02,5911924945761318.0,6.76875322069683e+16
34.993373525699035,1.9156814769724516e+16,1.7390035368531453e+17,2.3876254373364292e+16,5.505883946988123e+16,19077890618096.992,112289365026694.25,6078091234130608.0,6.959898658256923e+16
35.793240996213015,1.9250232398798356e+16,1.7650753728206874e+17,2.3992686220337976e+16,5.5327332465370616e+16,19609731994240.867,115419822352833.28,6247967527852785.0,7.155428911536188e+16
36.60910581613728,1.934239163879542e+16,1.791568380164509e+17,2.410754966418739e+16,5.559220871779652e+16,20153309762264.86,118619368195591.97,6421621030775060.0,7.355429428693869e+16
37.44128793246003,1.943328855948593e+16,1.8184917495984394e+17,2.4220839806432876e+16,5.585345693114687e+16,20708832945062.637,121889233261846.72,6599120046272200.0,7.559987155029904e+16
38.29011369110923,1.9522919729014076e+16,1.8458548614094797e+17,2.4332552369746836e+16,5.611106724178192e+16,21276514007737.477,125230668526965.86,6780534003773684.0,7.76919056140967e+16
