t(s),Total solute volume 1,Total retention volume 1,Total 1 volume 1,Total 2 volume 1,Total 3 volume 1,Total 4 volume 1,Total 5 volume 1,Total 6 volume 1
0.1,1038034012882719.0,1307672365282961.0,121693262551923.95,147945089848319.12,0.0,0.0,0.0,0.0
0.202,1560854315363852.8,1972003419834030.8,182985771572149.53,222459700466703.06,5584527315.981074,12330480845.778458,220298263862.29395,5465419159302.729
0.30604000000000003,1957130843020177.2,2479960071463921.5,229443000539449.5,278938743686794.1,14144492475.647161,31230686660.217937,557978402721.7394,13844130635644.549
0.41216080000000005,2290608726882762.5,2911233021501562.5,268538070047886.34,326467452654979.2,25080555841.42936,55377301735.794586,989394784129.6475,24548919274224.574
0.5204040160000001,2585212295910415.5,3295683371214706.0,303075733752572.2,368455626256776.9,38120860740.75505,84170086816.57378,1503822864054.4197,37313601483327.24
0.6308120963200001,2852872598828055.5,3648187348350023.0,334454720636717.25,406603729142419.75,53114659161.7121,117276207261.78676,2095315933520.4417,51990592942886.93
0.7434283382464002,3100527255162484.0,3977391808593374.5,363488358154423.1,441900540833833.4,69971044873.42912,154494957566.62848,2760288042480.401,68490900397711.04
0.8582969050113283,3332620745860067.0,4288838226152858.5,390697692228546.0,474979507963339.56,88633732275.48921,195702073922.25253,3496519018198.777,86759425276510.98
0.9754628431115548,3552197459847901.0,4586326942114107.0,416439629876171.1,506274529996755.5,109068600724.65749,240822232562.80267,4302663092260.4644,106762768467724.66
1.094972099973786,3761447641258818.5,4872597857384364.0,440970942987661.4,536097769992257.06,131256775807.66808,289813773508.88495,5177975960911.341,128482456635396.69
1.2168715419732616,3962007303865054.5,5149703988060310.0,464483428606352.1,564682399701876.5,155190455305.16016,342659484495.71136,6122150122887.236,151910855824339.28
1.3412089728127268,4155135230166816.5,5419231706288817.0,487124659305158.2,592207826246619.4,180870231843.14954,399360689535.0721,7135209260931.076,177048550387907.84
1.4680331522689813,4341823451910140.5,5682438079702811.0,509010935300467.9,618815438277336.2,208303292461.56985,459933273679.2977,8217437217197.073,203902580431526.1
1.597393815314361,4522869391469612.0,5940340468045616.0,530235741901677.5,644618887876338.9,237502161661.65814,524404907767.4856,9369328408543.455,232485211320015.6
1.729341691620648,4698924749134747.0,6193777185277555.0,550875480781399.4,669711058184730.0,268483796859.79288,592813051273.2218,10591552144015.324,262813048184531.75
1.863928525453061,4870529677865795.0,6443449869749892.0,570993476431412.1,694168934136257.2,301268921017.14325,665203478828.944,11884926298746.092,294906382617830.0
2.001207095962122,5038137313004518.0,6689953872192951.0,590642851887848.0,718057098537695.2,335881519952.2801,741629170365.5897,13250397484489.03,328788700588089.4
2.1412312378813647,5202131784285059.0,6933800552938263.0,609868640357935.5,741430299218470.1,372348457078.73224,822149460523.7664,14689025852490.479,364486305306711.6
2.284055862638992,5362841706500265.0,7175433970855743.0,628709366789747.2,764335371778701.0,410699173809.6035,906829377216.4486,16201973275885.928,402028023960115.8
2.4297369798917723,5520550461102158.0,7415243594777705.0,647198253229166.6,786812704967345.2,450965453719.85236,995739120968.1428,17790494047313.344,441444976857047.44
2.578331719489608,5675504153767647.0,7653574136535315.0,665364151720082.1,808897374828825.0,493181235000.5704,1088953650883.1995,19455927481642.24,482770393851240.44
2.7298983538794,5827917858495618.0,7890733263392859.0,683232276327168.6,830620034638737.0,537382460065.5958,1186552352647.3472,21199691984369.367,526039467134249.9
2.884496320956988,5977980578034112.0,8126997722977556.0,700824784668443.0,852007621885365.2,583606954141.529,1288618770526.0073,23023280263429.625,571289232401541.5
3.0421862473761276,6125859228703394.0,8362618262574765.0,718161245073489.8,873083926203875.5,631894326754.1263,1395240389919.5125,24928255444295.098,618558472433016.9
3.2030299723236504,6271701874049927.0,8597823620821458.0,735259015678840.4,893870050250657.6,682285891509.5393,1506508460315.5054,26916247906841.47,667887638583364.6
3.3670905717701234,6415640373267679.0,8832823797238440.0,752133554913974.2,914384787167775.4,734824600646.4446,1622517850857.743,28988952704965.79,719318786732532.5
3.5344323832055258,6557792568730075.0,9067812753453222.0,768798677955255.8,934644932359457.5,789554991628.2611,1743366932502.0425,31148127461232.33,772895525023083.8
3.7051210308696363,6698264106958156.0,9302970662756918.0,785266770205980.8,954665543024368.0,846523143636.5293,1869157482036.8394,33395590652170.12,828662971290583.5
3.879223451487029,6837149965390022.0,9538465797428482.0,801548966286235.0,974460155757370.6,905776642273.6307,1999994604233.0005,35733220217485.15,886667718530868.9
4.0568079205167695,6974535741047159.0,9774456123114470.0,817655301108870.4,994040970215815.0,967364551124.6354,2135986669141.8257,38162952439924.38,946957807082471.6
4.237944078927105,7110498745000322.0,1.0011090654461274e+16,833594838188541.0,1013419005107570.1,1031337389091.8538,2277245262142.6626,40686781052937.55,1009582702460667.1
4.422702960505647,7245108937301917.0,1.0248510614771152e+16,849375779247881.8,1032604231441586.2,1097747112621.2838,2423885144795.412,43306756541391.31,1074593277980964.9
4.61115701971576,7378429729984781.0,1.0486850433718388e+16,865005558356595.9,1051605686974790.6,1166647102101.9978,2576024224910.7437,46024985606978.98,1142041801468217.2
4.803380160110075,7510518680272015.0,1.0726238610417482e+16,880490923199447.0,1070431575011323.6,1238092151847.902,2733783534534.172,48843630775028.78,1211981925473281.0
4.9994477633122765,7641428091892079.0,1.096679846388876e+16,895838005571076.8,1089089350104568.2,1312138463173.9263,2897287214766.905,51764910123468.516,1284468680519609.2
5.199436718578522,7771205539057488.0,1.12086487888465e+16,911052382804297.6,1107585792736858.0,1388843640161.557,3066662506529.105,54791097117966.05,1359558470983191.0
5.403425452950093,7899894325025464.0,1.1451904431479494e+16,926139131529179.4,1125927074675538.8,1468266687775.6973,3242039746519.507,57924520539919.055,1437309073275069.8
5.611493962009095,8027533885056503.0,1.1696676797299618e+16,941102874913625.8,1144118816404332.0,1550468012049.7693,3423552367746.4443,61167564496125.016,1517779636049240.0
5.823723841249277,8154160141899303.0,1.194307430105633e+16,955947824338434.5,1162166137788608.8,1635509422101.0203,3611336904105.139,64522668500750.984,1601030682203029.0
6.040198318074262,8279805820569985.0,1.2191202767036912e+16,970677816300250.2,1180073702939078.8,1723454133775.438,3805532998558.2266,67992327621688.164,1687124112473563.2
6.261002284435747,8404500728087440.0,1.24411657867127e+16,985296345206139.2,1197845760080865.2,1814366774752.67,4006283414545.4565,71579092684607.9,1776123210464351.8
6.486222330124463,8528272002924343.0,1.2693065039580312e+16,999806592617841.1,1215486177106374.5,1908313390967.3894,4213734050305.8257,75285570529059.47,1868092648961440.5
6.715946776726952,8651144338192425.0,1.2947000582135794e+16,1014211453416747.1,1232998473384589.0,2005361454225.4512,4428033955843.625,79114424311812.77,1963098497420155.8
6.950265712261491,8773140181969328.0,1.320307110916894e+16,1028513559289088.1,1250385848312526.2,2105579870911.6562,4649335352310.969,83068373853384.72,2061208230521374.8
7.18927102650672,8894279917667135.0,1.3461374190942258e+16,1042715299871331.1,1267651207022169.2,2209038991701.849,4877793653614.224,87150196024305.38,2162490737711997.0
7.433056447036854,9014582026921312.0,1.372200648930138e+16,1056818841846359.0,1284797183596052.0,2315810622205.356,5113567490081.305,91362725168213.27,2267016333657170.0
7.681717575977592,9134063237124794.0,1.3985063955330132e+16,1070826146239544.6,1301826162094512.0,2425968034475.566,5356818734052.752,95708853559331.47,2374856769543432.5
7.935351927497144,9252738655436270.0,1.425064201080093e+16,1084738984129110.8,1318740295655065.2,2539585979336.2773,5607712527281.199,100191531892260.83,2486085245181584.0
8.194058966047088,9370621890840688.0,1.4518835715364094e+16,1098558950955823.1,1335541523889054.5,2656740699480.29,5866417310043.434,104813769802382.62,2600776421866609.5
8.45794014536803,9487725165628780.0,1.4789739921161334e+16,1112287479592239.0,1352231588770170.8,2777509943304.192,6133104851885.655,109578636415448.36,2719006435959523.0
8.72709894827539,9604059417482596.0,1.506344941632826e+16,1125925852310617.0,1368812049184105.5,2901972979449.8804,6407950283937.605,114489260925210.39,2840852913162350.5
9.0016409272409,9719634393200006.0,1.534005905866341e+16,1139475211770655.2,1385284294286618.2,3030210612029.431,6691132132743.529,119548833198163.61,2966394983463214.0
9.281673745785717,9834458734960426.0,1.5619663900582142e+16,1152936571132813.2,1401649555798436.5,3162305196514.8076,6982832355570.108,124760604404685.88,3095713296733692.0
9.567307220701432,9948540059921062.0,1.5902359306334844e+16,1166310823389711.5,1417908919349723.8,3298340656278.643,7283236377160.968,130127887676034.94,3228890038964865.0
9.85865336511546,1.006188503383631e+16,1.6188241062352976e+16,1179598749996861.2,1434063334972578.2,3438402499776.414,7592533127916.897,135654058786830.08,3366008949132716.5
10.155826432417769,1.0174499439308624e+16,1.6477405481482714e+16,1192801028874015.2,1450113626828486.2,3582577838363.985,7910915083488.558,141342556862779.34,3507155336686941.0
10.458942961066125,1.0286388239207438e+16,1.676994950177909e+16,1205918241840036.5,1466060502247023.2,3730955404747.6343,8238578305776.3,147196885113561.94,3652416099660513.0
10.768121820287448,1.0397555635728892e+16,1.7065970780457604e+16,1218950881536745.8,1481904560143322.8,3883625572066.876,8575722485337.528,153220611590871.0,3801879743400363.5
11.083484256693197,1.050800512551506e+16,1.7365567783532154e+16,1231899357890759.8,1497646298873911.2,4040680373612.9316,8922550985208.627,159417369971740.8,3955636399921873.5
11.405153941827061,1.0617739551202958e+16,1.7668839871612692e+16,1244764004156835.0,1513286123583670.8,4202213523188.0786,9279270886153.514,165790860367380.62,4113777847892553.0
11.733257020663602,1.0726761149731956e+16,1.7975887382283558e+16,1257545082581154.5,1528824353090860.5,4368320436113.378,9646093033355.746,172344850157809.9,4276397533252286.0
12.067922161076874,1.0835071597702048e+16,1.8286811709440236e+16,1270242789718839.0,1544261226351702.0,4539098250894.393,10023232084575.709,179083174852688.12,4443590590479504.0
12.409280604298411,1.094267205404118e+16,1.8601715379923452e+16,1282857261436082.0,1559596908541617.2,4714645851556.022,10410906559798.469,186009738978789.0,4615453864514409.0
12.75746621638438,1.1049563200215098e+16,1.8920702127755044e+16,1295388577624082.0,1574831496786005.5,4895063890659.709,10809338892401.018,193128516994643.34,4792085933352155.0
13.112615540712067,1.115574527818367e+16,1.9243876966250484e+16,1307836766648840.0,1589965025570003.0,5080454813017.266,11218755481872.393,200443554232934.34,4973587131320122.0
13.474867851526309,1.126121812628904e+16,1.9571346258255676e+16,1320201809558502.8,1604997471853403.0,5270922880117.438,11639386748121.371,207958967871287.62,5160059573055232.0
13.844365208556836,1.1365981213239322e+16,1.9903217784733544e+16,1332483644067386.5,1619928759914160.2,5466574195282.309,12071467187411.146,215678947932130.38,5351607178197817.0
14.221252512727972,1.147003367033522e+16,2.0239600811903188e+16,1344682168334073.0,1634758765941447.5,5667516729571.925,12515235429961.31,223607758312376.28,5548335696820550.0
14.605677562982532,1.1573374322070356e+16,2.0580606157118684e+16,1356797244548797.8,1649487322396985.0,5873860348456.481,12970934299261.164,231749737843694.97,5750352735611129.0
14.997791114242183,1.1676001715223632e+16,2.0926346253654764e+16,1368828702344095.2,1664114222161377.5,6085716839276.567,13438810873139.934,240109301384194.16,5957767784829055.0
15.397746936527026,1.1777914146548536e+16,2.1276935214555756e+16,1380776342040935.0,1678639222480531.0,6303199939512.497,13919116546640.97,248690940942355.3,6170692246057208.0
15.805701875257567,1.1879109689154256e+16,2.163248889568821e+16,1392639937741464.5,1693062048725594.0,6526425365885.06,14412107096749.955,257499226834113.84,6389239460770110.0
16.221815912762718,1.1979586217662802e+16,2.1993124958127856e+16,1404419240278330.2,1707382397978457.5,6755510844310.019,14918042749027.389,266538808873988.8,6613524739740893.0
16.64625223101797,1.207934143221847e+16,2.2358962930000092e+16,1416113980029386.2,1721599942453702.0,6990576140730.131,15437188246198.053,275814417601198.2,6843665393310400.0
17.079177275638333,1.2178372881417618e+16,2.2730124267884956e+16,1427723869605862.0,1735714332766635.0,7231743092848.166,15969812918750.834,285330865541719.9,7079780762541510.0
17.5207608211511,1.227667798422014e+16,2.3106732417888216e+16,1439248606421133.2,1749725201056204.5,7479135642785.738,16516190757603.781,295093048507272.1,7321992251283070.0
17.97117603757412,1.2374254050897094e+16,2.3488912876473624e+16,1450687875146518.0,1763632163970575.8,7732879870692.359,17076600488889.68,305105946932218.56,7570423359167608.0
18.430599558325603,1.247109830306447e+16,2.387679325114404e+16,1462041350059895.8,1777434825522383.2,7993104029330.235,17651325650918.83,315374627249382.8,7825199715567679.0
18.899211549492115,1.256720789284682e+16,2.4270503321054076e+16,1473308697292379.0,1791132779820050.0,8259938579659.8125,18240654673376.01,325904243305831.2,8086449114535944.0
19.37719578048196,1.2662579921211082e+16,2.467017509762969e+16,1484489576977634.0,1804725613680794.2,8533516227452.301,18844880958809.492,336700037819619.4,8354301550754309.0
19.864739696091597,1.275721145550633e+16,2.5075942885268216e+16,1495583645308176.5,1818212909130476.5,8813971960954.459,19464302966469.465,347767343878558.06,8628889256517292.0
20.36203449001343,1.285109954624159e+16,2.5487943342184676e+16,1506590556502257.0,1831594245794814.2,9101443089632.02,20099224298555.32,359111586482042.44,8910346739775769.0
20.869275179813698,1.2944241243131268e+16,2.590631554146867e+16,1517509964685000.8,1844869203186287.8,9396069284017.44,20749953788929.492,370738284126988.56,9198810823266220.0
21.38666068340997,1.3036633610433918e+16,2.6331201032412148e+16,1528341525686599.0,1858037362890282.0,9697992616688.559,21416805594356.406,382653050438925.7,9494420684751366.0
21.91439389707817,1.3128273741608982e+16,2.6762743902163604e+16,1539084898760576.8,1871098310653990.0,10007357604403.24,22100099288326.105,394861595849295.44,9797317898398044.0
22.452681775019734,1.321915877331216e+16,2.720109083776427e+16,1549739748224559.8,1884051638381135.0,10324311251417.152,22800159957519.703,407369729319998.0,1.0107646477317458e+16
23.00173541052013,1.3309285898749608e+16,2.7646391188615856e+16,1560305745025820.5,1896896946035257.8,10649003094009.273,23517318300975.805,420183360116232.06,1.0425552917293916e+16
23.561770118730532,1.3398652380408824e+16,2.8098797029430284e+16,1570782568233795.5,1909633843454160.0,10981585246241.633,24251910732015.637,433308499628671.06,1.07511862417266e+16
24.133005521105144,1.3487255562182118e+16,2.855846322370742e+16,1581169906461351.2,1922261952077821.0,11322212446978.395,25004279482984.05,446751263245986.9,1.1084698047810152e+16
24.715665631527248,1.3575092880898348e+16,2.9025547487785668e+16,1591467459216720.8,1934780906591923.8,11671042108189.277,25774772712863.754,460517872278757.25,1.142624255397888e+16
25.309978944157795,1.3662161877276174e+16,2.9500210455509556e+16,1601674938187582.5,1947190356488985.8,12028234364562.65,26563744617819.24,474614655935768.9,1.177597664863863e+16
25.91617852304095,1.3748460206312228e+16,2.998261574355459e+16,1611792068458938.0,1959489967548901.5,12393952124452.732,27371555544726.24,489048053353699.9,1.2134059940211634e+16
26.53450209350177,1.3833985647115842e+16,3.0472930017451132e+16,1621818589666041.0,1971679423240658.8,12768361122184.932,28198572107741.61,503824615681196.94,1.2500654808517502e+16
27.165192135371807,1.3918736112202018e+16,3.097132305834533e+16,1631754257083887.5,1983758426046771.2,13151629971743.64,29045167307968.902,518951008218284.06,1.287592645751468e+16
27.808495978079243,1.4002709656252916e+16,3.1477967830534908e+16,1641598842654351.8,1995726698712058.2,13543930221865.63,29911720656271.844,534434012612104.9,1.326004296942533e+16
28.464665897640828,1.4085904484358876e+16,3.199304054981754e+16,1651352135952307.5,2007583985418137.8,13945436412562.756,30798618299290.23,550280529109918.75,1.365317536026645e+16
29.133959215593645,1.4168318959747724e+16,3.2516720752687268e+16,1661013945091784.8,2019330052885083.8,14356326133095.67,31706253148709.1,566497578870279.5,1.405549763681057e+16
29.816638399905518,1.4249951611012988e+16,3.3049191366413404e+16,1670584097573351.2,2030964691401585.0,14776780081421.873,32635025013832.242,583092306333330.9,1.4467186854996856e+16
30.51297116790363,1.4330801138849734e+16,3.3590638780037756e+16,1680062441073790.2,2042487715784998.2,15206982125139.086,33585340737510.883,600071981651098.8,1.4888423179815504e+16
31.223230591261704,1.4410866422307206e+16,3.4141252916322624e+16,1689448844179133.5,2053898966272474.5,15647119363945.832,34557614335475.55,617444003178663.9,1.531938994668572e+16
31.947695203086937,1.4490146524567704e+16,3.4701227304683204e+16,1698743197062120.8,2065198309344621.0,16097382193639.55,35552267139120.78,635215900027095.9,1.5760273724348896e+16
32.686649107148675,1.4568640698260342e+16,3.5270759155137108e+16,1707945412105186.8,2076385638482808.5,16557964371672.967,36569727941788.09,653395334678956.6,1.6211264379296358e+16
33.44038208929165,1.464634839031887e+16,3.5850049433302936e+16,1717055424469934.0,2087460874861546.5,17029063084288.604,37610433148595.46,671990105667242.4,1.667255514175248e+16
34.20918973107749,1.4723269246392626e+16,3.643930293647956e+16,1726073192614257.2,2098423967977151.2,17510879015250.428,38674826929856.234,691008150318560.1,1.7144342673231792e+16
34.993373525699035,1.4799403114819956e+16,3.703872837083734e+16,1734998698758181.0,2109274896214046.0,18003616416192.098,39763361378133.86,710457547561310.6,1.7626827135689464e+16
35.793240996213015,1.4874750050172934e+16,3.764853842975284e+16,1743831949299412.0,2120013667349981.2,18507483178599.63,40876496668973.87,730346520799705.0,1.8120212262283292e+16
36.60910581613728,1.4949310316383342e+16,3.826894987331748e+16,1752572975179807.8,2130640319001566.2,19022690907446.863,42014701225357.69,750683440854294.6,1.862470542976562e+16
37.44128793246003,1.5023084389459142e+16,3.890018360904911e+16,1761221832203840.5,2141154919011394.0,19549454996500.992,43178451885916.055,771476828969863.2,1.9140517732522436e+16
38.29011369110923,1.5096072959801162e+16,3.954246477383984e+16,1769778601310179.5,2151557565778284.5,20087994705315.207,44368234076946.88,792735359891302.6,1.9667864058276612e+16
39.15591596493141,1.5168276934130078e+16,4.019602281716667e+16,1778243388797650.5,2161848388531888.8,20638533237924.9,45584541988273.445,814467865008250.4,2.0206963165472588e+16
40.03903428423004,1.5239697437033938e+16,4.086109158559747e+16,1786616326506601.0,2172027547553256.8,21201297823263.727,46827878752983.82,836683335569161.0,2.075803776235818e+16
40.93981496991464,1.531033581214618e+16,4.153790940861989e+16,1794897571957016.2,2182095234342721.5,21776519797314.89,48098756631088.266,859390925965493.9,2.1321314587780044e+16
41.85861126931294,1.5380193622964722e+16,4.222671918582392e+16,1803087308444583.8,2192051671736678.0,22364434687013.445,49397697197132.52,882599957086692.5,2.1897024493707096e+16
42.7957834946992,1.5449272653323492e+16,4.2927768475467624e+16,1811185745095919.2,2201897113974743.8,22965282295913.79,50725231531803.05,906319919746586.0,2.248540252949919e+16
