t(s),Total solute volume 1,Total retention volume 1,Total 1 volume 1,Total 2 volume 1,Total 3 volume 1,Total 4 volume 1,Total 5 volume 1,Total 6 volume 1
0.1,1063829490026819.8,1368988609462191.8,135960145783138.03,169198973652234.8,0.0,0.0,0.0,0.0
0.202,1602171421705933.0,2061837183222790.8,204761630620787.6,254820690553414.97,72194105.85703066,165238951.95494658,3115636289.6117406,80087273309.75061
0.30604000000000003,2012304085031640.8,2589744539377506.5,257177640519834.34,320051094747966.5,183160047.5863585,419219692.9656841,7904645271.665877,203212053052.2886
0.41216080000000005,2359218641619401.0,3036335775159114.5,301514213633416.06,375226843177721.4,325330666.9177679,744622286.0041847,14040394890.161257,360966380732.5458
0.5204040160000001,2667293461009912.5,3432978301489939.0,340886968366432.3,424225244618945.4,495346164.0651068,1133756751.0261548,21377876626.38433,549620515108.5775
0.6308120963200001,2948678700432830.0,3795305459784353.0,376848726090163.9,468978746187736.06,691404120.9137112,1582497679.1121888,29839299694.222992,767173872127.4202
0.7434283382464002,3210437120255193.5,4132404769051295.0,410302125758264.6,510610659335592.9,912473906.8256159,2088486144.5085616,39380183220.67743,1012482558968.6599
0.8582969050113283,3457093521232555.5,4450098295015723.5,441825448552848.06,549840640430977.8,1157973876.8208497,2650390868.7543845,49975424074.04689,1284901010521.0908
0.9754628431115548,3691748659608733.0,4752375907457038.0,471814979102043.2,587161855712952.4,1427612322.5724564,3267544186.059061,61612432402.85765,1584105444401.0378
1.094972099973786,3916635299514607.0,5042110734196916.0,500556070407932.0,622929419805331.4,1721299392.3130972,3939740443.8455815,74287330184.14203,1909996099031.7896
1.2168715419732616,4133423503366252.5,5321451962746103.0,528262160745229.0,657408951264812.4,2039094165.8663256,4667114867.06331,88002667044.76982,2262638493730.586
1.3412089728127268,4343400700967473.0,5592056523125785.0,555097786956054.8,690805212046849.9,2381170889.8611493,5450066276.709883,102765963018.44928,2642225955219.4575
1.4680331522689813,4547584022934783.0,5855233618032876.0,581192940950757.1,723279973809392.9,2747796435.91515,6289205495.702974,118588735673.3742,3049054600329.689
1.597393815314361,4746793611173316.0,6112039044379770.0,606652438975417.8,754963677730338.0,3139314714.824245,7185319675.794358,135485827452.29285,3483506038851.814
1.729341691620648,4941702271133083.0,6363339075480331.0,631562267297975.8,785963331554092.2,3556135603.566134,8139346953.4983225,153474927779.42377,3946035084842.661
1.863928525453061,5132870162500706.0,6609855093467392.0,655994015767924.8,816368027044936.8,3998726912.916469,9152358065.432405,172576226395.81076,4437160842442.679
2.001207095962122,5320769685884787.0,6852195607873743.0,680008058398731.0,846252898141748.8,4467608470.327019,10225542805.110012,192812157986.18677,4957460139208.161
2.1412312378813647,5505803747236808.0,7090879754103426.0,703655887607845.8,875682025860890.9,4963347715.42599,11360199941.851324,214207212088.24246,5507562638131.905
2.284055862638992,5688319430333063.0,7326354884049031.0,726981861595074.5,904710612864577.5,5486556403.612756,12557729675.921864,236787790825.4848,6088147179402.494
2.4297369798917723,5868618411433345.0,7559009965339227.0,750024535362760.4,933386639881974.6,6037888139.030857,13819627991.967936,260582102434.6974,6699939042581.994
2.578331719489608,6046965015544960.0,7789185946418792.0,772817690327053.5,961752147034473.2,6618036540.4793005,15147482461.133785,285620082109.9712,7343707911194.891
2.7298983538794,6223592534564771.0,8017183885495428.0,795391141792736.1,989844238717780.1,7227733899.032626,16542969168.61122,311933334068.0593,8020266382993.816
2.884496320956988,6398708243773426.0,8243271404910545.0,817771380074073.4,1017695881460673.2,7867750224.038656,18007850530.11583,339555090375.4424,8730468911227.55
3.0421862473761276,6572497429419486.0,8467687873291794.0,839982085230450.9,1045336544500511.9,8538892600.712132,19543973821.55078,368520183223.3583,9475211091701.133
3.2030299723236504,6745126655151064.0,8690648608510159.0,862044544524740.4,1072792719299680.2,9242004801.48109,21153270289.46499,398865028154.3448,10255429231435.895
3.3670905717701234,6916746435628852.0,8912348318010833.0,883977994117911.5,1100088344775910.1,9977967106.977001,22837754741.34832,430627616336.66156,11072100149978.541
3.5344323832055258,7087493443414969.0,9132963938743508.0,905799901115116.9,1127245158301547.0,10747696302.668633,24599525537.944748,463847514419.1797,11926241175628.072
3.7051210308696363,7257492344759492.0,9352656999712248.0,927526198183936.4,1154282987680020.2,11552145824.682564,26440764927.027348,498565870824.92584,12818910307219.324
3.879223451487029,7426857337617665.0,9571575601489302.0,949171480116927.1,1181219995762995.8,12392306034.053102,28363739671.125317,534825427587.406,13751206518427.703
4.0568079205167695,7595693448725019.0,9789856085802548.0,970749169601169.6,1208072886746409.5,13269204602.999773,30370801931.66407,572670537021.8662,14724270186393.797
4.237944078927105,7764097634190278.0,1.000762445239391e+16,992271657876861.9,1234857081216537.8,14183907000.19699,32464390379.679596,612147182668.878,15739283630200.936
4.422702960505647,7932159718700800.0,1.0224997568299174e+16,1013750424770211.5,1261586865527878.5,15137517064.626612,34647031509.28573,653303004061.0199,16797471747655.291
4.61115701971576,8099963201272695.0,1.0442084205483308e+16,1035196141670349.4,1288275519955401.2,16131177659.673456,36921341134.803604,696187324952.7234,17900102741112.27
4.803380160110075,8267585949948634.0,1.0658985935653424e+16,1056618760313519.8,1314935429184147.8,17166071400.768707,39290026056.2294,740851184724.3093,19048488924919.805
4.9994477633122765,8435100803541236.0,1.087579790553201e+16,1078027589687417.2,1341578178014795.8,18243421451.203705,41755885880.734055,787347372728.19,20243987608511.543
5.199436718578522,8602576095141077.0,1.109260951152717e+16,1099431362936866.6,1368214634626083.8,19364492381.803955,44321814990.32843,835730465391.1329,21488002050365.484
5.403425452950093,8770076109436379.0,1.1309504989297658e+16,1120838295810452.1,1394855023310156.8,20530591091.01828,46990804647.808586,886056865923.9882,22781982479006.266
5.611493962009095,8937661483762324.0,1.1526563930973852e+16,1142256137915663.5,1421508988258303.2,21743067782.6928,49765945234.73411,938384846521.0271,24127427178020.656
5.823723841249277,9105389561092642.0,1.1743861740599264e+16,1163692217832104.5,1448185649703231.5,23003316999.38773,52650428616.53309,992774592956.3638,25525883632708.65
6.040198318074262,9273314701807650.0,1.1961470036586202e+16,1185153482956272.8,1474893653504867.8,24312778709.584114,55647550630.956184,1049288251506.2744,26978949736536.75
6.261002284435747,9441488559956712.0,1.2179457008541734e+16,1206646534808605.5,1501641215089090.8,25672939447.54184,58760713697.038605,1107989978143.8225,28488275056018.92
6.486222330124463,9609960328820054.0,1.2397887734646652e+16,1228177660416906.5,1528436158503626.5,27085333504.916023,61993429542.53168,1168945989967.3499,30055562153033.168
6.715946776726952,9778776959826438.0,1.2616824464806294e+16,1249752860294606.8,1555285951236278.2,28551544173.537045,65349322048.43885,1232224618837.075,31682567963915.355
6.950265712261491,9947983358266180.0,1.2836326873999422e+16,1271377873453360.8,1582197735342477.2,30073205039.012054,68832130209.87755,1297896367205.1807,33371105234949.15
7.18927102650672,1.011762255872672e+16,1.3056452289591558e+16,1293058199824199.5,1609178355347841.5,31652001325.027477,72445711212.98509,1366033966133.9639,35123044014119.215
7.433056447036854,1.0287735882752998e+16,1.3277255895833102e+16,1314799120406894.2,1636234383323555.5,33289671288.421413,76194043628.03212,1436712435505.305,36940313199204.44
7.681717575977592,1.045836308087744e+16,1.3498790918302378e+16,1336605715421788.8,1663372141475853.2,34988007665.26487,80081230719.28917,1510009146431.5278,38824902142474.92
7.935351927497144,1.0629542460866916e+16,1.3721108790671648e+16,1358482880700068.8,1690597722543323.8,36748859168.338806,84111503872.52827,1586003885884.4897,40778862312423.6
8.194058966047088,1.0801311003780816e+16,1.3944259305847596e+16,1380435342516299.2,1717917008255596.5,38574132036.52608,88289226141.35419,1664778923565.2588,42804309013108.18
8.45794014536803,1.0973704469221876e+16,1.4168290753265156e+16,1402467671039723.2,1745335686073183.0,40465791636.757835,92618895913.82489,1746419081041.9995,44903423161812.66
8.72709894827539,1.1146757490979578e+16,1.4393250043880486e+16,1424584292557781.8,1772859264399275.2,42425864119.26194,97105150701.07324,1831011803188.3262,47078453125859.38
9.0016409272409,1.1320503664112764e+16,1.4619182824208856e+16,1446789500605443.8,1800493086430007.2,44456438126.960236,101752771049.86787,1918647231958.6675,49331716619508.21
9.281673745785717,1.1494975624385322e+16,1.484613358058672e+16,1469087466117310.5,1828242342788415.2,46559666559.95113,106566684581.25935,2009418282541.0884,51665602661986.86
9.567307220701432,1.1670205120855592e+16,1.5074145734688238e+16,1491482246704750.2,1856112083069635.2,48737768396.102165,111551970157.65468,2103420721931.7632,54082573597785.336
9.85865336511546,1.184622308232387e+16,1.5303261731204186e+16,1513977795148036.0,1884107226409139.5,50993030568.85292,116713862180.83974,2200753249978.6084,56585167180437.62
10.155826432417769,1.2023059678257168e+16,1.5533523118481492e+16,1536577967182686.8,1912232571172660.5,53327809903.4067,122057755023.64423,2301517582944.9165,59175998721097.76
10.458942961066125,1.220074437473862e+16,1.5764970622829004e+16,1559286528649962.2,1940492803854778.0,55744535112.557686,127589207598.10924,2405818539646.8804,61857763303294.516
10.768121820287448,1.2379305985925266e+16,1.5997644217114178e+16,1582107162073287.0,1968892507263132.5,58245708853.47238,133313948063.17012,2513764130221.774,64633238065327.04
11.083484256693197,1.2558772721444122e+16,1.6231583184204232e+16,1605043472715582.2,1997436168056611.0,60833909846.80409,139237878675.01196,2625465647586.516,67505284551832.85
11.405153941827061,1.2739172230106698e+16,1.6466826175744488e+16,1628098994166114.0,2026128183698044.5,63511795059.588295,145367080783.41525,2741037761648.839,70476851136133.89
11.733257020663602,1.2920531640283146e+16,1.670341126671239e+16,1651277193500402.8,2054972868875586.2,66282101953.4256,151707819977.5324,2860598616336.3735,73550975515032.61
12.067922161076874,1.310287759723755e+16,1.6941376006139596e+16,1674581476051772.5,2083974461440776.8,69147650799.51833,158266551384.69543,2984269929511.0264,76730787277799.1
12.409280604298411,1.3286236297696454e+16,1.7180757464351482e+16,1698015189829288.2,2113137127906560.2,72111347062.19026,165049925125.95782,3112177095839.046,80019510551150.72
12.75746621638438,1.3470633490627332e+16,1.742159227811949e+16,1721581625625844.5,2142464963614314.2,75176183698.19257,172064791927.80365,3244449472377.8765,83420507803982.1
13.112615540712067,1.365609463198535e+16,1.766391668852937e+16,1745284036760833.2,2171962017172976.2,78345244295.17305,179318208919.06052,3381219773422.769,86937119383556.33
13.474867851526309,1.3842644724827848e+16,1.7907766582947014e+16,1769125618697930.8,2201632265289191.0,81621704758.1568,186817445557.75064,3522625247145.4404,90572909734569.95
13.844365208556836,1.4030308470053358e+16,1.8153177529985264e+16,1793109528275543.8,2231479636568835.2,85008836588.97414,194569989768.08435,3668807085847.642,94331509175299.7
14.221252512727972,1.421911025902681e+16,1.8400184813460456e+16,1817238882772876.2,2261508010387365.0,88510009488.41748,202583554236.63635,3819910719952.1113,98216656989664.58
14.605677562982532,1.440907419585411e+16,1.8648823464334676e+16,1841516762756695.2,2291721220432515.0,92128694188.05211,210866082893.99365,3976085940223.094,102232204574070.88
14.997791114242183,1.4600224118154578e+16,1.8899128290815572e+16,1865946214736103.8,2322123058008129.0,95868465363.5326,219425757582.9542,4137487023502.331,106382118670319.86
15.397746936527026,1.4792583616446282e+16,1.9151133906766452e+16,1890530253640003.8,2352717275117287.5,99733004631.49155,228271004918.0303,4304272862052.1206,110670484691261.5
15.805701875257567,1.4986176052249044e+16,1.9404874758566576e+16,1915271865130765.8,2383507587341604.5,103726103632.15791,237410503341.1657,4476607096598.368,115101510141580.12
16.221815912762718,1.5181024575003462e+16,1.9660385150548896e+16,1940174007766469.0,2414497676532073.0,107851667199.89784,246853190378.70865,4654658253168.434,119679528136152.98
16.64625223101797,1.5377152137892096e+16,1.9917699269129532e+16,1965239615022912.5,2445691193325458.5,112113716623.95192,256608270104.83362,4838599883821.849,124409001018501.36
17.079177275638333,1.557458151264345e+16,2.017685120573493e+16,1990471597185606.8,2477091759498759.5,116516393001.68442,266685220816.71613,5028610711373.968,129294524081905.27
17.5207608211511,1.5773335303391172e+16,2.0437874978623372e+16,2015872843121002.8,2508702970173501.5,121063960686.73334,277093802926.929,5224874778215.317,134340829395833.5
17.97117603757412,1.5973435959654646e+16,2.0700804553687988e+16,2041446221935446.2,2540528395880279.5,125760810834.4997,287844067078.6418,5427581599332.386,139552789740391.06
18.430599558325603,1.6174905788501528e+16,2.0965673864322996e+16,2067194584529600.8,2572571584493162.0,130611465047.48589,298946362489.36334,5636926319637.861,144935422651575.84
18.899211549492115,1.6377766965947714e+16,2.1232516830426424e+16,2093120765055370.5,2604836063042778.5,135620579123.04482,310411345529.1011,5853109875720.807,150493894580184.1
19.37719578048196,1.6582041547645118e+16,2.1501367376608076e+16,2119227582281819.0,2637325339416268.5,140792946906.17245,322249988538.956,6076339162130.811,156233525167284.7
19.864739696091597,1.678775147890333e+16,2.177225944966514e+16,2145517840875996.0,2670042903951109.5,146133504250.03528,334473588896.31506,6306827202311.836,162159791639247.78
20.36203449001343,1.6994918604088126e+16,2.2045227035383324e+16,2171994332604068.0,2702992230929993.5,151647333086.9894,347093778332.94946,6544793324305.022,168278333325400.78
20.869275179813698,1.7203564675435452e+16,2.2320304174716676e+16,2198659837457769.0,2736176779982596.0,157339665612.90973,360122532512.48413,6790463341342.062,174594956301416.22
21.38666068340997,1.741371136131634e+16,2.2597524979395744e+16,2225517124710682.0,2769599997400149.0,163215888587.72327,373572180873.83246,7044069737453.872,181115638161662.7
21.91439389707817,1.7625380253986116e+16,2.2876923647009124e+16,2252568953908595.0,2803265317367892.0,169281547755.08688,387455416747.3744,7305851858221.867,187846532923775.25
22.452681775019734,1.7838592876847444e+16,2.3158534475601224e+16,2279818075797781.5,2837176163120251.5,175542352384.24326,401785307750.76324,7576056106802.249,194793976068806.34
23.00173541052013,1.8053370691255428e+16,2.3442391877825412e+16,2307267233194632.0,2871335948023191.5,182004179937.13025,416575306471.45593,7854936145356.725,201964489720381.0
23.561770118730532,1.826973510288995e+16,2.3728530394688456e+16,2334919161800150.0,2905748076587650.0,188673080863.90848,431839261443.17957,8142753102025.387,209364787966357.4
24.133005521105144,1.848770746771874e+16,2.4016984708920836e+16,2362776590961963.0,2940415945418040.5,195555283530.12408,447591428423.6984,8439775783581.524,217001782326567.16
24.715665631527248,1.870730909757317e+16,2.4307789658004576e+16,2390842244386961.5,2975342944098989.0,202657199278.80722,463846481981.45667,8746280893910.082,224882587370297.9
25.309978944157795,1.8928561265355876e+16,2.4600980246887076e+16,2419118840806855.5,3010532456023628.0,209985427630.8646,480619527398.76044,9062553258455.29,233014526487239.28
25.91617852304095,1.9151485209899624e+16,2.489659166041015e+16,2447609094599140.0,3045987859166372.0,217546761627.20862,497926112899.4001,9388886054785.488,241405137815720.1
26.53450209350177,1.937610214049336e+16,2.519465927547876e+16,2476315716365509.0,3081712526802806.0,225348193316.1245,515782242208.7105,9725581049426.916,250062180332103.88
27.165192135371807,1.96024332410918e+16,2.5495218672994156e+16,2505241413469916.0,3117709828179129.5,233396919389.45312,534204387454.27734,10072948841120.277,258993640105335.28
27.808495978079243,1.9830499674222348e+16,2.5798305649574424e+16,2534388890537804.0,3153983129133618.0,241700346971.25284,553209502415.652,10431309110658.451,268207736720667.97
28.464665897640828,2.0060322584602744e+16,2.6103956229083184e+16,2563760849918550.5,3190535792672003.5,250266099562.6495,572815036131.5868,10800990877465.611,277712929876712.62
29.133959215593645,2.0291923102482604e+16,2.641220667398689e+16,2593359992112403.5,3227371179498842.0,259102023146.67825,593038946873.4996,11182332763081.707,287517926160014.6
29.816638399905518,2.052532234671787e+16,2.6723093496560108e+16,2623189016163527.5,3264492648506602.5,268216192457.00354,613899716494.0267,11575683261719.816,297631686001444.2
30.51297116790363,2.0760541427591372e+16,2.7036653469955396e+16,2653250620020391.5,3301903557224221.5,277616917414.43414,635416365159.6901,11981401018065.959,308063430818777.6
31.223230591261704,2.0997601449386836e+16,2.7352923639156732e+16,2683547500864764.0,3339607262226474.0,287312749735.284,657608466476.8962,12399855112495.586,318822650349917.1
31.947695203086937,2.123652351272592e+16,2.7671941331830024e+16,2714082355410414.5,3377607119505725.0,297312489715.6494,680496163020.6241,12831425353883.0,329919110181286.1
32.686649107148675,2.1477328716676836e+16,2.7993744169088276e+16,2744857880172543.5,3415906484807234.5,307625193195.79004,704100182275.3593,13276502580183.697,341362859475995.44
33.44038208929165,2.1720038160640576e+16,2.8318370076183944e+16,2775876771708914.5,3454508713929223.5,318260178708.8431,728441852997.9807,13735488966972.871,353164238906503.0
34.20918973107749,2.1964672946023268e+16,2.8645857293143e+16,2807141726833516.5,3493417162988775.0,329227034818.1914,753543122012.4733,14208798344125.705,365333888796501.06
34.993373525699035,2.221125417769876e+16,2.8976244385353704e+16,2838655442803552.5,3532635188654543.0,340535627647.8793,779426571446.532,14696856520829.955,377882757476904.75
35.793240996213015,2.245980296526853e+16,2.9309570254121084e+16,2870420617480427.0,3572166148347097.5,352196108610.5323,806115436420.2585,15200101619122.02,390822109860857.2
36.60910581613728,2.2710340424122964e+16,2.9645874147200412e+16,2902439949465368.0,3612013400407672.0,364218922337.3146,833633623197.3245,15718984416142.895,404163536242750.6
37.44128793246003,2.2962887676308176e+16,2.9985195669318784e+16,2934716138210218.0,3652180304236123.5,376614814814.5248,862005727809.1451,16253968695312.025,417918961326332.94
38.29011369110923,2.3217465851202496e+16,3.0327574792695376e+16,2967251884103911.0,3692670220398432.0,389394841731.5027,891257055162.7428,16805531606620.818,432100653487046.25
39.15591596493141,2.347409608600503e+16,3.0673051867570144e+16,3000049888534900.0,3733486510704455.5,402570377044.5708,921413638643.1351,17374164036249.43,446721234273801.44
40.03903428423004,2.3732799526038744e+16,3.1021667632747816e+16,3033112853929831.5,3774632538256110.0,416153121761.8213,952502260221.2251,17960370985713.79,461793688155453.44
40.93981496991464,2.399359732486913e+16,3.137346322616635e+16,3066443483768843.5,3816111667466276.5,430155112953.57227,984550471078.2953,18564671960752.152,477331372517321.1
41.85861126931294,2.425651064423935e+16,3.1728480195493988e+16,3100044482577162.5,3857927264048460.5,444588732993.418,1017586612758.314,19187601370161.91,493348027913099.9
42.7957834946992,2.452156065382115e+16,3.2086760508761876e+16,3133918555893292.0,3900082694977136.0,459466719034.8043,1051639838859.383,19829708934800.348,509857788577615.0
43.751699164593184,2.4788768530778904e+16,3.244834656503356e+16,3168068410213344.0,3942581328418506.5,474802172728.1059,1086740137275.7242,20491560106963.44,526875193205841.6
