t(s),Total solute volume 1,Total retention volume 1,Total 1 volume 1,Total 2 volume 1,Total 3 volume 1,Total 4 volume 1,Total 5 volume 1,Total 6 volume 1
0.1,1117071271046687.6,1512117690109863.2,171218609237430.47,223827809825744.56,0.0,0.0,0.0,0.0
0.202,1682051306616648.8,2276906788547175.0,257815678124831.7,337032989872472.25,4546399.907859931,11224413.150244111,237053419.35243735,6561108990.0351
0.30604000000000003,2112592619937631.5,2859717269661631.0,323806709767003.4,423300648553562.4,11534247.28864534,28476437.84558445,601423275.8025271,16649969474.514452
0.41216080000000005,2476809457184992.5,3352750916750338.0,379631886245725.6,496278856779493.6,20487383.705157727,50580493.73947002,1068273562.5954615,29577198686.99271
0.5204040160000001,2800277309200401.5,3790627542790437.0,429211279807229.25,561092181695661.9,31194417.40452832,77014682.22214209,1626580448.564231,45037297595.44474
0.6308120963200001,3095745608258854.0,4190605180317121.0,474499054124692.4,620295229954282.4,43541999.223705396,107499159.30963056,2270433096.2425747,62866505039.41445
0.7434283382464002,3370626137831098.5,4562716654247264.0,516631247073764.7,675373102275744.1,57465372.89171547,141874050.44539806,2996454681.309811,82971272553.58868
0.8582969050113283,3629667577276022.5,4913389934902919.0,556335710408656.44,727277292603307.9,72928054.75092325,180049282.36943504,3802742702.0219073,105298894896.59885
0.9754628431115548,3876124258990490.5,5247030205020821.0,594111250505274.9,776659872242941.0,89911821.6638085,221979864.5844039,4688346870.96845,129823043550.86662
1.094972099973786,4112339644827085.5,5566809671247713.0,630317060454690.2,823990401165818.2,108411166.58346656,267652200.89964467,5652979990.176574,156535756768.02942
1.2168715419732616,4340066688936850.0,5875101216635640.0,665221823538032.1,869620119183349.6,128429967.27562633,317075864.9532427,6696844236.911302,185442627351.14395
1.3412089728127268,4560656803123209.0,6173734189420435.0,699032676808586.8,913819808977492.1,149979361.27007568,370278353.7535589,7820520350.707401,216559733081.21088
1.4680331522689813,4775177742682996.0,6464153976448016.0,731913279992576.9,956803416913039.1,173076327.36797863,427301585.6125008,9024893664.846664,249911587826.26224
1.597393815314361,4984490541709564.0,6747526144775562.0,763995607714138.4,998743468581450.8,197742705.08502227,488199479.28342694,10311102974.535381,285529725252.0111
1.729341691620648,5189301621034117.0,7024806976269906.0,795387936317252.8,1039781509680627.8,224004498.22331908,553036234.5745994,11680504221.257393,323451692941.5283
1.863928525453061,5390199194995506.0,7296792748684072.0,826180424097461.6,1080035400847449.4,251891369.89289,621885085.6257801,13134644160.42081,363720323044.9034
2.001207095962122,5587679389440612.0,7564155089594853.0,856449114526977.9,1119604550927319.9,281436270.7301539,694827383.030198,14675240974.651602,406383195313.89624
2.1412312378813647,5782165409964941.0,7827466922976701.0,886258874258362.4,1158573757718753.2,312675162.37690693,771951911.14173,16304169854.4976,451492237724.5491
2.284055862638992,5974021891098336.0,8087221892592273.0,915665592489706.5,1197016083122913.5,345646810.75537974,853354377.699162,18023452218.681015,499103427906.8903
2.4297369798917723,6163565826524430.0,8343849157395102.0,944717856289223.8,1234995043234080.8,380392631.59537226,939137032.4536977,19835247659.054256,549276570041.61865
2.578331719489608,6351075024245761.0,8597724836648043.0,973458246557008.1,1272566302502982.8,416956575.8491889,1029408384.2740418,21741847965.51677,602075129365.4689
2.7298983538794,6536794737648918.0,8849180985904556.0,1001924354398618.9,1309779002404751.0,455385046.1058776,1124282994.7845416,23745672767.39831,657566111447.3375
2.884496320956988,6720942930535131.0,9098512723901244.0,1030149588120357.1,1346676816394283.5,495726837.50226074,1223881332.4825883,25849266452.230583,715819976843.5482
3.0421862473761276,6903714504326244.0,9345983954634180.0,1058163821152419.4,1383298796912444.2,538033098.2996916,1328329675.407983,28055296109.991104,776910584154.7777
3.2030299723236504,7085284726472292.0,9591832008169550.0,1085993917536542.0,1419680062336821.0,582357306.4878619,1437760053.380945,30366550313.07837,840915156229.3629
3.3670905717701234,7265812036722646.0,9836271439323146.0,1113664162056017.5,1455852359274914.8,628755259.6417075,1552310222.9602096,32785938587.369606,907914265506.6781
3.5344323832055258,7445440363595216.0,1.0079497163337918e+16,1141196615291477.5,1491844526715587.2,677285075.893971,1672123669.844127,35316491462.90484,977991835413.5367
3.7051210308696363,7624301051396330.0,1.0321687064400074e+16,1168611408984032.8,1527682882146437.8,728007204.3610082,1797349634.6106164,37961361017.50943,1051235155412.7345
3.879223451487029,7802514474753448.0,1.0563004181170848e+16,1195926993502048.5,1563391545058096.0,780984443.7183411,1928143158.57762,40723821845.383286,1127734907821.0732
4.0568079205167695,7980191400299779.0,1.0803598550062248e+16,1223160346552784.5,1598992709785271.0,836281967.8968297,2064665147.243501,43607272396.99484,1207585204910.6763
4.237944078927105,8157434142170906.0,1.1043608769416968e+16,1250327150290631.0,1634506877033860.2,893967358.0824269,2207082449.2900796,46615236647.673584,1290883635113.5142
4.422702960505647,8334337548145058.0,1.1283163334448482e+16,1277441942467300.5,1669953051474086.2,954110640.3679615,2355567949.5397463,49751366060.925644,1377731317388.1775
4.61115701971576,8510989845741236.0,1.1522381782621584e+16,1304518246117177.2,1705348911273368.8,1016784328.5358505,2510300674.580165,53019441819.301796,1468232962996.3772
4.803380160110075,8687473371787139.0,1.1761375681299454e+16,1331568681381530.8,1740710954280024.0,1082063471.5543723,2671465910.0261045,56423377301.050735,1562496944086.245
4.9994477633122765,8863865204450751.0,1.2000249483367552e+16,1358605062382825.0,1776054624663551.0,1150025705.453329,2839255328.5934086,59967220785.13567,1660635368600.0442
5.199436718578522,9040237713182928.0,1.2239101271744626e+16,1385638481516999.0,1811394423106768.0,1220751309.3122053,3013867128.3261166,63655158370.694984,1762764161120.5498
5.403425452950093,9216659039214468.0,1.2478023409894904e+16,1412679383101400.0,1846744003083109.0,1294323265.1487892,3195506180.453346,67491517099.890884,1869003149350.1775
5.611493962009095,9393193517017220.0,1.2717103112431886e+16,1439737627974049.8,1882116255304860.5,1370827321.5413413,3384384186.463711,71480768275.44113,1979476155981.5217
5.823723841249277,9569902045347408.0,1.2956422947480488e+16,1466822550365188.5,1917523382069246.5,1450352060.854548,3580719844.077187,75627530966.0731,2094311095772.1616
6.040198318074262,9746842415045462.0,1.319606128050712e+16,1493943008140605.2,1952976962939689.0,1532988969.9709942,3784739021.8713245,79936575694.76357,2213640077681.474
6.261002284435747,9924069599592284.0,1.3436092667741246e+16,1521107427336527.5,1988488012964666.2,1618832514.4555836,3996674942.3832874,84412828305.99669,2337599511965.069
6.486222330124463,1.0101636013465628e+16,1.3676588206014134e+16,1548323841759115.0,2024067034444636.8,1707980216.1030521,4216768373.5639734,89061374009.42587,2466330222154.3784
6.715946776726952,1.0279591742554222e+16,1.3917615844779496e+16,1575599928301056.2,2059724063100171.0,1800532733.8372264,4445267828.507409,93887461598.31229,2599977561876.547
6.950265712261491,1.0457984750239598e+16,1.4159240665200914e+16,1602943038528683.0,2095468709364595.5,1896593947.9473667,4682429773.418735,98896507841.9736,2738691536493.0654
7.18927102650672,1.063686106221845e+16,1.4401525130467342e+16,1630360227010516.8,2131310195416885.8,1996271047.660752,4928518843.819066,104094102052.20146,2882626929556.2124
7.433056447036854,1.0816264932691184e+16,1.464452931088954e+16,1657858276789771.5,2167257388480947.5,2099674622.0634406,5183808069.016492,109486010824.26474,3031943434100.3823
7.681717575977592,1.0996238994169698e+16,1.4888311086827916e+16,1685443722346056.8,2203318830842562.5,2206918754.391724,5448579104.8988695,115078182953.67778,3186805788800.825
7.935351927497144,1.1176824392841674e+16,1.5132926332074614e+16,1713122870343306.2,2239502766972442.2,2318121119.7268066,5723122475.128705,120876754530.42792,3347383919046.7573
8.194058966047088,1.1358060911166856e+16,1.5378429079956386e+16,1740901818420618.8,2275817168090804.5,2433403086.133905,6007737820.841863,126888054212.8076,3513853082988.415
8.45794014536803,1.1539987079154102e+16,1.5624871674121674e+16,1768786472248266.5,2312269754464015.0,2552889819.294812,6302734158.971195,133118608683.41638,3686394022628.757
8.72709894827539,1.1722640275580664e+16,1.5872304905717468e+16,1796782561041979.2,2348868015685923.0,2676710390.6904073,6608430149.3343935,139575148290.26868,3865193120041.4185
9.0016409272409,1.1906056820251486e+16,1.6120778138443234e+16,1824895651703963.2,2385619229163822.5,2804997889.3961587,6925154370.642029,146264612876.30035,4050442558805.962
9.281673745785717,1.2090272058258256e+16,1.6370339422781248e+16,1853131161737705.0,2422530477001549.0,2937889537.5599203,7253245605.596489,153194157800.88715,4242340490760.521
9.567307220701432,1.2275320437080364e+16,1.6621035600542312e+16,1881494371065528.5,2459608661448137.0,3075526809.6372237,7593053135.267747,160371160157.29422,4441091208180.327
9.85865336511546,1.2461235577265888e+16,1.687291240072757e+16,1909990432862236.0,2496860519060187.0,3218055555.4647183,7944937042.94502,167803225190.26373,4646905321498.681
10.155826432417769,1.2648050337344276e+16,1.712601452758762e+16,1938624383504572.5,2534292633708526.0,3365626127.257711,8309268527.676541,175498192918.22794,4859999942694.557
10.458942961066125,1.2835796873545602e+16,1.7380385741657424e+16,1967401151724623.5,2571911448544031.0,3518393510.6229806,8686430227.722303,183464144964.88455,5080598874478.107
10.768121820287448,1.3024506694834602e+16,1.7636068934455702e+16,1996325567045175.0,2609723277024924.5,3676517459.6825633,9076816554.15652,191709411605.1503,5308932805412.907
11.083484256693197,1.3214210713711186e+16,1.7893106197459792e+16,2025402367566141.5,2647734313095628.5,3840162636.4094396,9480834034.86844,200242579030.7291,5545239511120.052
11.405153941827061,1.3404939293178156e+16,1.815153888589837e+16,2054636207163493.0,2685950640597699.5,4009498754.2803144,9898901669.221762,209072496840.8054,5789764061716.351
11.733257020663602,1.3596722290233456e+16,1.8411407677846804e+16,2084031662155529.5,2724378241984390.5,4184700726.35557,10331451293.643894,218208285763.5766,6042759035645.614
12.067922161076874,1.3789589096205602e+16,1.867275262905602e+16,2113593237485275.5,2763023006402686.5,4365948817.900829,10778927958.428005,227659345614.6175,6304484740067.909
12.409280604298411,1.3983568674217422e+16,1.8935613223900616e+16,2143325372462711.2,2801890737199890.0,4553428803.669168,11241790316.041334,237435363498.26202,6575209437979.168
12.75746621638438,1.4178689594033406e+16,1.9200028422793036e+16,2173232446105995.5,2840987158906006.5,4747332129.967413,11720511021.245337,247546322258.454,6855209582239.111
13.112615540712067,1.437498006451977e+16,1.9466036706373428e+16,2203318782116760.8,2880317923737766.0,4947856081.6346655,12215577143.342867,258002509185.74167,7144770056692.509
13.474867851526309,1.4572467963923328e+16,1.9733676116754212e+16,2233588653521101.0,2919888617665656.0,5155203954.065424,12727490590.8799,268814524987.32336,7444184424575.057
13.844365208556836,1.4771180868154732e+16,2.000298429607155e+16,2264046287004646.5,2959704766080945.0,5369585230.414512,13256768549.140833,279993293027.28455,7753755184401.84
14.221252512727972,1.497114607724316e+16,2.027399852256921e+16,2294695866967437.5,2999771839096506.0,5591215764.125217,13803943930.785667,291550068844.42725,8073794033542.966
14.605677562982532,1.5172390640113924e+16,2.054675574442052e+16,2325541539321664.5,3040095256511475.0,5820317966.927247,14369565839.991627,303496449955.3059,8404622139697.408
14.997791114242183,1.537494137782571e+16,2.0821292611473812e+16,2356587415053377.5,3080680392467279.5,6057121002.455189,14954200050.471008,315844385950.35016,8746570420483.226
15.397746936527026,1.5578824905391348e+16,2.1097645505089056e+16,2387837573567022.0,3121532579819917.5,6301860985.643226,15558429497.749863,328606188891.18146,9099979831368.951
15.805701875257567,1.578406765229471e+16,2.137585056621792e+16,2419296065830176.5,3162657114250886.5,6554781188.056859,16182854786.104126,341794544017.5181,9465201662177.93
16.221815912762718,1.5990695881805496e+16,2.165594372186698e+16,2450966917334025.0,3204059258137342.5,6816132249.3265915,16828094710.561377,355422520772.25745,9842597842404.555
16.64625223101797,1.6198735709186002e+16,2.193796071006907e+16,2482854130883969.0,3245744244200140.5,7086172394.85474,17494786794.389187,369503584153.66754,10232541255588.465
17.079177275638333,1.640821311887332e+16,2.2221937103478104e+16,2514961689233229.5,3287717278946654.5,7365167659.970133,18183587842.503113,384051606403.8109,10635416063000.28
17.5207608211511,1.6619153980715116e+16,2.250790833169307e+16,2547293557571408.0,3329983545923992.0,7653392120.711872,18895174511.24057,399080879042.6202,11051618036899.6
17.97117603757412,1.6831584065329772e+16,2.279590970240611e+16,2579853685878764.0,3372548208796622.0,7951128131.428081,19630243894.960255,414606125257.352,11481554903634.01
18.430599558325603,1.7045529058654674e+16,2.3085976421462464e+16,2612646011156099.0,3415416414261484.0,8258666569.380779,20389514129.93907,430642512657.3643,11925646696855.576
18.899211549492115,1.7261014575742602e+16,2.3378143611914e+16,2645674459539444.0,3458593294812350.5,8576307086.554158,21173725016.052097,447205666404.51556,12384326121138.627
19.37719578048196,1.7478066173860292e+16,2.3672446332138444e+16,2678942948307683.0,3502083971364392.5,8904358368.868366,21983638656.737427,464311682729.7136,12858038926292.016
19.864739696091597,1.7696709364938582e+16,2.3968919593092356e+16,2712455387790847.5,3545893555748823.5,9243138403.007446,22820040117.75808,481977142846.5106,13347244292665.928
20.36203449001343,1.791696962742046e+16,2.4267598374761372e+16,2746215683186137.0,3590027153086866.5,9592974751.07526,23683738105.29076,500219127272.87695,13852415227762.895
20.869275179813698,1.8138872417548396e+16,2.45685176418634e+16,2780227736287988.5,3634489864051448.5,9954204833.299774,24575565663.88465,519055230572.65356,14374038974470.676
21.38666068340997,1.836244318013055e+16,2.4871712358858076e+16,2814495447138251.5,3679286787024388.5,10327176219.011805,25496380894.8491,538503576528.4735,14912617431243.932
21.91439389707817,1.858770735882076e+16,2.5177217504311764e+16,2849022715601825.5,3724423020156225.5,10712246926.13087,26447067695.644234,558582833758.2903,15468667584570.502
22.452681775019734,1.88146904059458e+16,2.5485068084662096e+16,2883813442872977.0,3769903663335261.5,11109785729.397352,27428536520.864307,579312231787.9546,16042721954066.934
23.00173541052013,1.904341779190989e+16,2.5795299147424412e+16,2918871532916764.5,3815733820072035.0,11520172477.595953,28441725165.42064,600711577592.6671,16635329050558.941
23.561770118730532,1.927391501420492e+16,2.610794579387777e+16,2954200893850114.0,3861918599304601.5,11943798420.023321,29487599570.546143,622801272620.4412,17247053847509.691
24.133005521105144,1.9506207606052536e+16,2.642304319126685e+16,2989805439266414.0,3908463117130223.5,12381066542.458689,30567154653.2618,645602330311.1122,17878478266171.08
24.715665631527248,1.9740321144701452e+16,2.6740626584552652e+16,3025689089507258.5,3955372498467855.5,12832391912.903591,31681415159.962208,669136394124.7328,18530201674841.992
25.309978944157795,1.997628125940304e+16,2.7060731307741468e+16,3061855772884936.0,4002651878656242.5,13298202037.364313,32831436544.7947,693425756093.6569,19202841402628.305
25.91617852304095,2.0214113639085544e+16,2.7383392794822944e+16,3098309426858706.5,4050306404991609.0,13778937225.95751,34018305873.52517,718493375912.9178,19897033268109.883
26.53450209350177,2.0453844039746436e+16,2.7708646590340708e+16,3135053999167807.0,4098341238208856.5,14275050969.62712,35243142753.60231,744362900583.9136,20613432123330.418
27.165192135371807,2.06954982915804e+16,2.8036528359622956e+16,3172093448924037.5,4146761553909760.0,14787010327.769064,36507100291.15038,771058684626.8898,21352712413538.24
27.808495978079243,2.0939102305859556e+16,2.836707389869387e+16,3209431747666303.0,4195572543941676.0,15315296327.066446,37811366075.64182,798605810877.9834,22115568753115.496
28.464665897640828,2.1184682081582084e+16,2.870031914388896e+16,3247072880379673.0,4244779417729561.0,15860404371.84831,39157163193.016655,827030111887.1342,22902716518146.21
29.133959215593645,2.1432263711902532e+16,2.903630018119202e+16,3285020846480985.0,4294387403564571.5,16422844666.290648,40545751268.0418,856358191933.5426,23714892456086.2
29.816638399905518,2.1681873390357932e+16,2.937505325531546e+16,3323279660773195.5,4344401749851467.5,17003142648.78925,41978427536.719124,886617449675.7848,24552855313006.418
30.51297116790363,2.1933537416902348e+16,2.9716614778538196e+16,3361853354370240.0,4394827726317870.0,17601839438.84029,43456527949.57498,917836101454.1505,25417386478898.844
31.223230591261704,2.2187282203760724e+16,3.0061021339319564e+16,3400745975594363.0,4445670625187116.0,18219492296.775486,44981428306.68436,950043205263.2615,26309290651541.9
31.947695203086937,2.244313428111402e+16,3.040830971070428e+16,3439961590847448.5,4496935762317413.0,18856675096.70522,46554545425.305984,983268685413.4222,27229396519437.51
32.686649107148675,2.27011203026249e+16,3.0758516858531292e+16,3479504285457975.5,4548628478309024.0,19513978813.035053,48177338341.025314,1017543357899.7065,28178557464345.27
33.44038208929165,2.2961267050813716e+16,3.1111679949462216e+16,3519378164505029.5,4600754139581438.0,20192012020.927166,49851309543.32897,1052898956498.2332,29157652283951.215
34.20918973107749,2.3223601442293884e+16,3.146783635883959e+16,3559587353620779.0,4653318139422439.0,20891401411.090534,51578006246.553116,1089368159609.5502,30167585935222.96
34.993373525699035,2.348815053287529e+16,3.182702367838941e+16,3600135999772625.0,4706325899010610.0,21612792319.292423,53359021697.17654,1126984617869.6309,31209290299017.168
35.793240996213015,2.3754941522542136e+16,3.218927972377603e+16,3641028272026269.5,4759782868412778.0,22356849270.992126,55195996518.45037,1165782982549.4478,32283724966518.81
36.60910581613728,2.4024001760314456e+16,3.255464254202291e+16,3682268362290798.0,4813694527558149.0,23124256541.512196,57090620093.38506,1205798934764.6077,33391878048106.516
37.44128793246003,2.4295358748998604e+16,3.2923150418807004e+16,3723860486046818.5,4868066387190047.0,23915718732.166187,59044631987.13584,1247069215517.1104,34534767005251.434
38.29011369110923,2.4569040149833684e+16,3.3294841885636776e+16,3765808883058644.5,4922903989797048.0,24731961362.780857,61059823409.858986,1289631656591.8276,35713439506075.24
39.15591596493141,2.484507378703955e+16,3.3669755726923044e+16,3808117818071436.0,4978212910524230.0,25573731481.052677,63138038721.13463,1333525212330.8376,36928974305203.34
40.03903428423004,2.5123487652273092e+16,3.4047930986949384e+16,3850791581494121.0,5033998758066028.0,26441798289.19694,65281176977.07879,1378789992309.307,38182482148568.586
40.93981496991464,2.5404309908995656e+16,3.4429406976752044e+16,3893834490068925.5,5090267175541378.0,27336953788.353615,67491193521.29749,1425467294937.2935,39475106703833.77
41.85861126931294,2.568756889675883e+16,3.4814223280913756e+16,3937250887528238.5,5147023841352484.0,28260013441.228703,69770101620.85919,1473599642012.2275,40808025517117.8
42.7957834946992,2.5973293135411596e+16,3.5202419764280732e+16,3981045145239419.0,5204274470027721.0,29211816853.459084,72119974148.49498,1523230814247.6863,42182450996726.46
43.751699164593184,2.626151132923295e+16,3.559403657860725e+16,4025221662838269.5,5262024813049783.0,30193228474.20184,74542945312.26027,1574405887804.4028,43599631424604.18
