t(s),Total solute volume 1,Total retention volume 1,Total 1 volume 1,Total 2 volume 1,Total 3 volume 1,Total 4 volume 1,Total 5 volume 1,Total 6 volume 1
0.1,1012905215437994.5,1251976985692815.0,109237715628389.53,129834054626431.92,0.0,0.0,0.0,0.0
0.202,1525084043380334.0,1886445783459869.2,164474123611185.9,195485070664091.88,1547833860.9655259,3300755537.130363,55976419372.5449,1341720795486.9497
0.30604000000000003,1914742741685617.2,2370228624828129.0,206497232629411.94,245431471315884.0,3925404917.7654457,8370930738.947221,141961004112.8494,3402921857445.983
0.41216080000000005,2243912876548028.5,2779850075693574.0,241996895572497.62,287624455748597.9,6969454209.883654,14862375906.15968,252049013914.08258,6041966980421.553
0.5204040160000001,2535849829379987.5,3143988322262741.5,273481110955752.84,325044895790033.94,10607097465.941683,22619666300.52135,383604540428.8879,9195654832777.717
0.6308120963200001,2802143583957505.5,3476933126393755.0,302199811490931.94,359178394054771.2,14798883807.313103,31558673993.96421,535200839522.66016,12829778493224.363
0.7434283382464002,3049530887290191.5,3786990527141728.5,328879528000178.56,390888465892600.75,19521914579.660557,41630568726.63387,706009791236.6195,16924483684208.7
0.8582969050113283,3282327024700870.0,4079482286997533.0,353985646490392.4,420728244009208.5,24762903782.755424,52807019271.98862,895550922976.4108,21468250951024.766
0.9754628431115548,3503488355599878.0,4358056112320855.0,377836998324335.2,449076674164560.44,30514756637.73026,65072897236.870575,1103567671051.2144,26454928907154.188
1.094972099973786,3715142759383702.5,4625339579237247.0,400663066657938.9,476206507659179.2,36774673099.04426,78422232807.17845,1329958793264.931,31882089837260.55
1.2168715419732616,3918880895454573.0,4883299104383564.0,422635397651269.4,502321635005363.25,43543006845.01552,92855781551.53276,1574737103916.0728,37750040380041.89
1.3412089728127268,4115928014837111.5,5133451647560278.0,443886129654034.25,527579108717696.25,50822536035.39047,108379469317.9617,1838003100580.9924,44061189245501.414
1.4680331522689813,4307251153687861.0,5376996763327007.0,464519553590504.56,552102883363008.8,58617975244.159836,125003351436.66772,2119927313111.859,50819624045838.32
1.597393815314361,4493629096639561.0,5614902770605102.0,484619658222218.3,575992783452641.4,66935636841.20156,142740890622.36154,2420738057512.0713,58030817705708.48
1.729341691620648,4675699766734713.0,5847965108800838.0,504255240959960.6,599330577877895.9,75783189290.10204,161608441550.37302,2740712694821.1655,65701418902621.03
1.863928525453061,4853993338465721.0,6076847106460914.0,523483478970745.44,622184224335145.2,85169480699.33589,181624874585.62906,3080171249910.63,73839099084117.72
2.001207095962122,5028955994544038.0,6302109226433316.0,542352491248930.94,644610914465375.1,95104407719.05334,202811296211.28207,3439471670219.799,82452438800829.17
2.1412312378813647,5200967362206655.0,6524230528116041.0,560903219051105.6,666659308837650.4,105598816813.5007,225190838498.54532,3819006255368.9033,91550842109956.47
2.284055862638992,5370353566414551.0,6743624733519289.0,579170833630559.8,688371210106363.4,116664429198.6267,248788499042.7583,4219198942633.748,101144471496949.45
2.4297369798917723,5537397173070129.0,6960652465316409.0,597185808572924.0,709782837531541.2,128313783439.67592,273631018559.61264,4640503231102.577,111244198108715.81
2.578331719489608,5702344880633420.0,7175630714023933.0,614974749305751.9,730925812889182.5,140560191472.8015,299746787108.3841,5083400591321.004,121861563625681.2
2.7298983538794,5865413552149482.0,7388840263290443.0,632561043628199.5,751827933655744.8,153417705001.97638,327165772440.775,5548399250167.174,133008751129404.8
2.884496320956988,6026795004308230.0,7600531586224054.0,649965378191685.4,772513786869194.0,166901090037.41934,355919465711.86505,6036033270172.601,144698563029023.4
3.0421862473761276,6186659852074128.0,7810929580251656.0,667206153127597.1,793005241933131.2,181025807912.59735,386040841006.97723,6546861863148.517,156944404604739.53
3.2030299723236504,6345160626319027.0,8020237408124689.0,684299818271333.8,813321850234554.2,195808001523.98602,417564326006.4437,7081468892701.079,169760272079550.22
3.3670905717701234,6502434325174323.0,8228639642850254.0,701261148315290.8,833481172175852.5,211264485832.93408,450525781739.6966,7640462530893.515,183160744386314.72
3.5344323832055258,6658604519501202.0,8436304864689596.0,718103469875272.0,853499047053690.2,227412741886.10815,484962489843.1614,8224475042166.458,197160977985540.12
3.7051210308696363,6813783103787836.0,8643387822557258.0,734838850317645.4,873389817488783.5,244270913772.94492,520913146081.73535,8834162673483.115,211776704229638.22
3.879223451487029,6968071762505980.0,8850031245965909.0,751478255899947.0,893166517383297.8,261857808060.73062,558417859154.2943,9470205634087.44,227024228875399.38
4.0568079205167695,7121563206199873.0,9056367374268794.0,768031685078067.8,912841030362554.9,280192895341.2817,597518154002.6534,10133308151637.385,242920433427325.72
4.237944078927105,7274342219773614.0,9262519255421278.0,784508281559771.8,932424224144372.8,299296313595.14606,638256978996.9352,10824198594078.896,259482778056865.9
4.422702960505647,7426486556499866.0,9468601855482270.0,800916430719913.2,951926065132984.9,319188873135.31903,680678716489.7427,11543629648652.637,276729305891197.03
4.61115701971576,7578067704434349.0,9674723011661078.0,817263842255136.8,971355716657940.1,339892062936.4781,724829196325.5662,12292378551019.254,294678648503378.2
4.803380160110075,7729151546639480.0,9880984255222144.0,833557621386305.6,990721623601497.1,361428058190.6437,770755711966.107,13071247358749.248,313350032465941.1
4.9994477633122765,7879798932510270.0,1.0087481525501458e+16,849804330473683.9,1010031585631081.5,383819728957.99677,818507038951.6471,13881063264430.725,332763286854102.9
5.199436718578522,8030066174267415.0,1.0294305792322798e+16,866010042561709.5,1029292820839727.9,407090649803.9528,868133455466.2704,14722678944457.547,352938851604213.56
5.403425452950093,8180005480131262.0,1.0501543600960596e+16,882180388095037.5,1048512021270238.9,431265110331.698,919686764813.338,15596972940214.346,373897786648705.5
5.611493962009095,8329665333656741.0,1.0709277551300004e+16,898320595828268.9,1067695401538304.1,456368126534.12384,973220319639.0306,16504850068908.373,395661781761612.25
5.823723841249277,8479090827079326.0,1.0917586720837588e+16,914435528775981.4,1086848741560733.6,482425452901.1344,1028789047767.4838,17447241861733.674,418253167059153.8
6.040198318074262,8628323955207346.0,1.112654703955237e+16,930529715907799.5,1105977424226535.9,509463595228.2348,1086449479532.1991,18425107027411.2,441694924108500.56
6.261002284435747,8777403875327581.0,1.1336231623362288e+16,946607380178165.5,1125086468711580.2,537509824080.50214,1146259776505.843,19439431939446.324,466010697604921.75
6.486222330124463,8926367137720153.0,1.1546711071812116e+16,962672463386439.1,1144180560025972.2,566592188872.8455,1208279761545.1719,20491231145690.02,491224807583437.7
6.715946776726952,9075247890663484.0,1.1758053734758484e+16,978728648285844.2,1163264075291553.8,596739532533.1234,1272570950079.7734,21581547898996.258,517362262135994.5
6.950265712261491,9224078063220266.0,1.197032595209446e+16,994779378296201.5,1182341107171395.5,627981506719.4476,1339196582583.567,22711454707938.234,544448770609328.4
7.18927102650672,9372887528606642.0,1.2183592269954204e+16,1010827875122616.8,1201415484810417.5,660348587566.992,1408221658176.4307,23882053906692.8,572510757262092.4
7.433056447036854,9521704250539902.0,1.239791563633999e+16,1026877154538502.5,1220490792594251.2,693872091942.9398,1479712969310.4854,25094478243320.484,601575375362774.4
7.681717575977592,9670554414620036.0,1.2613357578694032e+16,1042930040554539.8,1239570386989661.0,728584194191.0878,1553739137501.6057,26349891485773.57,631670521712350.5
7.935351927497144,9819462546514474.0,1.2829978365588578e+16,1058989178164418.8,1258657411693501.5,764517943349.9482,1630370650071.8242,27649489045049.25,662824851577713.1
8.194058966047088,9968451618475214.0,1.3047837154410824e+16,1075057044832273.2,1277754811286025.5,801707280830.2825,1709679897872.6172,28994498614979.81,695067794023656.0
8.45794014536803,1.0117543145513118e+16,1.3266992126669724e+16,1091135960864706.1,1296865343558519.5,840187058539.6715,1791741213962.714,30386180828211.797,728429567632687.4
8.72709894827539,1.0266757272382224e+16,1.3487500612338706e+16,1107228098791682.0,1315991590662932.2,879993057443.1887,1876630913217.205,31825829927980.938,762941196603218.6
9.0016409272409,1.0416112852378836e+16,1.3709419204468286e+16,1123335491864683.6,1335135969212321.8,921162006550.5004,1964427332847.2686,33314774455333.773,798634527217726.9
9.281673745785717,1.0565627518834348e+16,1.3932803865147118e+16,1139460041766939.8,1354300739444817.5,963731602320.7147,2055210873812.2507,34854377951481.633,835542244673405.0
9.567307220701432,1.071531775007354e+16,1.415771002375757e+16,1155603525618900.5,1373488013549952.5,1007740528477.2666,2149064043107.4707,36446039675011.734,873697890268575.6
9.85865336511546,1.0865198928516106e+16,1.4384192668358136e+16,1171767602352102.8,1392699763244284.0,1053228476225.7639,2246071496912.98,38091195333698.89,913135878938829.0
10.155826432417769,1.1015285394519872e+16,1.461230643092626e+16,1187953818515927.0,1411937826673028.2,1100236164868.4824,2346320084589.629,39791317830690.305,953891517137316.5
10.458942961066125,1.1165590495494754e+16,1.4842105667109944e+16,1204163613574373.8,1431203914705462.8,1148805362809.5732,2449898893510.1665,41547918024852.6,996001021054181.8
10.768121820287448,1.1316126630756338e+16,1.5073644531063062e+16,1220398324743313.2,1450499616684253.2,1198978908945.646,2556899294713.644,43362545505086.7,1039501535170411.5
11.083484256693197,1.1466905292535596e+16,1.5306977045874944e+16,1236659191413206.8,1469826405682105.8,1250800734436.6357,2667414989372.8022,45236789378428.984,1084431151141776.8
11.405153941827061,1.1617937103516276e+16,1.5542157170048294e+16,1252947359197392.2,1489185643313239.5,1304315884852.215,2781542056064.042,47172279071768.86,1130828927008724.2
11.733257020663602,1.1769231851230694e+16,1.5779238860431458e+16,1269263883641515.0,1508578584142320.8,1359570542689.254,2899378998830.6514,49170685147021.05,1178734906728367.5
12.067922161076874,1.192079851961165e+16,1.6018276131967296e+16,1285609733626258.0,1528006379728686.2,1416612050256.0117,3021026796030.2246,51233720129599.516,1228190140024853.8
12.409280604298411,1.2072645317964878e+16,1.6259323114584344e+16,1301985794491950.5,1547470082340129.5,1475488932918.925,3146588949957.2686,53363139350042.03,1279236702554472.0
12.75746621638438,1.2224779707603076e+16,1.650243410752137e+16,1318392870910880.2,1566970648366754.0,1536250922707.9521,3276171537232.843,55560741798644.21,1331917716382071.5
13.112615540712067,1.2377208426355216e+16,1.6747663631348994e+16,1334831689530565.2,1586508941462637.0,1598948982276.487,3409883259952.545,57828370992959.61,1386277370765401.2
13.474867851526309,1.2529937511146892e+16,1.6995066477924724e+16,1351302901408936.0,1606085735440143.8,1663635329212.0315,3547835497584.936,60167915858027.695,1442360943243937.0
13.844365208556836,1.268297231882724e+16,1.7244697758495684e+16,1367807084260439.2,1625701716939547.5,1730363460693.7156,3690142359612.1323,62581311619194.18,1500214821028966.0
14.221252512727972,1.2836317545402326e+16,1.7496612950143236e+16,1384344744530275.2,1645357487894320.8,1799188178492.8596,3836920738904.586,65070540707384.57,1559886522691563.2
14.605677562982532,1.2989977243819812e+16,1.7750867940745082e+16,1400916319312414.0,1665053567810810.2,1870165614312.7861,3988290365822.0312,67637633676696.07,1621424720145221.0
14.997791114242183,1.31439548404375e+16,1.8007519072614744e+16,1417522178125643.8,1684790395879152.8,1943353255464.0044,4144373863032.515,70284670134173.734,1684879260919793.5
15.397746936527026,1.3298253150295922e+16,1.826662318496454e+16,1434162624560672.8,1704568332930926.2,2018809970870.974,4305296801041.4917,73013779681629.22,1750301190723472.5
15.805701875257567,1.3452874391305748e+16,1.85282376553242e+16,1450837897810164.5,1724387663257661.8,2096596037406.5684,4471187754422.823,75827142869371.5,1817742776289446.0
16.221815912762718,1.3607820197450544e+16,1.8792420440037348e+16,1467548174092641.0,1744248596303220.0,2176773166550.392,4642178358743.613,78726992161704.48,1887257528503948.8
16.64625223101797,1.376309163109848e+16,1.9059230113946424e+16,1484293567980194.2,1764151268241857.5,2259404531366.9478,4818403368174.562,81715612914059.53,1958900225812244.8
17.079177275638333,1.391868919450791e+16,1.9328725909368796e+16,1501074133639365.0,1784095743453024.5,2344554793799.8647,5000000713777.87,84795344361616.8,2032726937899271.2
17.5207608211511,1.4074612840605538e+16,1.96009677544574e+16,1517889865993501.8,1804082015902939.8,2432290132278.12,5187111562463.907,87968580619282.69,2108795049641417.8
17.97117603757412,1.4230861983110752e+16,1.987601631103289e+16,1534740701814627.5,1824110010442259.2,2522678269630.3354,5379880376608.94,91237771692871.77,2187163285326168.0
18.430599558325603,1.4387435506072568e+16,2.015393301196611e+16,1551626520751971.5,1844179584028601.8,2615788501303.146,5578454974325.151,94605424501366.28,2267891733136002.0
18.899211549492115,1.4544331772882566e+16,2.0434780098186012e+16,1568547146303976.0,1864290526881766.0,2711691723879.7485,5782986590374.834,98074103910098.36,2351041869893318.5
19.37719578048196,1.470154863482145e+16,2.071862065537983e+16,1585502346739985.8,1884442563579238.2,2810460463894.494,5993629937720.361,101646433774726.33,2436676586062828.5
19.864739696091597,1.4859083439193454e+16,2.100551865045045e+16,1602491835977545.2,1904635354098875.2,2912168906939.7617,6210543269701.825,105325097995855.42,2524860211008073.0
20.36203449001343,1.501693303709915e+16,2.129553896778786e+16,1619515274420648.8,1924868494815226.8,3016892927061.125,6433888442834.153,109112841584175.06,2615658538498738.0
20.869275179813698,1.5175093790894058e+16,2.1588747445411704e+16,1636572269764107.5,1945141519455541.5,3124710116436.8906,6663830980215.575,113012471735967.23,2709138852465390.0
21.38666068340997,1.533356158137639e+16,2.188521091103445e+16,1653662377768749.2,1965453900021142.0,3235699815338.38,6900540135539.684,117026858918858.84,2805369952998403.0
21.91439389707817,1.5492331814746498e+16,2.2184997218093548e+16,1670785103011926.8,1985805047679435.8,3349943142367.132,7144188957703.378,121158937967687.77,2904422182587937.5
22.452681775019734,1.565139942937563e+16,2.248817528179785e+16,1687939899617546.2,2006194313631572.0,3467523024965.4263,7394954356003.214,125411709190351.78,3006367452601786.5
23.00173541052013,1.5810758902421316e+16,2.2794815115229044e+16,1705126171969467.0,2026620989960384.8,3588524230196.8647,7653017165913.145,129788239483527.14,3111279269998257.5
23.561770118730532,1.5970404256323366e+16,2.3104987865539004e+16,1722343275412108.5,2047084310463054.2,3713033395793.4155,7918562215436.622,134291663458132.86,3219232764271134.5
24.133005521105144,1.6130329065212786e+16,2.3418765850279052e+16,1739590516941579.8,2067583451472580.5,3841139061466.069,8191778392026.867,138925184574440.5,3330304714624139.5
24.715665631527248,1.629052646126409e+16,2.3736222593896464e+16,1756867155890799.5,2088117532672057.8,3972931700475.981,8472858710069.199,143692076286721.12,3444573577372250.0
25.309978944157795,1.6450989141019682e+16,2.405743286443196e+16,1774172404611521.8,2108685617905303.2,4108503751463.5967,8762000378919.954,148595683197342.8,3562119513567763.0
25.91617852304095,1.6611709371713648e+16,2.4382472710448504e+16,1791505429156331.0,2129286715987449.2,4247949650533.171,9059404871497.178,153639422220230.62,3683024416848837.5
26.53450209350177,1.6772678997619886e+16,2.4711419498221224e+16,1808865349963286.0,2149919781518648.5,4391365863590.6733,9365277993418.766,158826783753622.1,3807371941508847.5
27.165192135371807,1.6933889446449362e+16,2.504435194921783e+16,1826251242545826.2,2170583715704082.0,4538850918933.1455,9679829952684.371,164161332862052.56,3935247530784862.0
27.808495978079243,1.7095331735818936e+16,2.5381350177894016e+16,1843662138190398.0,2191277367183102.8,4690505440088.233,10003275429898.488,169646710467525.9,4066738445364074.5
28.464665897640828,1.725699647981295e+16,2.5722495729832476e+16,1861097024664098.0,2211999532870331.5,4846432178902.536,10335833649032.516,175286634549834.66,4201933792107298.0
29.133959215593645,1.741887389565807e+16,2.6067871620246304e+16,1878554846934541.0,2232748958811215.2,5006736048878.424,10677728448724.63,181084901356016.6,4340924552988841.5
29.816638399905518,1.7580953810530194e+16,2.6417562372873244e+16,1896034507903958.2,2253524341054555.0,5171524158758.747,11029188354117.79,187045386618938.56,4483803614252739.5
30.51297116790363,1.7743225668511236e+16,2.6771654059280988e+16,1913534869159436.5,2274324326544203.0,5340905846360.172,11390446649236.174,193172046785024.7,4630665795785511.0
31.223230591261704,1.790567853771248e+16,2.71302343386056e+16,1931054751741154.8,2295147514032151.5,5514992712655.455,11761741449902.438,199468920251171.53,4781607880706097.0
31.947695203086937,1.806830111757979e+16,2.7493392497743324e+16,1948592936930228.0,2315992455014896.5,5693898656106.134,12143315777198.975,205940128610890.88,4936728645174218.0
32.686649107148675,1.8231081746395576e+16,2.7861219492015656e+16,1966148167057766.2,2336857654695064.0,5877739907247.861,12535417631477.688,212589877909771.75,5096128888418759.0
33.44038208929165,1.8394008408990492e+16,2.8233807986326172e+16,1983719146336524.8,2357741572969878.0,6066635063530.403,12938300066923.527,219422459910343.0,5259911462988432.0
34.20918973107749,1.855706874467745e+16,2.8611252396827056e+16,2001304541716576.2,2378642625448107.0,6260705124415.695,13352221266679.955,226442253366471.94,5428181305227364.0
34.993373525699035,1.872025005541871e+16,2.8993648933113508e+16,2018902983766110.8,2399559184497016.5,6460073526737.904,13777444618543.791,233653725307438.06,5601045465978981.0
35.793240996213015,1.8883539314237256e+16,2.9381095640961988e+16,2036513067578541.0,2420489580320432.0,6664866180329.896,14214238791240.49,241061432331857.34,5778613141522332.0
36.60910581613728,1.9046923173880396e+16,2.9773692445628236e+16,2054133353706830.2,2441432102069277.0,6875211503921.27,14662877811290.914,248670021911648.5,5960995704744863.0
37.44128793246003,1.921038797574419e+16,3.017154119572145e+16,2071762369126006.2,2462384998985544.0,7091240461314.183,15123641140483.244,256484233706275.4,6148306736557618.0
38.29011369110923,1.937391975906611e+16,3.0574745707668456e+16,2089398608224497.5,2483346481580554.0,7313086597843.612,15596813753964.734,264508900887513.47,6340662057557957.0
39.15591596493141,1.9537504270390932e+16,3.098341181078233e+16,2107040533825017.8,2504314722848319.0,7540886077129.526,16082686218970.04,272748951475023.34,6538179759946920.0
40.03903428423004,1.9701126973315344e+16,3.1397647392949064e+16,2124686578235467.0,2525287859514596.5,7774777718129.512,16581554774204.316,281209409683041.5,6740980239708249.0
40.93981496991464,1.9864773058514428e+16,3.1817562446944644e+16,2142335144330278.5,2546263993322087.0,8014903032500.788,17093721409901.387,289895397278533.06,6949186229056907.0
41.85861126931294,2.002842745405292e+16,3.224326911739545e+16,2159984606662405.5,2567241192352126.0,8261406262281.558,17619493948578.246,298812134951165.56,7162922829165931.0
42.7957834946992,2.0192074835982428e+16,3.267488174839224e+16,2177633312606215.8,2588217492383019.5,8514434417902.735,18159186126510.152,307964943695516.94,7382317543180671.0
43.751699164593184,2.035569963922409e+16,3.3112516931769584e+16,2195279583531146.0,2609190898285042.0,8774137316541.059,18713117675950.477,317359246205931.5,7607500309530885.0
