t(s),Total solute volume 1,Total retention volume 1,Total 1 volume 1,Total 2 volume 1,Total 3 volume 1,Total 4 volume 1,Total 5 volume 1,Total 6 volume 1
0.1,1384269013029218.2,1.039366397781807e+16,2531887414418598.5,6477507550370256.0,0.0,0.0,0.0,0.013903653951609765
0.202,1885139203202125.5,1.5455408167238422e+16,3448004013207717.0,8821339863342792.0,917882016559.0194,6266918043465.3955,216913762663658.72,1076826524762103.5
0.30604000000000003,2187497839483536.2,1.9808811053179996e+16,4001031953318877.0,1.0236209684017674e+16,2151605542281.2986,14709136094504.475,539813156890176.2,2827397677832942.0
0.41216080000000005,2382495927122132.5,2.382871671752956e+16,4357692349187267.5,1.1148689200024212e+16,3550422505926.4663,24283765599096.133,916312999164494.1,4995692053926435.0
0.5204040160000001,2515149191783752.0,2.768009415204422e+16,4600321153311924.0,1.1769429177580256e+16,5047795065561.85,34533563032913.33,1322283815726036.2,7433329455543798.0
0.6308120963200001,2609569516381818.0,3.144807660737295e+16,4773020153568655.0,1.2211260592853582e+16,6612726172535.472,45245927295611.99,1746888488846154.0,1.0055479202254592e+16
0.7434283382464002,2679290542370520.5,3.5181871594213948e+16,4900543019059294.0,1.2537513607129652e+16,8229808170513.47,56315412760425.82,2185423161253056.2,1.2814556043470482e+16
0.8582969050113283,2732233754856947.0,3.891239093013453e+16,4997378513495533.0,1.2785256370932238e+16,9890658969648.047,67684744883626.93,2635813007714407.0,1.5684133879282124e+16
0.9754628431115548,2773278979806042.0,4.266031626564427e+16,5072452060740994.0,1.2977323670384138e+16,11590373868951.436,79320420873169.9,3097046267679590.5,1.864930449229139e+16
1.094972099973786,2805590368443715.0,4.644020989072449e+16,5131551035112755.0,1.312852186836374e+16,13325981183245.412,91202123354912.89,3568545667516155.0,2.1701472846749984e+16
1.2168715419732616,2831343591756120.0,5.0262771954407736e+16,5178654835288806.0,1.3249031801413248e+16,15095848555456.904,103318675700015.44,4049971246491955.0,2.483535595520211e+16
1.3412089728127268,2852084074954793.0,5.413616237240513e+16,5216590112046581.0,1.3346085124116652e+16,16899214526729.2,115664846761010.36,4541132839617281.0,2.8047706160382068e+16
1.4680331522689813,2868940212877968.0,5.80668129352496e+16,5247420749087996.0,1.3424962038023108e+16,18735912284995.64,128239468995788.14,5041949681331071.0,3.133656487264867e+16
1.597393815314361,2882751493613333.5,6.2059948144006136e+16,5272682206952817.0,1.3489590836148154e+16,20606170435740.73,141044080080731.44,5552423813457307.0,3.470084954331808e+16
1.729341691620648,2894151284319596.5,6.611993271212204e+16,5293532941981488.0,1.3542935291553564e+16,22510475127026.367,154081982250295.47,6072620244871679.0,3.814010049201839e+16
1.863928525453061,2903623175142071.0,7.02505111570777e+16,5310857461824587.0,1.3587258312902622e+16,24449479283213.95,167357622722734.34,6602652297301784.0,4.165431280790069e+16
2.001207095962122,2911540531611075.0,7.44549771112224e+16,5325338668511826.0,1.3624307025537874e+16,26423945213050.4,180876201632255.3,7142670917138386.0,4.52438198215779e+16
2.1412312378813647,2918194728753018.5,7.873629503452208e+16,5337509499869921.0,1.365544488971705e+16,28434709151229.96,194643429437804.56,7692856740410174.0,4.890921103718286e+16
2.284055862638992,2923815502877249.0,8.309718874942144e+16,5347790153822336.0,1.3681746934342072e+16,30482659377442.38,208665376848423.34,8253413978317274.0,5.265127414383665e+16
2.4297369798917723,2928585733556783.5,8.754020642584888e+16,5356515125270496.0,1.3704068927415254e+16,32568722397958.79,222948379713712.12,8824565541876547.0,5.647095399561805e+16
2.578331719489608,2932652267535148.5,9.206776868300578e+16,5363953003486739.0,1.3723098025171072e+16,34693853829775.777,237498976029213.2,9406549089339514.0,6.036932346761433e+16
2.7298983538794,2936133921431196.0,9.66822045251585e+16,5370321109407436.0,1.3739390219754072e+16,36859032070052.836,252323862029616.53,9999613829912052.0,6.434756255055409e+16
2.884496320956988,2939127465953013.5,1.0138577848212379e+17,5375796441019869.0,1.375339834163478e+16,39065253712549.88,267429860314495.78,1.0604017982845776e+16,6.840694313664329e+16
3.0421862473761276,2941712157051934.0,1.0618071136881174e+17,5380523961040524.0,1.3765493262625424e+16,41313530166211.94,282823896296428.56,1.1220026811293192e+16,7.254881775033805e+16
3.2030299723236504,2943953211656645.5,1.1106919639155102e+17,5384622954185162.0,1.3775980160197596e+16,43604885186560.22,298512980990179.44,1.1847911153108252e+16,7.677461104622656e+16
3.3670905717701234,2945904507924417.5,1.160534118358483e+17,5388191966047430.0,1.378511115302742e+16,45940353151598.234,314504198979723.3,1.248794637059754e+16,8.108581328612018e+16
3.5344323832055258,2947610707984063.0,1.2113553121795142e+17,5391312685689911.0,1.379309523416183e+16,48320977965647.414,330804700749930.4,1.314041164364203e+16,8.548397526775802e+16
3.7051210308696363,2949108944331979.5,1.263177315325289e+17,5394053030137624.0,1.3800106162350624e+16,50747812494441.78,347421698706019.2,1.3805589536464228e+16,8.997070434804392e+16
3.879223451487029,2950430171697715.5,1.316022000522807e+17,5396469617000707.0,1.3806288787979842e+16,53221918442737.68,364362466260031.3,1.4483765776610912e+16,9.454766131428878e+16
4.0568079205167695,2951600258862473.0,1.3699114001111874e+17,5398609761459464.0,1.3811764162141896e+16,55744366590956.21,381634339402152.4,1.5175229194101662e+16,9.921655792856013e+16
4.237944078927105,2952640875787864.0,1.4248677541518798e+17,5400513098862854.0,1.3816633687880044e+16,58316237313575.64,399244720219681.0,1.5880271778054158e+16,1.0397915501706982e+17
4.422702960505647,2953570217879821.0,1.480913551643046e+17,5402212909439845.0,1.3820982509321902e+16,60938621309907.91,417201081882856.7,1.6599188816729564e+16,1.0883726100774066e+17
4.61115701971576,2954403599498968.5,1.53807156622477e+17,5403737203856721.0,1.3824882288963292e+16,63612620487117.21,435510974681642.9,1.7332279094483892e+16,1.1379273084050534e+17
4.803380160110075,2955153941737835.5,1.5963648874456966e+17,5405109615383673.0,1.3828393490182882e+16,66339348945104.41,454182032765761.9,1.8079845125448816e+16,1.188474651901056e+17
4.9994477633122765,2955832174214220.5,1.6558169484307776e+17,5406350134793046.0,1.3831567257402486e+16,69119934022472.0,473221981306882.44,1.8842193408935028e+16,1.2400340995240368e+17
5.199436718578522,2956447566639152.5,1.7164515506182192e+17,5407475716812182.0,1.3834446967633366e+16,71955517371669.48,492638643863371.06,1.961963469566842e+16,1.2926255595383365e+17
5.403425452950093,2957008002844052.0,1.7782928861038314e+17,5408500781331506.0,1.3837069512764962e+16,74847256039278.72,512439949782273.3,2.0412484257182604e+16,1.3462693885043854e+17
5.611493962009095,2957520207546928.0,1.8413655580309552e+17,5409437628170182.0,1.3839466360699684e+16,77796323534088.64,532633941519287.2,2.1221062153155188e+16,1.4009863918847022e+17
5.823723841249277,2957989934231565.0,1.905694599385566e+17,5410296780715662.0,1.384166443451905e+16,80803910871117.89,553228781795402.4,2.2045693493330316e+16,1.4567978260309354e+17
6.040198318074262,2958422120986897.0,1.971305490493819e+17,5411087270960994.0,1.3843686841722046e+16,83871227584147.4,574232760539132.1,2.2886708692042536e+16,1.513725401355462e+17
6.261002284435747,2958821019920492.0,2.0382241754688733e+17,5411816876207935.0,1.3845553479805594e+16,86999502702740.69,595654301586746.0,2.3744443714353164e+16,1.5717912865231072e+17
6.486222330124463,2959190304757678.5,2.1064770778128803e+17,5412492315870655.0,1.3847281539766564e+16,90189985692306.69,617501969130542.6,2.4619240313515396e+16,1.6310181135255494e+17
6.715946776726952,2959533160419438.5,2.176091115346361e+17,5413119415317759.0,1.3848885925274618e+16,93443947357632.33,639784473918114.6,2.5511446259968736e+16,1.6914289835237968e+17
6.950265712261491,2959852357701781.5,2.2470937146094093e+17,5413703242464283.0,1.3850379602128892e+16,96762680711627.78,662510679214504.6,2.6421415562384616e+16,1.7530474733633536e+17
7.18927102650672,2960150315629165.0,2.31951282485617e+17,5414248221818914.0,1.3851773890036098e+16,100147501811894.44,685689606545143.0,2.734950868148206e+16,1.8158976426829373e+17
7.433056447036854,2960429153602155.5,2.3933769317447955e+17,5414758229864440.0,1.3853078706631728e+16,103599750568255.52,709330441241069.8,2.82960927374433e+16,1.880004041551286e+17
7.681717575977592,2960690735087580.0,2.4687150708092627e+17,5415236674969050.0,1.3854302771924964e+16,107120791524665.55,733442537809829.1,2.9261541711806468e+16,1.945391718578038e+17
7.935351927497144,2960936704293129.0,2.5455568407860074e+17,5415686564465828.0,1.3855453779914832e+16,110712014619000.73,758035425156031.8,3.0246236644716732e+16,2.0120862294543514e+17
8.194058966047088,2961168517016317.0,2.623932416857307e+17,5416110561076928.0,1.385653854294576e+16,114374835924193.61,783118811675303.2,3.1250565828392624e+16,2.0801136458869955e+17
8.45794014536803,2961387466650116.5,2.703872563864057e+17,5416511030479065.0,1.3857563113399182e+16,118110698374043.69,808702590244429.6,3.2274924997620796e+16,2.1495005648963805e+17
8.72709894827539,2961594706156684.0,2.785408649532847e+17,5416890081494472.0,1.3858532886518046e+16,121921072476847.66,834796843129265.5,3.331971751803913e+16,2.220274118454702e+17
9.0016409272409,2961791266679810.0,2.8685726577558035e+17,5417249600133904.0,1.3859452687502588e+16,125807457019778.52,861411846830434.4,3.4385354572908692e+16,2.2924619834450502e+17
9.281673745785717,2961978073350772.0,2.9533972019562854e+17,5417591278506304.0,1.386032684547279e+16,129771379766704.56,888558076885305.0,3.547225534901457e+16,2.3660923919263206e+17
9.567307220701432,2962155958746835.5,3.039915538569037e+17,5417916639434988.0,1.3861159256446536e+16,133814398151908.22,916246212643080.0,3.658084722227665e+16,2.4411941416920352e+17
9.85865336511546,2962325674382815.5,3.128161580659648e+17,5418227057476264.0,1.3861953437113794e+16,137938099971932.72,944487142028289.8,3.771156594359473e+16,2.5177966071139696e+17
10.155826432417769,2962487900551387.5,3.2181699117051354e+17,5418523776917789.0,1.3862712570883568e+16,142144104077570.03,973291966306492.0,3.886485582539993e+16,2.595929750263768e+17
10.458942961066125,2962643254774149.5,3.3099757995547475e+17,5418807927235986.0,1.3863439547430334e+16,146434061067798.72,1002672004864614.0,4.0041169929336296e+16,2.6756241323076563e+17
10.768121820287448,2962792299081471.5,3.4036152105881e+17,5419080536411202.0,1.3864136996759592e+16,150809653987297.9,1032638800017076.8,4.124097025545239e+16,2.7569109251710096e+17
11.083484256693197,2962935546302537.5,3.499124824085847e+17,5419342542432502.0,1.386480731864183e+16,155272599028995.5,1063204121847744.8,4.2464727933244824e+16,2.839821923470861e+17
11.405153941827061,2963073465517005.5,3.5965420468267034e+17,5419594803268979.0,1.3865452708123178e+16,159824646242958.0,1094379973096689.5,4.3712923414859976e+16,2.924389556715619e+17
11.733257020663602,2963206486794648.0,3.695905027923364e+17,5419838105538824.0,1.3866075177704442e+16,164467580252798.06,1126178594099850.5,4.498604667073046e+16,3.0106469017721536e+17
12.067922161076874,2963335005328818.0,3.797252673908871e+17,5420073172069589.0,1.3866676576683346e+16,169203220980657.06,1158612467788899.5,4.628459738789623e+16,3.098627695601395e+17
12.409280604298411,2963459385052433.5,3.9006246640842285e+17,5420300668512011.0,1.3867258608075476e+16,174033424381718.75,1191694324757886.5,4.76090851712367e+16,3.188366348264066e+17
12.75746621638438,2963579961810966.5,4.006061466137245e+17,5420521209143549.0,1.386782284346201e+16,178960083189117.2,1225437148402658.2,4.8960029747821304e+16,3.279897956198948e+17
13.112615540712067,2963697046155192.5,4.1136043520422054e+17,5420735361976457.0,1.3868370736058354e+16,183985127670032.66,1259854180138495.8,5.033796117456819e+16,3.37325831577654e+17
13.474867851526309,2963810925806565.5,4.223295414249416e+17,5420943653267075.0,1.3868903632250738e+16,189110526393691.38,1294958924700987.2,5.174342004938583e+16,3.468483937131367e+17
13.844365208556836,2963921867839991.5,4.3351775821733395e+17,5421146571508221.0,1.3869422781810414e+16,194338287011939.1,1330765155534741.8,5.317695772596146e+16,3.565612058276671e+17
14.221252512727972,2964030120621892.0,4.4492946389878054e+17,5421344570974002.0,1.3869929346962748e+16,199670457053001.44,1367286920274238.0,5.4639136532347864e+16,3.664680659505466e+17
14.605677562982532,2964135915535781.5,4.565691238736526e+17,5421538074875961.0,1.387042441046197e+16,205109124729009.84,1404538546320819.5,5.613052999349375e+16,3.765728478082353e+17
14.997791114242183,2964239468522759.5,4.684412923766967e+17,5421727478180744.0,1.3870908982799938e+16,210656419757829.7,1442534646519606.5,5.765172305785287e+16,3.868795023230628e+17
15.397746936527026,2964340981460406.5,4.805506142495575e+17,5421913150132131.0,1.3871384008658502e+16,216314514199707.94,1481290124939917.2,5.920331232820471e+16,3.973920591419622e+17
15.805701875257567,2964440643400056.0,4.929018267512231e+17,5422095436514081.0,1.387185037269939e+16,222085623309223.9,1520820182762614.8,6.078590629681108e+16,4.081146281957267e+17
16.221815912762718,2964538631679739.0,5.0549976140317434e+17,5422274661686378.0,1.387230890477217e+16,227972006403016.06,1561140324277690.0,6.240012558503249e+16,4.19051401289323e+17
16.64625223101797,2964635112927581.0,5.1834934587002605e+17,5422451130419844.0,1.3872760384609554e+16,233975967743734.38,1602266362995245.2,6.404660318752285e+16,4.302066537238072e+17
17.079177275638333,2964730243968431.0,5.314556058764362e+17,5422625129554662.0,1.3873205546070038e+16,240099857440663.6,1644214427873019.8,6.5725984721120504e+16,4.415847459504088e+17
17.5207608211511,2964824172644859.0,5.448236671610752e+17,5422796929501970.0,1.3873645080979634e+16,246346072367443.88,1687000969663483.5,6.743892867855093e+16,4.531901252573669e+17
17.97117603757412,2964917038562055.5,5.584587574684393e+17,5422966785606368.0,1.3874079642617712e+16,252717057097316.72,1730642767383518.0,6.918610668705591e+16,4.6502732749011635e+17
18.430599558325603,2965008973765079.0,5.723662085793082e+17,5423134939384577.0,1.387450984888605e+16,259215304856313.38,1775156934909645.2,7.096820377206414e+16,4.7710097880544237e+17
18.899211549492115,2965100103355673.5,5.865514583806476e+17,5423301619653695.0,1.3874936285195348e+16,265843358494801.56,1820560927701758.2,7.278591862601635e+16,4.894157974602296e+17
19.37719578048196,2965190546055136.0,6.010200529757697e+17,5423467043560641.0,1.3875359507099004e+16,272603811477807.1,1866872549658337.0,7.46399638824601e+16,5.019765956354587e+17
19.864739696091597,2965280414718759.0,6.157776488355715e+17,5423631417523148.0,1.387578004270055e+16,279499308894519.6,1914109960106042.5,7.653106639552906e+16,5.147882812960996e+17
20.36203449001343,2965369816806855.0,6.308300149916836e+17,5423794938091262.0,1.3876198394857758e+16,286532548487404.5,1962291680926711.5,7.845996752492278e+16,5.2785586008759066e+17
20.869275179813698,2965458854816654.5,6.461830352723684e+17,5423957792737310.0,1.3876615043203688e+16,293706281701329.7,2011436603824695.0,8.042742342650277e+16,5.411844372695818e+17
21.38666068340997,2965547626678992.5,6.618427105820301e+17,5424120160581459.0,1.3877030446002984e+16,301023314753134.44,2061563997737567.2,8.243420534862464e+16,5.547792196876512e+17
21.91439389707817,2965636226123139.5,6.778151612251949e+17,5424282213059011.0,1.3877445041859094e+16,308486509722059.1,2112693516393235.8,8.448109993432445e+16,5.686455177837138e+17
22.452681775019734,2965724743012848.0,6.941066292758454e+17,5424444114535055.0,1.3877859251286806e+16,316098785661466.4,2164845206016518.0,8.656890952948133e+16,5.827887476458511e+17
23.00173541052013,2965813263656318.5,7.107234809930042e+17,5424606022871377.0,1.387827347816266e+16,323863119732284.3,2218039513188326.0,8.869845249707877e+16,5.972144330983145e+17
23.561770118730532,2965901871092460.5,7.276722092834761e+17,5424768089950106.0,1.387868811106462e+16,331782548358611.3,2272297292860572.5,9.087056353768971e+16,6.119282078324598e+17
24.133005521105144,2965990645355655.5,7.449594362126655e+17,5424930462157909.0,1.3879103524510916e+16,339860168405926.06,2327639816530035.5,9.308609401631192e+16,6.26935817579393e+17
24.715665631527248,2966079663720947.0,7.625919155644159e+17,5425093280834506.0,1.3879520080107444e+16,348099138382357.4,2384088780574439.5,9.534591229568344e+16,6.422431223251124e+17
25.309978944157795,2966169000931360.0,7.805765354508204e+17,5425256682688421.0,1.387993812761153e+16,356502679663462.75,2441666314754015.0,9.76509040762078e+16,6.578560985689637e+17
25.91617852304095,2966258729408964.0,7.989203209729751e+17,5425420800183045.0,1.3880358005919546e+16,365074077740989.94,2500394990881967.5,1.0000197274262408e+17,6.737808416262166e+17
26.53450209350177,2966348919451061.5,8.176304369336603e+17,5425585761895468.0,1.3880780043985026e+16,373816683496086.7,2560297831667215.0,1.0240003971755614e+17,6.900235679756087e+17
27.165192135371807,2966439639412803.0,8.367141906029564e+17,5425751692850468.0,1.3881204561673162e+16,382733914497443.25,2621398319732918.0,1.048460448220808e+17,7.065906176527091e+17
27.808495978079243,2966530955877348.5,8.56179034537814e+17,5425918714831783.0,1.3881631870557068e+16,391829256324851.25,2683720406814340.0,1.0734094664345434e+17,7.234884566899546e+17
28.464665897640828,2966622933814639.0,8.760325694566145e+17,5426086946672486.0,1.3882062274660808e+16,401106263918679.2,2747288523139626.0,1.0988572291014174e+17,7.407236796042668e+17
29.133959215593645,2966715636729750.5,8.962825471697802e+17,5426256504526336.0,1.388249607115355e+16,410568562955768.6,2812127586997214.5,1.1248137087429522e+17,7.583030119331231e+17
29.816638399905518,2966809126801643.0,9.169368735675118e+17,5426427502121569.0,1.388293355099886e+16,420219851252258.5,2878263014493591.5,1.1512890770182877e+17,7.762333128200152e+17
30.51297116790363,2966903465013138.5,9.380036116657376e+17,5426600050998613.0,1.388337499956296e+16,430063900193872.7,2945720729505248.5,1.17829370870244e+17,7.9452157765022e+17
31.223230591261704,2966998711272811.5,9.594909847113993e+17,5426774260733047.0,1.3883820697185062e+16,440104556194188.3,3014527173828683.0,1.2058381857435826e+17,8.131749407378275e+17
31.947695203086937,2967094924529467.5,9.814073793481979e+17,5426950239144984.0,1.3884270919713106e+16,450345742181437.44,3084709317532449.0,1.2339333014009499e+17,8.322006780650013e+17
32.686649107148675,2967192162879781.5,1.0037613488439534e+18,5427128092495946.0,1.3884725939007432e+16,460791459114384.7,3156294669515287.5,1.2625900644649658e+17,8.516062100744438e+17
33.44038208929165,2967290483669682.5,1.0265616163807551e+18,5427307925674298.0,1.3885186023415224e+16,471445787527847.75,3229311288274437.5,1.2918197035612227e+17,8.713991045160712e+17
34.20918973107749,2967389943589933.0,1.0498170784090889e+18,5427489842370083.0,1.3885651438217732e+16,482312889108427.3,3303787792888348.0,1.3216336715399966e+17,8.915870793489144e+17
34.993373525699035,2967490598766405.5,1.0735368080671569e+18,5427673945240104.0,1.3886122446052798e+16,493397008301025.75,3379753374218064.0,1.3520436499529858e+17,9.121780056992795e+17
35.793240996213015,2967592504845464.0,1.0977300586666273e+18,5427860336064153.0,1.3886599307314306e+16,504702473946754.56,3457237806331660.0,1.3830615536190102e+17,9.331799108762239e+17
36.60910581613728,2967695717074820.5,1.1224062672460667e+18,5428049115892834.0,1.388708228053061e+16,516233700952817.44,3536271458156131.0,1.4146995352804506e+17,9.54600981445414e+17
37.44128793246003,2967800290380255.0,1.1475750581933307e+18,5428240385187935.0,1.3887571622723506e+16,527995191994998.4,3616885305361337.0,1.446969990352208e+17,9.764495663624616e+17
38.29011369110923,2967906279438496.0,1.173246246938221e+18,5428434243955705.0,1.3888067589749286e+16,539991539253362.9,3699110942480582.0,1.479885561765041e+17,9.987341801668397e+17
