t(s),Total solute volume 1,Total retention volume 1,Total 1 volume 1,Total 2 volume 1,Total 3 volume 1,Total 4 volume 1,Total 5 volume 1,Total 6 volume 1
0.1,1171626138357391.5,1690659390667246.5,218249522949102.88,300783729360751.56,0.0,0.0,0.0,0.0
0.202,1763699960926144.0,2545040404809050.5,328540535313015.44,452782894204851.56,8606014.87584076,23045331.89519182,549575834.4650327,16433137852.521929
0.30604000000000003,2215009767513139.8,3196307742725238.0,412610144311690.0,568644644501378.4,21832267.43150737,58462906.98761937,1394275580.9913068,41711828279.76341
0.41216080000000005,2596814816066644.5,3747286907128974.5,483732465636578.06,666662901924352.9,38777989.00992411,103840584.86279212,2476537230.7419224,74104345592.56703
0.5204040160000001,2935908955378749.5,4236640695700275.0,546898634892322.6,753716272919343.0,59043151.51559898,158107154.51709998,3770807597.466557,112844551957.07411
0.6308120963200001,3245652911615896.0,4683648244411406.0,604597476870827.9,833234767564568.0,82413243.3863234,220688189.45297846,5263384861.446264,157521873814.04922
0.7434283382464002,3533814801571420.5,5099518722224598.0,658276029803166.5,907212642603014.9,108765709.4165842,291255507.27014524,6946441013.061837,207901784769.72852
0.8582969050113283,3805371942393673.5,5491434273289254.0,708861464118720.8,976927691408733.4,138031499.1365277,369624202.3328705,8815565567.457914,263852146854.1228
0.9754628431115548,4063735498167176.5,5864317147455042.0,756989208577590.5,1043255639338539.2,170176120.0388175,455701909.41059023,10868555321.70722,325306938388.569
1.094972099973786,4311361933951694.5,6221712009178360.0,803116851412715.4,1106827118246750.5,205189145.01139897,549460706.324437,13104744153.543228,392246173194.06683
1.2168715419732616,4550088766549310.0,6566270414221872.0,847586683699070.0,1168113861537613.0,243077907.9124157,650920231.7523583,15524600340.68082,464683837397.0996
1.3412089728127268,4781332617257955.0,6900036592301963.0,890662592453171.1,1227479548925715.5,283863481.8595879,760136915.765165,18129469686.431767,542660195040.05396
1.4680331522689813,5006212771858219.0,7224625739138145.0,932553077282923.8,1285211527165803.2,327577994.6570021,877196790.9932021,20921404052.30881,626236652357.5199
1.597393815314361,5225631821499588.0,7541340377775826.0,973426272103718.8,1341541512448601.2,374262773.01402724,1002210523.1591587,23903042827.44971,715492207790.6882
1.729341691620648,5440330281750486.0,7851249171400189.0,1013420119528857.4,1396659612384459.8,423967024.4820519,1135309881.5285087,27077528742.987347,810520930733.1857
1.863928525453061,5650924754583264.0,8155241989282099.0,1052649479651836.9,1450724123074684.0,476746881.714796,1276645179.601234,30448446828.482876,911430133406.9181
2.001207095962122,5857935306001352.0,8454069411368126.0,1091211229927554.0,1503868557586721.0,532664698.8087453,1426383390.8313816,34019779468.948383,1018339024944.6115
2.1412312378813647,6061805559004080.0,8748371721442161.0,1129188008072813.8,1556206804286696.0,591788527.9279386,1584706747.1174784,37795872976.74372,1131377710324.8984
2.284055862638992,6262917735185230.0,9038700611414234.0,1166651014002562.0,1607836988368457.0,654191728.0207419,1751811691.0128121,41781412600.24219,1250686441966.979
2.4297369798917723,6461604112495159.0,9325535714320562.0,1203662144172113.0,1658844413328219.2,719952672.425645,1927908092.7437198,45981403848.5575,1376415060469.718
2.578331719489608,6658155888563206.0,9609297393690244.0,1240275642629364.0,1709303836386084.0,789154531.9659555,2113218669.3741975,50401158637.7475,1508722579733.8372
2.7298983538794,6852830131912077.0,9890356773851158.0,1276539395881111.8,1759281253024821.5,861885116.7112141,2307978561.0700035,55046285184.05296,1647776884289.6833
2.884496320956988,7045855301216276.0,1.0169043704012252e+16,1312495961015849.8,1808835313912181.2,938236764.0987315,2512435031.507302,59922680858.14588,1793754515291.0337
3.0421862473761276,7237435676643095.0,1.0445653152551378e+16,1348183391170213.0,1858018462529435.0,1018306264.2720183,2726847267.941657,65036527416.4029,1946840527686.5378
3.2030299723236504,7427754953832553.0,1.0720450393049558e+16,1383635905012523.5,1906877857829832.2,1102194815.7494318,2951486262.49632,70394288169.3551,2107228405396.925
3.3670905717701234,7616979185702243.0,1.0993675249284372e+16,1418884434739701.8,1955456129468452.5,1190008006.1729865,3186634760.61074,76002706751.99127,2275120024456.406
3.5344323832055258,7805259210797037.0,1.1265545599348158e+16,1453957078428191.8,2003792001216223.8,1281855814.0918772,3432587265.816565,81868807237.53137,2450725656380.951
3.7051210308696363,7992732673380053.0,1.1536260290683052e+16,1488879476334810.0,2051920809564334.8,1377852628.6342926,3689650092.415362,87999895393.71051,2634264005745.6494
3.879223451487029,8179525715941935.0,1.180600158244566e+16,1523675126175934.0,2099874938230867.5,1478117284.600332,3958141459.451372,94403560923.99297,2825962277252.399
4.0568079205167695,8365754406646854.0,1.207493720541105e+16,1558365649030922.0,2147684184619407.2,1582773111.028191,4238391620.763487,101087680569.30972,3026056268562.671
4.237944078927105,8551525950627939.0,1.2343222109994946e+16,1592971014981225.0,2195376070786868.8,1691947991.6870208,4530743026.974693,108060421971.53987,3234790485937.5107
4.422702960505647,8736939723742547.0,1.2610999958106056e+16,1627509735677427.2,2242976108832554.0,1805774436.2632415,4835550516.116821,115330248219.96846,3452418280326.0034
4.61115701971576,8922088159517367.0,1.2878404403169854e+16,1661999029558625.2,2290508028597629.0,1924389661.2538083,5153181530.248868,122905923017.71245,3679202002015.6763
4.803380160110075,9107057513930468.0,1.3145560193889154e+16,1696454964315396.2,2337993974002519.5,2047935679.7763138,5484016355.952927,130796516417.65686,3915413172333.7144
4.9994477633122765,9291928527941776.0,1.3412584130471204e+16,1730892580305420.2,2385454673133938.5,2176559399.663275,5828448387.014109,139011411087.48636,4161332671188.964
5.199436718578522,9476777003965920.0,1.3679585896688788e+16,1765325997938300.0,2432909586238846.5,2310412729.335276,6186884407.930355,147560309071.54037,4417250939488.319
5.403425452950093,9661674309540714.0,1.3946668786899572e+16,1799768511498577.8,2480377035027992.0,2449652691.0513515,6559744897.177858,156453239023.84064,4683468195659.423
5.611493962009095,9846687819104706.0,1.42139303437702e+16,1834232671439626.5,2527874316090404.0,2594441541.2204833,6947464349.384432,165700563892.1019,4960294665675.043
5.823723841249277,1.0031881302917942e+16,1.448146291974166e+16,1868730356831516.2,2575417800738520.0,2744946897.528515,7350491615.753681,175312989037.02875,5248050826109.121
6.040198318074262,1.0217315270646766e+16,1.4749354173087512e+16,1903272839363653.0,2623023023214297.0,2901341872.69387,7769290262.239892,185301570774.9847,5547067659867.79
6.261002284435747,1.0403047275902336e+16,1.5017687507641656e+16,1937870840074012.0,2670704758871470.5,3063805214.714877,8204338945.106341,195677725335.266,5857686924332.717
6.486222330124463,1.0589132187020904e+16,1.5286542463825014e+16,1972534579789816.8,2718477093691073.5,3232521453.5136137,8656131803.612423,206453238225.91333,6180261431735.054
6.715946776726952,1.0775622428548538e+16,1.5555995067411472e+16,2007273824111131.8,2766353486276236.5,3407681053.917004,9125178869.67087,217640274004.26794,6515155341646.489
6.950265712261491,1.0962568197214802e+16,1.5826118141493786e+16,2042097923642248.8,2814346823297667.5,3589480574.9467616,9612006494.398811,229251386450.46072,6862744465533.069
7.18927102650672,1.1150017655616756e+16,1.6096981586297746e+16,2077015850070980.8,2862469469216832.0,3778122835.416527,10117157791.558708,241299529143.73535,7223416583368.577
7.433056447036854,1.1338017106366292e+16,1.636865263081752e+16,2112036228608657.8,2910733310993606.5,3973817085.858072,10641193097.94744,253798066442.99347,7597571772349.389
7.681717575977592,1.152661114906115e+16,1.6641196059678552e+16,2147167367230605.5,2959149798384505.5,4176779186.8192215,11184690450.847292,266760784874.28442,7985622747792.055
7.935351927497144,1.1715842822112884e+16,1.6914674418160848e+16,2182417283095700.8,3007729980353106.0,4387231793.594279,11748246082.702703,280201904929.13403,8387995216329.912
8.194058966047088,1.1905753731185632e+16,1.7189148197915118e+16,2217793726471825.2,3056484538043335.5,4605404547.46467,12332474933.23003,294136093278.66455,8805128241557.51
8.45794014536803,1.2096384165766434e+16,1.7464676005565898e+16,2253304202450522.0,3105423814705766.0,4831534273.542233,12938011179.207867,308578475409.4094,9237474622299.148
8.72709894827539,1.2287773205188272e+16,1.7741314716107718e+16,2288955990696859.5,3154557842916217.5,5065865185.321396,13565508782.233152,323544648687.6175,9685501283705.055
9.0016409272409,1.2479958815257056e+16,1.8019119612756652e+16,2324756163449025.5,3203896369382164.0,5308649096.059278,14215642054.760765,339050695859.6421,10149689681402.41
9.281673745785717,1.2672977936488928e+16,1.829814451470913e+16,2360711601955089.0,3253448877595280.5,5560145637.114274,14889106244.776894,355113198996.7424,10630536218951.057
9.567307220701432,1.286686656483997e+16,1.8578441894081336e+16,2396829011511287.0,3303224608556648.0,5820622483.384788,15586618139.485592,371749253893.3752,11128552678874.756
9.85865336511546,1.3061659825702348e+16,1.886006298314637e+16,2433114935245938.5,3353232579773328.0,6090355586.0003605,16308916688.416067,388976484928.67236,11644266667559.107
10.155826432417769,1.3257392041850762e+16,1.9143057872856708e+16,2469575766776437.5,3403481602701705.5,6369629412.427316,17056763646.384388,406813060401.4719,12178222074325.723
10.458942961066125,1.3454096795939962e+16,1.9427475603518284e+16,2506217761851308.5,3453980298792200.5,6658737194.160503,17830944236.769867,425277708349.8465,12730979545011.303
10.768121820287448,1.3651806988088252e+16,1.971336424838944e+16,2543047049076727.5,3504737114272145.5,6957981182.18208,18632267835.59016,444389732866.7221,13303116970397.256
11.083484256693197,1.3850554889018518e+16,2.000077099088495e+16,2580069639815635.0,3555760333788448.5,7267672910.3772745,19461568676.88376,464169030923.6657,13895229989852.71
11.405153941827061,1.4050372189178072e+16,2.0289742195993856e+16,2617291437337733.5,3607058093017705.5,7588133467.1057415,20319706579.93174,484636109715.5717,14507932510571.533
11.733257020663602,1.4251290044211092e+16,2.058032347645008e+16,2654718245290059.5,3658638390340127.0,7919693775.135971,21207567698.874325,505812104539.468,15141857242798.867
12.067922161076874,1.4453339117118114e+16,2.087255975414011e+16,2692355775550358.5,3710509097662763.5,8262694880.158448,22126065295.300625,527718797221.2494,15797656251460.943
12.409280604298411,1.4656549617400714e+16,2.1166495317177252e+16,2730209655519056.5,3762677970468963.5,8617488248.102283,23076140534.411392,550378635104.6417,16476001524626.373
12.75746621638438,1.4860951337459948e+16,2.1462173873031212e+16,2768285434899372.0,3815152657162617.0,8984436071.487917,24058763305.379368,573814750617.3097,17177585559244.936
13.112615540712067,1.5066573686487532e+16,2.1759638598057772e+16,2806588592010658.0,3867940707768848.5,9363911585.057268,25074933066.553883,598050981429.4788,17903121964624.62
13.474867851526309,1.5273445722066546e+16,2.2058932183742536e+16,2845124539674885.5,3921049582046642.0,9756299390.931452,26125679716.17714,623111891221.0753,18653346084125.336
13.844365208556836,1.54815961796754e+16,2.236009687993819e+16,2883898630712648.0,3974486657063215.5,10161995793.554064,27212064489.30596,649022791073.8401,19429015635562.586
14.221252512727972,1.5691053500270816e+16,2.266317453534968e+16,2922916163081293.5,4028259234275200.5,10581409144.687237,28335180881.65238,675809761505.4995,20230911370832.27
14.605677562982532,1.5901845856107984e+16,2.296820663549623e+16,2962182384684668.0,4082374546157297.0,11014960198.736273,29496155601.083008,703499675163.6086,21059837755283.656
14.997791114242183,1.6114001174941222e+16,2.327523433835717e+16,3001702497881212.5,4136839762415092.5,11463082478.687206,30696149547.537292,732120220197.2118,21916623667383.86
15.397746936527026,1.6327547162734926e+16,2.358429850789005e+16,3041481663714514.5,4191661995815580.5,11926222652.950953,31936358822.15268,761699924325.0781,22802123119236.586
15.805701875257567,1.6542511325002648e+16,2.3895439745591132e+16,3081525005888345.0,4246848307665300.5,12404840923.416372,33218015766.4046,792268179619.8552,23717215998531.53
16.221815912762718,1.6758920986881298e+16,2.420869842025332e+16,3121837614506098.0,4302405712963933.0,12899411425.024233,34542390032.09812,823855268028.0078,24662808832522.305
16.64625223101797,1.6976803312038014e+16,2.452411469606342e+16,3162424549592680.0,4358341185258098.0,13410422637.183193,35910789683.070404,856492387646.1167,25639835574646.19
17.079177275638333,1.7196185320498006e+16,2.4841728559166056e+16,3203290844415528.5,4414661661218193.0,13938377807.358364,37324562329.48844,890211679774.5769,26649258414417.965
17.5207608211511,1.7417093905474918e+16,2.5161579842813468e+16,3244441508619704.0,4471374044959113.5,14483795387.17315,38785096295.65677,925046256770.5372,27692068611248.715
17.97117603757412,1.763955584927704e+16,2.5483708251206644e+16,3285881531190927.0,4528485212123779.0,15047209481.37441,40293821822.27026,961030230722.3608,28769287352860.754
18.430599558325603,1.7863597838357274e+16,2.580815338212769e+16,3327615883259059.0,4586002013746778.0,15629170310.021822,41852212304.07856,998198742968.7184,29881966638985.87
18.899211549492115,1.8089246477568696e+16,2.6134954748452244e+16,3369649520753592.0,4643931279914141.0,16230244684.272081,43461785563.95642,1036587994485.9391,31031190191057.836
19.37719578048196,1.83165283036822e+16,2.6464151798625096e+16,3411987386921774.0,4702279823233630.0,16851016496.139542,45124105164.39961,1076235277168.0007,32218074388627.56
19.864739696091597,1.8545469798218796e+16,2.6795783936175064e+16,3454634414718910.0,4761054442129031.0,17492087222.625088,46840781757.49738,1117179006024.2302,33443769233251.418
20.36203449001343,1.8776097399643588e+16,2.7129890538338096e+16,3497595529079893.0,4820261923970688.0,18154076444.61728,48613474474.46136,1159458752320.4434,34709459340622.773
20.869275179813698,1.9008437514965844e+16,2.7466510973853524e+16,3540875649080056.0,4879909048053527.0,18837622380.979027,50443892355.82144,1203115277689.9727,36016364961740.48
21.38666068340997,1.9242516530785556e+16,2.780568461999281e+16,3584479689992924.5,4940002588432926.0,19543382438.24752,52333795823.42772,1248190569241.8735,37365743033928.1
21.91439389707817,1.9478360823823816e+16,2.8147450878873892e+16,3628412565251775.0,5000549316628102.0,20272033776.383385,54284998195.43251,1294727875694.2056,38758888262541.15
22.452681775019734,1.9715996770970972e+16,2.8491849193114012e+16,3672679188321407.5,5061556004201733.0,21024273891.020298,56299367245.45676,1342771744561.0796,40197134234222.72
23.00173541052013,1.995545075888439e+16,2.883891906086537e+16,3717284474486022.0,5123029425223945.0,21800821212.67669,58378826807.17814,1392368060423.1638,41681854562591.07
23.561770118730532,2.019674919316576e+16,2.918870005027838e+16,3762233342558747.5,5184976358628217.0,22602415723.403915,60525358425.61163,1443564084311.6965,43214464067266.59
24.133005521105144,2.0439918507143496e+16,2.954123181343149e+16,3807530716517636.0,5247403590466307.0,23429819591.359367,62741003056.38932,1496408494237.4585,44796419987170.53
24.715665631527248,2.0684985170287456e+16,2.9896554099765356e+16,3853181527073116.0,5310317916068137.0,24283817823.804573,65027862814.37998,1550951426896.3838,46429223229054.164
25.309978944157795,2.0931975696276596e+16,3.0254706769055264e+16,3899190713170868.5,5373726142113241.0,25165218939.042652,67388102773.02512,1607244520584.9219,48114419652239.57
25.91617852304095,2.118091665074347e+16,3.061572980395514e+16,3945563223434439.5,5437635088618803.0,26074855657.82358,69823952815.80627,1665340959358.688,49853601390583.734
26.53450209350177,2.143183465871369e+16,3.097966332214071e+16,3992304017551052.5,5502051590849659.0,27013585614.75888,72337709541.29472,1725295518469.0996,51648408212700.44
27.165192135371807,2.1684756411759988e+16,3.134654758808191e+16,4039418067604290.0,5566982501154752.0,27982292090.30222,74931738223.2726,1787164611113.54,53500528921506.555
27.808495978079243,2.19397086748873e+16,3.171642302446905e+16,4086910359356626.5,5632434690734850.0,28981884763.86721,77608474827.45697,1851006336535.5059,55411702794181.48
28.464665897640828,2.2196718293165284e+16,3.208933022331709e+16,4134785893484911.5,5698415051345170.0,30013300488.668903,80370428086.396,1916880529512.201,57383721063663.57
29.133959215593645,2.2455812198122892e+16,3.246530995677138e+16,4183049686771564.5,5764930496937080.0,31077504088.89008,83220181634.1471,1984848811267.982,59418428442831.98
29.816638399905518,2.2717017413918908e+16,3.284440318763485e+16,4231706773253998.5,5831987965242140.0,32175489179.789207,86160396202.3894,2054974641853.0676,61517724692555.25
30.51297116790363,2.298036106330115e+16,3.3226651079637584e+16,4280762205334710.5,5899594419302020.0,33308279011.385406,89193811879.67123,2127323374028.0137,63683566234816.12
31.223230591261704,2.324587037336608e+16,3.361209500746612e+16,4330221054854222.0,5967756848947197.0,34476927336.36695,92323250435.5252,2201962308695.3857,65917967812156.82
31.947695203086937,2.3513572681131184e+16,3.400077656657114e+16,4380088414128966.0,6036482272227316.0,35682519302.89264,95551617711.24144,2278960751921.2124,68223004194715.18
32.686649107148675,2.3783495438928332e+16,3.439273758276865e+16,4430369396956112.0,6105777736796015.0,36926172372.96789,98881906079.12625,2358390073589.895,70600811936164.66
33.44038208929165,2.4055666219629908e+16,3.478802012165125e+16,4481069139586998.5,6175650321252436.0,38209037267.097176,102317196972.12442,2440323767737.37,73053591179890.86
34.20918973107749,2.4330112721715668e+16,3.518666649782259e+16,4532192801670970.0,6246107136442076.0,39532298935.93147,105860663485.73111,2524837514608.3096,75583607516783.1
34.993373525699035,2.4606862774188828e+16,3.5588719283970036e+16,4583745567171196.0,6317155326718842.0,40897177559.64804,109515573054.16258,2612009244484.568,78193193896050.39
35.793240996213015,2.4885944341349336e+16,3.5994221319787316e+16,4635732645253806.0,6388802071170502.0,42304929575.81683,113285290202.81563,2701919203333.0894,80884752590500.81
36.60910581613728,2.5167385527432044e+16,3.640321572075944e+16,4688159271151874.0,6461054584809321.0,43756848736.530464,117173279379.08421,2794650020322.6846,83660757217770.03
37.44128793246003,2.545121458111586e+16,3.681574588682234e+16,4741030707005417.0,6533920119729798.0,45254267195.58858,121183107863.66177,2890286777260.4204,86523754819010.17
38.29011369110923,2.573745989991123e+16,3.723185551090675e+16,4794352242678620.0,6607405966234848.0,46798556626.55327,125318448764.5059,2988917079999.5605,89476367996596.69
39.15591596493141,2.602615003443092e+16,3.765158858737664e+16,4848129196555479.0,6681519453932442.0,48391129372.50553,129583084095.70032,3090631131872.37,92521297112441.94
40.03903428423004,2.6317313692550584e+16,3.807498942037411e+16,4902366916314761.0,6756267952803469.0,50033439628.36031,133980907943.49773,3195521809202.0786,95661322548547.95
40.93981496991464,2.6610979743463692e+16,3.850210263207686e+16,4957070779685400.0,6831658874242986.0,51726984656.61351,138515929721.88882,3303684738950.202,98899307031463.27
41.85861126931294,2.6907177221636e+16,3.89329731708788e+16,5012246195183113.0,6907699672075258.0,53473306037.41609,143192277520.0971,3415218378556.2124,102238198022359.5
42.7957834946992,2.7205935330664372e+16,3.936764631950293e+16,5067898602829176.0,6984397843544402.0,55273990953.89389,148014201544.45477,3530224098028.1543,105681030174468.0
43.751699164593184,2.7507283447043184e+16,3.980616770305197e+16,5124033474852134.0,7061760930281407.0,57130673513.65506,152986077657.17957,3648806264344.364,109230927859674.1
