t(s),Total solute volume 1,Total retention volume 1,Total 1 volume 1,Total 2 volume 1,Total 3 volume 1,Total 4 volume 1,Total 5 volume 1,Total 6 volume 1
0.1,1373795654025336.8,3540173632894849.0,759959875137435.1,1406418103732074.5,0.0,0.0,0.0,-1.66771727949885e-108
0.202,2034586609685178.5,5342972604324015.0,1125498029541993.6,2082901282623781.8,15641294593.517,65886510111.53143,3001564030237.1343,96903590638116.47
0.30604000000000003,2521589667544985.0,6754434993011652.0,1394899687601907.5,2581469177171272.0,39157981601.79416,164953053311.0378,7532469366619.169,248739880291957.03
0.41216080000000005,2918669144671526.5,7976006987159507.0,1614557175352139.5,2987978050528362.0,68668074695.230705,289268900265.9753,13222395837750.576,441222283794768.94
0.5204040160000001,3258407070791801.5,9084882384957428.0,1802494310098604.2,3335783686175970.5,103243060399.29117,434922221355.9344,19891261113017.523,667767891496281.4
0.6308120963200001,3557320298428227.0,1.011963910166206e+16,1967847929108929.5,3641795166814014.0,142314561432.67322,599518546638.0276,27429156578557.027,924504717624258.2
0.7434283382464002,3825150717862967.5,1.1102710091571702e+16,2116007077449460.0,3915985723616960.5,185494511689.7078,781423058404.0618,35761136806118.77,1208838518266106.2
0.8582969050113283,4068226372336101.5,1.2048477402480944e+16,2250472319025276.0,4164833671197553.5,232500236601.469,979444941793.807,44832653553929.79,1518900441189674.8
0.9754628431115548,4290942175872878.5,1.2966815817203362e+16,2373674844115059.5,4392838288797196.0,283117018532.538,1192679672668.826,54602297429165.9,1853282414297864.5
1.094972099973786,4496504302894443.5,1.38648614006748e+16,2487388252833282.5,4603281887104608.0,337177061343.59735,1420420397112.2952,65037724972004.57,2210891635412008.5
1.2168715419732616,4687341568791446.0,1.4747981343668394e+16,2592956123745067.0,4798650957924066.0,394546651378.88745,1662103842478.872,76113174881705.45,2590862867832249.0
1.3412089728127268,4865349602295971.0,1.5620345062130426e+16,2691427085794990.5,4980886144907952.0,455117823710.8813,1917275208780.6206,87807856757873.23,2992501979341125.5
1.4680331522689813,5032044103097439.0,1.6485279795381826e+16,2783639597765896.5,5151539140570092.0,518802688652.22546,2185564267468.1516,100104854662206.12,3415247732330087.0
1.597393815314361,5188661463474168.0,1.7345502208171124e+16,2870277610422370.5,5311875697366785.0,585529419663.336,2466668459420.9595,112990352025959.78,3858644887002758.0
1.729341691620648,5336227325000677.0,1.8203274929627876e+16,2951908490893271.5,5462945812409151.0,655239326726.005,2760340565814.253,126453066422871.0,4322324655009333.5
1.863928525453061,5475604761578822.0,1.9060515699491724e+16,3029009676689586.0,5605633054687439.0,727884665738.3832,3066379479698.9,140483826600278.8,4805990115790169.0
2.001207095962122,5607529049930224.0,1.9918875512856096e+16,3101987910138205.0,5740690161250789.0,803426962767.6492,3384623146566.8325,155075248996095.16,5309405092431433.0
2.1412312378813647,5732633338701199.0,2.0779795862515084e+16,3171193438085791.5,5868765315870395.0,881835708124.4061,3714943062891.381,170221485700717.56,5832385505385965.0
2.284055862638992,5851467977774957.0,2.1644551514576604e+16,3236930704539207.0,5990421937359860.0,963087322217.727,4057239919614.567,185918024913624.38,6374792542747130.0
2.4297369798917723,5964515329313092.0,2.2514283040170296e+16,3299466543876928.0,6106153842330610.0,1047164325157.8187,4411440103972.366,202161530747398.1,6936527189473149.0
2.578331719489608,6072201293173014.0,2.3390021945999588e+16,3359036556510102.0,6216397044300102.0,1134054661804.3694,4777492856172.628,218949713046604.9,7517525791451814.0
2.7298983538794,6174904399946126.0,2.4272710361238324e+16,3415850138993611.0,6321539062659642.0,1223751147269.6885,5155367933517.093,236281220461901.12,8117756420096246.0
2.884496320956988,6272963074257030.0,2.5163216656125144e+16,3470094501957251.0,6421926358453051.0,1316251007071.5242,5545053673256.786,254155551794953.4,8737215864982528.0
3.0421862473761276,6366681501715669.0,2.6062347976190388e+16,3521937915601920.5,6517870340649333.0,1411555492598.511,5946555372718.667,272572981879581.8,9375927125478596.0
3.2030299723236504,6456334416308568.0,2.697086040757271e+16,3571532358001409.0,6609652267218619.0,1509669557188.744,6359893924778.326,291534499160496.0,1.0033937303401642e+16
3.3670905717701234,6542171043219544.0,2.7889467301389852e+16,3619015696202475.5,6697527281581638.0,1610601581501.492,6785104660990.521,311041752783851.06,1.0711315821359846e+16
3.5344323832055258,6624418373747936.0,2.8818846152035424e+16,3664513497852756.0,6781727765296307.0,1714363139361.3606,7222236365218.688,331097007496617.44,1.1408152908137226e+16
3.7051210308696363,6703283906782830.0,2.9759644328377148e+16,3708140547736802.5,6862466144632791.0,1820968797127.7732,7671350428496.722,351703105013563.1,1.2124558304985524e+16
3.879223451487029,6778957960325049.0,3.0712483886792604e+16,3750002126469941.5,6939937256986310.0,1930435941063.9104,8132520121844.532,372863430785195.0,1.2860660156163192e+16
4.0568079205167695,6851615633542915.0,3.1677965643175612e+16,3790195095873459.0,7014320359525119.0,2042784628270.2417,8605829968354.416,394581885310604.2,1.3616604054326894e+16
4.237944078927105,6921418482558426.0,3.2656672642287572e+16,3828808825990485.0,7085780844770928.0,2158037457593.362,9091375199427.738,416862859302495.25,1.4392552217008244e+16
4.422702960505647,6988515960027552.0,3.3649173133518164e+16,3865925991436802.0,7154471714364337.0,2276219457582.99,9589261282830.719,439711212139479.06,1.5188682774809598e+16
4.61115701971576,7053046658502632.0,3.4656023139732184e+16,3901623259207380.0,7220534851952815.0,2397357989092.7227,10099603512440.54,463132253141660.1,1.6005189155426182e+16
4.803380160110075,7115139389763775.0,3.567776868862331e+16,3935971885743760.5,7284102128152580.0,2521482660536.512,10622526651306.555,487131725285906.94,1.6842279550365446e+16
4.9994477633122765,7174914126213611.0,3.671494776257668e+16,3969038237697303.5,7345296364298210.0,2648625254146.8486,11158164621059.2,511715791041703.4,1.7700176453450664e+16
5.199436718578522,7232482825633111.0,3.7768092012526024e+16,4000884248169797.0,7404232176783607.0,2778819661850.6094,11706660231835.709,536891020060544.44,1.8579116261985284e+16
5.403425452950093,7287950156791472.0,3.8837728272984776e+16,4031567818108257.5,7461016719902582.0,2912101829598.167,12268164947817.895,562664378494294.6,1.9479348932910744e+16
5.611493962009095,7341414140363470.0,3.9924379908825304e+16,4061143170849291.0,7515750341985787.0,3048509709161.1147,12842838684233.63,589043219752579.9,2.0401137687480748e+16
5.823723841249277,7392966717163450.0,4.1028568019090024e+16,4089661166456246.0,7568527167128276.0,3188083216562.2427,13430849632299.312,616035276537903.6,2.1344758758955264e+16
6.040198318074262,7442694253726718.0,4.2150812518858056e+16,4117169581398114.5,7619435612776716.0,3330864196423.8237,14032374109095.088,643648654020833.5,2.2310501178630156e+16
6.261002284435747,7490677993659191.0,4.329163311673522e+16,4143713358228269.0,7668558851797017.0,3476896391622.583,14647596429797.19,671891824037323.5,2.329866659619197e+16
6.486222330124463,7536994461857406.0,4.445155020272141e+16,4169334829191992.0,7715975226293083.0,3626225417725.066,15276708800049.826,700773620206715.9,2.4309569130954396e+16
6.715946776726952,7581715827616467.0,4.56310856589019e+16,4194073917091480.0,7761758619337396.0,3778898741749.117,15919911226562.895,730303233882852.2,2.534353525100542e+16
6.950265712261491,7624910231745957.0,4.6830763603509336e+16,4217968316240677.0,7805978789854691.0,3934965664857.5913,16577411444277.062,760490210862402.9,2.6400903677696516e+16
7.18927102650672,7666642082067997.0,4.805111107733144e+16,4241053655929694.5,7848701675137101.0,4094477308642.2925,17249424858654.604,791344448784483.1,2.7482025313244816e+16
7.433056447036854,7706972321049190.0,4.929265868013231e+16,4263363648474129.5,7889989664831400.0,4257486604699.5454,17936174501839.13,822876195164074.8,2.8587263189506988e+16
7.681717575977592,7745958668795861.0,5.055594116366691e+16,4284930223635825.5,7929901849704485.0,4424048287236.724,18637891001585.305,855096046008993.0,2.9716992436232976e+16
7.935351927497144,7783655844202530.0,5.184149798694867e+16,4305783650958370.5,7968494248043365.0,4594218888480.828,19354812561995.617,888014944976379.4,3.0871600267317588e+16
8.194058966047088,7820115766672083.0,5.314987383866701e+16,4325952651355170.0,8005820012165441.0,4768056736688.399,20087184955216.96,921644183029998.6,3.2051485983752428e+16
8.45794014536803,7855387740510524.0,5.4481619130997496e+16,4345464499113467.0,8041929617192020.0,4945621956579.565,20835261523352.67,955995398564320.6,3.325706099213722e+16
8.72709894827539,7889518623831190.0,5.583729046849729e+16,4364345115329179.0,8076871033963367.0,5126976472040.258,21599303189931.46,991080577965299.0,3.4488748837746304e+16
9.0016409272409,7922552983573428.0,5.721745109531142e+16,4382619153660543.0,8110689887738487.0,5312184010954.359,22379578480352.285,1026912056581308.0,3.574698525126638e+16
9.281673745785717,7954533238044358.0,5.8622671323513384e+16,4400310079179784.5,8143429604121785.0,5501310112043.797,23176363550790.496,1063502520080739.4,3.703221820842386e+16
9.567307220701432,7985499788223156.0,6.005352894506303e+16,4417440241008306.5,8175131543485349.0,5694422133608.041,23989942225108.59,1100865006175407.6,3.8344908001812136e+16
9.85865336511546,8015491138921326.0,6.151060962957061e+16,4434030939340457.5,8205835125006268.0,5891589264066.931,24820606039367.35,1139012906691318.5,3.9685527324307864e+16
10.155826432417769,8044544010765969.0,6.299450730980163e+16,4450102487390816.5,8235577941309248.0,6092882534221.471,25668654293576.71,1177959969970370.0,4.1054561363537464e+16
10.458942961066125,8072693443864170.0,6.450582455664096e+16,4465674268739383.0,8264395864592481.0,6298374831156.619,26534394110368.17,1217720303588399.2,4.245250790691496e+16
10.768121820287448,8099972893910251.0,6.604517294504356e+16,4480764790496585.5,8292323145017230.0,6508140913718.712,27418140500303.51,1258308377376680.8,4.387987745682876e+16
11.083484256693197,8126414321415679.0,6.761317341233695e+16,4495391732663602.0,8319392502056472.0,6722257429507.434,28320216433568.043,1299739026735309.2,4.533719335560284e+16
11.405153941827061,8152048274667482.0,6.92104566100974e+16,4509571994023610.0,8345635209423494.0,6940802933329.236,29240952917824.273,1342027456228307.5,4.682499191990335e+16
11.733257020663602,8176903966958494.0,7.083766325069611e+16,4523321734864140.0,8371081174135855.0,7163857907064.843,30180689082026.81,1385189243451364.0,4.834382258429713e+16
12.067922161076874,8201009348575516.0,7.249544444950661e+16,4536656416799706.0,8395759010213121.0,7391504780908.936,31139772266022.27,1429240343164215.5,4.989424805370718e+16
12.409280604298411,8224391173983115.0,7.418446206366699e+16,4549590839936728.0,8419696107456000.0,7623827955945.187,32118558115778.82,1474197091680552.5,5.147684446453878e+16
12.75746621638438,8247075064596463.0,7.590538902820544e+16,4562139177598376.0,8442918695709829.0,7860913828023.556,33117410684107.08,1520076211509241.2,5.309220155427939e+16
13.112615540712067,8269085567498647.0,7.765890969027307e+16,4574315008805938.0,8465451904976174.0,8102850812911.707,34136702536752.598,1566894816241332.8,5.474092283940125e+16
13.474867851526309,8290446210423147.0,7.94457201421501e+16,4586131348694164.0,8487319821700972.0,8349729372694.896,35176814863753.645,1614670415678102.0,5.642362580141719e+16
13.844365208556836,8311179553292239.0,8.126652855364944e+16,4597600677021499.0,8508545541536762.0,8601642043402.758,36238137595972.62,1663420921195948.0,5.814094208096349e+16
14.221252512727972,8331307236574799.0,8.312205550447931e+16,4608734964920665.0,8529151218848801.0,8858683463844.127,37321069526722.03,1713164651344554.2,5.989351767979995e+16
14.605677562982532,8350850026702960.0,8.501303431709325e+16,4619545700022462.0,8549158113210202.0,9120950405633.596,38426018438417.24,1763920337675258.5,6.1682013170638296e+16
14.997791114242183,8369827858765375.0,8.69402113905049e+16,4630043910072861.0,8568586633109077.0,9388541804396.541,39553401234198.92,1815707130797045.5,6.3507103914722056e+16
15.397746936527026,8388259876675847.0,8.89043465355249e+16,4640240185153685.0,8587456377070917.0,9661558792140.688,40703644074477.33,1868544606658063.0,6.536948028709985e+16
15.805701875257567,8406164470998413.0,9.09062133118308e+16,4650144698606661.0,8605786172381946.0,9940104730785.809,41877182518360.805,1922452773050863.0,6.726984790954396e+16
16.221815912762718,8423559314594583.0,9.294659936726885e+16,4659767226752993.0,8623594111582825.0,10224285246843.64,43074461669938.27,1977452076340117.8,6.920892789108178e+16
16.64625223101797,8440461396244555.0,9.502630677975011e+16,4669117167491943.0,8640897586888306.0,10514208267243.291,44295936329392.375,2033563408411763.0,7.1187457076116824e+16
17.079177275638333,8456887052381429.0,9.714615240208946e+16,4678203557855659.0,8657713322674932.0,10809984056297.771,45542071148930.16,2090808113842910.2,7.320618830012939e+16
17.5207608211511,8472851997066036.0,9.93069682101175e+16,4687035090590761.0,8674057406167710.0,11111725253810.47,46813340793520.305,2149207997292210.2,7.526589065295346e+16
17.97117603757412,8488371350319916.0,1.01509601654369e+17,4695620129831636.0,8689945316445897.0,11419546914320.047,48110230106437.59,2208785331110563.0,7.736734974964021e+16
18.430599558325603,8503459664924363.0,1.0375491601565178e+17,4703966725925166.0,8705391951878426.0,11733566547485.3,49433234279616.914,2269562863172412.0,7.95113680089244e+16
18.899211549492115,8518130951785277.0,1.0604379076477403e+17,4712082629462228.0,8720411656091051.0,12053904159611.988,50782859028825.37,2331563824928052.5,8.169876493931899e+16
19.37719578048196,8532398703955579.0,1.0837712192670035e+17,4719975304566331.0,8735018242559233.0,12380682296324.684,52159620773669.6,2394811939677694.0,8.393037743287149e+16
19.864739696091597,8546275919400136.0,1.1075582244940067e+17,4727651941486922.0,8749225017913659.0,12714026086388.666,53564046822456.234,2459331431068140.0,8.620706006662302e+16
20.36203449001343,8559775122581891.0,1.1318082257764022e+17,4735119468540336.0,8763044804038929.0,13054063286687.344,54996675561929.945,2525147031813316.5,8.852968541181707e+16
20.869275179813698,8572908384941606.0,1.1565307023195603e+17,4742384563438926.0,8776489959039657.0,13400924328362.033,56458056651918.734,2592283992639920.5,9.089914435091563e+16
21.38666068340997,8585687344338897.0,1.181735313930551e+17,4749453664045456.0,8789572397143155.0,13754742364121.812,57948751224919.89,2660768091459769.5,9.331634640247883e+16
21.91439389707817,8598123223517076.0,1.2074319049186514e+17,4756332978587558.0,8802303607602704.0,14115653316732.264,59469332090662.29,2730625642770565.0,9.578222005397989e+16
22.452681775019734,8610226847649723.0,1.2336305080546315e+17,4763028495364152.0,8814694672660879.0,14483795928692.902,61020383945688.55,2801883507287068.0,9.829771310262691e+16
23.00173541052013,8622008661023253.0,1.2603413485910029e+17,4769545991974004.0,8826756284628197.0,14859311813113.707,62602503588000.195,2874569101804618.5,1.0086379300426914e+17
23.561770118730532,8633478742905640.0,1.2875748483454224e+17,4775891044093962.0,8838498762128674.0,15242345505802.207,64216300136816.56,2948710409297390.5,1.0348144723047389e+17
24.133005521105144,8644646822648085.0,1.3153416298493451e+17,4782069033833029.0,8849932065560153.0,15633044518573.736,65862395257497.3,3024335989253764.5,1.061516836338634e+17
24.715665631527248,8655522294063503.0,1.3436525205640669e+17,4788085157686207.0,8861065811814172.0,16031559393797.418,67541423391686.805,3101474988251344.0,1.0887553082180614e+17
25.309978944157795,8666114229122387.0,1.3725185571661862e+17,4793944434110856.0,8871909288297119.0,16438043760192.326,69254031992737.39,3180157150774365.5,1.1165403853856109e+17
25.91617852304095,8676431391004267.0,1.4019509899045832e+17,4799651710746515.0,8882471466291496.0,16852654389888.162,71000881766475.23,3260412830276445.0,1.1448827805598315e+17
26.53450209350177,8686482246540208.0,1.4319612870309314e+17,4805211671297906.0,8892761013694113.0,17275551256765.672,72782646917373.4,3342273000491557.0,1.1737934257289515e+17
27.165192135371807,8696274978079945.0,1.462561139305801e+17,4810628842099569.0,8902786307164726.0,17706897596093.586,74600015400200.9,3425769266996502.0,1.2032834762324317e+17
27.808495978079243,8705817494814324.0,1.4937624645823517e+17,4815907598379305.0,8912555443717610.0,18146859965478.094,76453689177218.86,3510933879028078.0,1.2333643149315306e+17
28.464665897640828,8715117443582886.0,1.5255774124696186e+17,4821052170236698.0,8922076251785623.0,18595608307142.973,78344384480999.89,3597799741558486.0,1.2640475564701024e+17
29.133959215593645,8724182219193448.0,1.558018369077492e+17,4826066648351767.0,8931356301784931.0,19053316011558.164,80272832082945.72,3686400427632432.0,1.2953450516269205e+17
29.816638399905518,8733018974279726.0,1.5910979618452742e+17,4830954989437985.0,8940402916206673.0,19520159982436.234,82239777567585.06,3776770190969681.0,1.3272688917608355e+17
30.51297116790363,8741634628720976.0,1.624829064455983e+17,4835721021453100.0,8949223179260257.0,19996320703115.72,84245981612734.08,3868943978836888.0,1.3598314133501165e+17
31.223230591261704,8750035878646386.0,1.6592248018383136e+17,4840368448580186.0,8957823946091695.0,20481982304351.414,86292220275605.3,3962957445192595.0,1.3930452026274035e+17
31.947695203086937,8758229205045563.0,1.6942985552583232e+17,4844900855990845.0,8966211851598401.0,20977332633533.7,88379285284954.7,4058846964109557.0,1.4269231003116958e+17
32.686649107148675,8766220882005151.0,1.730063967502974e+17,4849321714401519.0,8974393318861521.0,21482563325356.06,90507984339355.23,4156649643478548.0,1.4614782064388592e+17
33.44038208929165,8774016984590452.0,1.766534948157426e+17,4853634384433482.0,8982374567214665.0,21997869873955.94,92679141411695.38,4256403338997915.0,1.496723885292205e+17
34.20918973107749,8781623396389882.0,1.803725678978308e+17,4857842120786338.0,8990161619967552.0,22523451706548.617,94893597059994.89,4358146668453484.0,1.532673770434671e+17
34.993373525699035,8789045816739061.0,1.8416506193649507e+17,4861948076234199.0,8997760311801569.0,23059512258579.43,97152208744640.36,4461919026293207.5,1.56934176984424e+17
35.793240996213015,8796289767640263.0,1.8803245119307446e+17,4865955305453448.0,9005176295853638.0,23606259050418.156,99455851152139.6,4567760598501349.0,1.6067420711542288e+17
36.60910581613728,8803360600392186.0,1.9197623881766973e+17,4869866768690218.0,9012415050503388.0,24163903765619.066,101805416525503.44,4675712377777014.0,1.644889147000163e+17
37.44128793246003,8810263501944281.0,1.9599795742693997e+17,4873685335275450.0,9019481885878296.0,24732662330772.453,104201815001357.48,4785816179021802.0,1.6837977604748822e+17
38.29011369110923,8817003500988621.0,2.0009916969254518e+17,4877413786994876.0,9026381950090380.0,25312754996974.48,106645974953896.97,4898114655141991.0,1.723482970693782e+17
39.15591596493141,8823585473802291.0,2.042814689404656e+17,4881054821320863.0,9033120235217138.0,25904406422939.52,109138843345796.16,5012651313169859.0,1.763960138471867e+17
40.03903428423004,8830014149851863.0,2.0854647976141136e+17,4884611054512733.0,9039701583039254.0,26507845759784.043,111681386086186.62,5129470530710027.0,1.8052449321145142e+17
40.93981496991464,8836294117171386.0,2.1289585863254634e+17,4888085024591835.0,9046130690546312.0,27123306737508.62,114274588395822.92,5248617572715787.0,1.8473533333238778e+17
41.85861126931294,8842429827524533.0,2.1733129455075203e+17,4891479194197040.0,9052412115221346.0,27751027753206.74,116919455179554.77,5370138608601131.0,1.8903016432227517e+17
