t(s),Total solute volume 1,Total retention volume 1,Total 1 volume 1,Total 2 volume 1,Total 3 volume 1,Total 4 volume 1,Total 5 volume 1,Total 6 volume 1
0.1,803801399340899.0,888695292650996.4,42833262785020.44,42060630525076.21,0.0,0.0,0.0,0.0
0.202,1211235227581461.0,1339160654964613.0,64544745616335.81,63380478787078.234,614545.582769718,976952.1899158915,10664884.354106244,190723354.80620405
0.30604000000000003,1521494283677588.5,1682188191104209.8,81077943630976.25,79615448761442.8,1559321.3876728234,2478876.349743637,27060636.6186485,483935369.17798334
0.41216080000000005,1783920718803995.8,1972331327449772.5,95062219448462.97,93347474332412.08,2769847.0089205448,4403266.97250872,48068247.2933396,859623540.3931036
0.5204040160000001,2016973090617336.5,2229998122172781.0,107481199440198.31,105542439092289.31,4217515.489813188,6704647.14670105,73191266.47424486,1308909527.074752
0.6308120963200001,2229845996497204.2,2465354259665914.5,118824848673448.11,116681470053857.9,5886986.269986497,9358629.753027154,102163471.74037306,1827032317.8729563
0.7434283382464002,2427882913433102.0,2684307568063018.5,129377912303770.4,127044176101678.88,7769492.172112602,12351277.478395654,134832716.20113164,2411270984.226472
0.8582969050113283,2614506758118954.0,2890642475512726.0,139322791967427.0,136809668686927.05,9860089.978186337,15674732.015360959,171113214.52353618,3060091378.635589
0.9754628431115548,2792063035214026.5,3086952207524575.5,148784475774236.3,146100681367154.03,12156305.929178579,19325060.792494178,210962036.71938482,3772725758.675258
1.094972099973786,2962240624516209.5,3275104015545999.0,157852961368328.66,155005588396912.0,14657385.68276995,23301064.620911043,254366091.79892397,4548940008.205778
1.2168715419732616,3126302770346253.0,3456494562258955.0,166595564974911.28,163590491742298.12,17363843.670557506,27603561.300657246,301334307.2499975,5388893778.688673
1.3412089728127268,3285223310762087.5,3632200538617070.0,175064180832446.7,171906349566527.62,20277175.625138856,32234928.620702554,351892640.19191366,6293051270.975204
1.4680331522689813,3439771655140768.0,3803072616314791.5,183299809509114.16,179993422864018.78,23399666.680034053,37198799.29251194,406080747.1144018,7262121678.495703
1.597393815314361,3590568238284349.5,3969796758662935.0,191335512961472.12,187884177215310.9,26734258.70478591,42499850.05066869,463949681.59242237,8297018014.298695
1.729341691620648,3738122076872253.0,4132935743553836.5,199198415856427.22,195605248008920.2,30284456.069696233,48143651.845666535,525560258.91434145,9398827864.856401
1.863928525453061,3882857008059341.0,4292958173239654.5,206911103783241.2,203178813432209.03,34054257.3037625,54136561.19951121,590981870.0643662,10568792179.908009
2.001207095962122,4025130512090883.0,4450259284898279.5,214492626281380.5,210623579409644.22,38048104.77465355,60485640.277666144,660291621.0003397,11808291005.14647
2.1412312378813647,4165247525936177.5,4605176223158345.0,221959232940523.56,217955502412107.53,42270847.209165394,67198597.04186484,733573632.1429406,13118826459.056145
2.284055862638992,4303470783689534.0,4757999472643471.0,229324924432711.5,225188330569013.44,46727711.73496147,74283741.20211501,810918628.2311611,14502022134.099495
2.4297369798917723,4440028693030653.0,4908981566271145.0,236601872229883.12,232334015801647.47,51424282.90368219,81749950.6045237,892423524.2945502,15959611205.341925
2.578331719489608,4575121427964772.0,5058343821483419.0,243800743277609.75,239403032643775.3,56366487.1479966,89606646.58863947,978191168.4114804,17493432951.33873
2.7298983538794,4708925707041165.0,5206281623115609.0,250930954618549.5,246404628272170.1,61560581.42024324,97863775.92613396,1068330144.5425111,19105429228.1102
2.884496320956988,4841598587170136.0,5352968617896654.0,258000875558757.06,253347021026215.34,67013145.14134587,106531798.02187574,1162954632.8107715,20797641970.458645
3.0421862473761276,4973280509571955.0,5498560082095576.0,265017989981321.25,260237559793705.75,72731074.8064319,115621676.338405,1262184315.8871248,22572211517.800846
3.2030299723236504,5104097770113827.0,5643195652763323.0,271989027986584.22,267082853276526.03,78721580.75484751,125144873.26118197,1366144322.936516,24431375611.72736
3.3670905717701234,5234164541345260.0,5787001563326062.0,278920073643106.44,273888875797988.25,84992185.72921014,135113347.80789632,1474965204.6116166,26377468948.794983
3.5344323832055258,5363584541595743.0,5930092488965245.0,285816653931146.4,280661054641934.03,91550724.93422943,145539555.72197866,1588782934.0735831,28412923198.77592
3.7051210308696363,5492452423450031.0,6072573081738117.0,292683812732242.6,287404342707687.94,98405347.37025777,156436451.5925711,1707738930.1346817,30540267418.52335
3.879223451487029,5620854937060320.0,6214539256754311.0,299526172820223.06,294123279382859.0,105564518.26507129,167817492.72037128,1831980099.459748,32762128806.675114
4.0568079205167695,5748871911270791.0,6356079276923619.0,306347988143718.06,300822041882780.25,113037022.46448502,179696644.50774875,1961658895.4074006,35081233755.93464
4.237944078927105,5876577086176675.0,6497274673447448.0,313153188191883.9,307504488815951.6,120831968.6710737,192088387.19710767,2096933391.5893695,37500409168.56299
4.422702960505647,6004038823657752.0,6638201031397417.0,319945415857558.8,314174197364219.56,128958794.44264293,205007723.8170397,2237967368.6146765,40022584007.66148
4.61115701971576,6131320717009219.0,6778928663734705.0,326728059923508.4,320834495183029.5,137427271.87973517,218470189.2238385,2384930412.791358,42650791062.29805
4.803380160110075,6258482116611443.0,6919523192500452.0,333504283074498.56,327488487908213.0,146247513.94545552,232491860.14823386,2537998025.801641,45388168908.87533
4.9994477633122765,6385578585324396.0,7060046052309564.0,340277046164525.9,334139082985483.2,155429981.37216392,247089366.17506537,2697351744.561615,48237964054.63421
5.199436718578522,6512662294737830.0,7200554928453154.0,347049129332336.94,340789010405069.2,164985490.11864626,262279901.5980694,2863179270.633989,51203533251.99944
5.403425452950093,6639782371386484.0,7341104139682371.0,353823150450675.5,347440840818173.6,174925219.34879926,278081238.1037165,3035674608.6912975,54288345974.77844
5.611493962009095,6766985200431397.0,7481744973965826.0,360601581308961.56,354097001427745.06,185260719.9089243,294511738.2477098,3215038213.63209,57495987049.10498
5.823723841249277,6894314693016668.0,7622525984086319.0,367386761860293.94,360759789978493.94,196003923.2857905,311590369.69574744,3401477146.0403204,60830159433.589226
6.040198318074262,7021812522470714.0,7763493248791831.0,374180912808232.7,367431387116631.0,207167151.03178376,329336720.2068435,3595205235.750702,64294687144.43039
6.261002284435747,7149518333675420.0,7904690604280433.0,380986146763738.44,374113867345553.56,218763124.64701375,347771013.34306014,3796443253.3441954,67893518322.34569
6.486222330124463,7277469929237024.0,8046159850037199.0,387804478165912.5,380809208767640.25,230804975.91121897,366914124.89431363,4005419089.449339,71630728439.09778
6.715946776726952,7405703435526465.0,8187940932414587.0,394637832130016.8,387519301772664.06,243306257.66086507,386787600.0108838,4222367941.7694435,75510523642.18459
6.950265712261491,7534253451190108.0,8330072108831778.0,401488052361366.8,394245956808935.06,256280955.00900084,407413671.0398146,4447532509.793603,79537244236.94414
7.18927102650672,7663153180344791.0,8472590095041167.0,408356908253080.8,400990911353021.7,269743497.0073594,428815276.0643272,4681163197.182373,83715368305.90814
7.433056447036854,7792434552349516.0,8615530197553719.0,415246101268513.0,407755836177052.6,283708768.7518138,451016078.14806294,4923518321.8476,88049515465.75339
7.681717575977592,7922128329776001.0,8758926433017057.0,422157270694832.25,414542340998513.3,298192123.93378234,474040485.2882577,5174864333.771214,92544450762.65343
7.935351927497144,8052264205975358.0,8902811636091003.0,429091998842189.44,421351979585629.1,313209397.84146345,497913671.0839993,5435476040.630483,97205088707.23543
8.194058966047088,8182870893446632.0,9047217557153602.0,436051815752728.25,428186254381440.56,328776920.8159206,522661596.12759227,5705636841.3168,102036497450.70137
8.45794014536803,8313976204052228.0,9192174950993242.0,443038203475142.6,435046620701245.8,344911532.16811466,548311030.1286873,5985638967.45392,107043903104.007
8.72709894827539,8445607121988377.0,9337713657490568.0,450052599953144.44,441934490550935.4,361630594.56392175,574889574.7823634,6275783733.037371,112232694202.27522
9.0016409272409,8577789870301809.0,9483862675165262.0,457096402570035.25,448851236107621.7,378952008.88503283,602425687.3937504,6576381792.332779,117608426316.90707
9.281673745785717,8710549971644483.0,9630650228352622.0,464170971386225.3,455798192898760.44,396894229.57446957,630948705.273041,6887753406.184143,123176826818.0918
9.567307220701432,8843912303872454.0,9778103828679580.0,471277632101999.1,462776662711481.1,415476280.4762047,660488870.9159847,7210228716.896641,128943799790.65845
9.85865336511546,8977901151021376.0,9926250331429562.0,478417678773931.8,469787916259987.25,434717771.17906624,691077357.9860541,7544148031.871251,134915431106.44102
10.155826432417769,9112540250127966.0,1.007511598731445e+16,485592376309910.1,476833195635588.2,454638913.87580484,722746298.1155877,7889862116.179324,141097993656.51938
10.458942961066125,9247852834311266.0,1.0224726490111746e+16,492802962764876.56,483913716561023.75,475260540.74884605,755528808.5441887,8247732494.277422,147497952746.91898
10.768121820287448,9383861672480602.0,1.0375107020572232e+16,500050651456795.75,491030670468267.4,496604121.8948714,789459020.6137284,8618131761.072956,154121971661.5376
11.083484256693197,9520589105995168.0,1.0526282286957346e+16,507336632920181.44,498185226416809.25,518691783.80095565,824572109.1401699,9001443902.561855,160976917396.24777
11.405153941827061,9658057082564062.0,1.0678276562526038e+16,514662076712583.8,505378532867564.4,541546328.3856227,860904322.6834171,9398064626.269566,168069866568.32065
11.733257020663602,9796287187644576.0,1.0831113720255648e+16,522028133087742.25,512611719325838.6,565191252.6186892,898493014.7373308,9808401701.736782,175408111505.47723
12.067922161076874,9935300673567934.0,1.0984817265050248e+16,529435934547650.06,519885897865401.94,589650768.7343988,937376675.862851,10232875311.300838,182999166519.06985
12.409280604298411,1.0075118486597978e+16,1.1139410363664426e+16,536886597284473.8,527202164544398.4,614949825.0528507,977594966.7881836,10671918411.433935,190850774366.04266
12.75746621638438,1.0215761292107154e+16,1.1294915872544884e+16,544381222522134.8,534561600722721.0,641114127.4253246,1019188752.5007695,11125977104.908144,198970912904.51926
13.112615540712067,1.0357249498034122e+16,1.1451356363773232e+16,551920897766330.75,541965274289494.7,668170161.3196207,1062200137.3567108,11595511024.067602,207367801948.0182
13.474867851526309,1.0499603276772222e+16,1.1608754149273348e+16,559506697970930.4,549414240808425.5,696145214.5620924,1106672501.2341602,12080993725.496714,216049910323.46982
13.844365208556836,1.0642842585621398e+16,1.17671313034314e+16,567139686627831.6,556909544587999.0,725067400.7536037,1152650536.758058,12582913096.384243,225025963138.38123
14.221252512727972,1.0786987185924814e+16,1.192650968426136e+16,574820916786710.1,564452219682842.1,754965683.3771884,1200180287.6244497,13101771772.890497,234304949262.66788
14.605677562982532,1.093205666099801e+16,1.2086910953236076e+16,582551432010449.4,572043290831905.1,785869900.6157037,1249309188.0535402,13638087570.836441,243896129030.82526
14.997791114242183,1.10780704329494e+16,1.224835659389245e+16,590332267271455.2,579683774338628.6,817810790.898361,1300086103.401428,14192393929.04145,253809042170.30246
15.397746936527026,1.1225047778479882e+16,1.24108679293089e+16,598164449793619.4,587374678897693.6,850820019.1955305,1352561371.961393,14765240365.646961,264053515962.09174
15.805701875257567,1.1373007843742696e+16,1.2574466138543062e+16,606048999844150.1,595117006372594.0,884930204.0817579,1406786847.9864137,15357192947.771082,274639673639.72232
16.221815912762718,1.1521969658334726e+16,1.2739172272110348e+16,613986931479165.8,602911752527766.0,920174945.5874623,1462815945.9654748,15968834774.850674,285577943033.01306
16.64625223101797,1.167195214848539e+16,1.2905007266575086e+16,621979253246498.2,610759907718716.5,956588853.8603272,1520703686.1870582,16600766476.034264,296879065463.0893
17.079177275638333,1.182297414950143e+16,1.307199195831944e+16,630026968848854.1,618662457543232.1,994207578.6578585,1580506741.6239278,17253606721.99945,308554104895.34375
17.5207608211511,1.1975054417519792e+16,1.3240147096547728e+16,638131077770122.9,626620383456366.2,1033067839.6931173,1642283486.1742883,17927992751.575836,320614457357.1599
17.97117603757412,1.2128211640616138e+16,1.3409493355578208e+16,646292575867303.0,634634663351719.6,1073207457.8560832,1706094044.2948568,18624580913.56386,333071860627.35333
18.430599558325603,1.2282464449309224e+16,1.3580051346467782e+16,654512455930291.9,642706272111108.2,1114665387.3334851,1772000342.0623233,19344047224.145287,345938404204.4383
18.899211549492115,1.243783142649762e+16,1.3751841628008932e+16,662791708211382.2,650836182124514.9,1157481748.6503594,1840066159.700028,20087087940.28936,359226539560.90967
19.37719578048196,1.2594331116858864e+16,1.3924884717132772e+16,671131320926125.6,659025363781924.8,1201697862.6568644,1910357185.6074047,20854420149.562687,372949090690.8629
19.864739696091597,1.275198203573574e+16,1.4099201098745628e+16,679532280726877.9,667274785938318.5,1247356285.4841404,1982941071.9298525,21646782376.755863,387119264958.30945
20.36203449001343,1.2910802677529618e+16,1.4274811235020348e+16,687995573150057.1,675585416352869.0,1294500844.4931126,2057887491.7071674,22464935207.741104,401750664253.6057
20.869275179813698,1.307081152361407e+16,1.4451735574158238e+16,696522183037851.0,683958222103047.1,1343176675.2401516,2135268197.638444,23309661930.976227,416857296465.42596
21.38666068340997,1.3232027049776572e+16,1.462999455862916e+16,705113094934777.2,692394169974010.2,1393430259.4833655,2215157082.5013433,24181769197.0677,432453587275.6359
21.91439389707817,1.3394467733189564e+16,1.4809608632891806e+16,713769293459145.5,700894226823389.1,1445309464.2530737,2297630241.2630033,25082087696.80057,448554392284.37415
22.452681775019734,1.3558152058905318e+16,1.4990598250587594e+16,722491763649179.8,709459359921140.5,1498863582.009354,2382766034.9192233,26011472858.03358,465175009472.4439
23.00173541052013,1.3723098525861826e+16,1.5172983881194772e+16,731281491283044.0,718090537263818.4,1554143371.9089959,2470645156.0971828,26970805561.846306,482331192007.9474
23.561770118730532,1.3889325652379212e+16,1.535678601611922e+16,740139463171747.5,726788727862190.0,1611201102.2031276,2561350696.45566,27960992878.306988,500039161403.74097
24.133005521105144,1.4056851981118076e+16,1.5542025174190784e+16,749066667423357.1,735554902000683.4,1670090593.7854247,2654968215.914301,28982968822.207993,518315621031.89246
24.715665631527248,1.4225696083461834e+16,1.5728721906523278e+16,758064093676535.2,744390031466708.1,1730867264.9092782,2751585813.7413173,30037695129.085506,537177770000.8472
25.309978944157795,1.4395876563276678e+16,1.5916896800686816e+16,767132733300896.9,753295089747401.2,1793588177.090207,2851294201.525211,31126162051.808857,556643317400.3357
25.91617852304095,1.456741205999217e+16,1.6106570484129124e+16,776273579561170.4,762271052190827.1,1858312082.2074006,2954186778.052912,32249389177.977135,576730496918.3365
26.53450209350177,1.4740321250936026e+16,1.6297763626773064e+16,785487627741612.0,771318896128149.0,1925099470.815345,3060359706.1116033,33408426268.316338,597458081833.4874
27.165192135371807,1.4914622852845448e+16,1.6490496942703806e+16,794775875226543.0,780439600952708.2,1994012621.6731477,3169911991.22618,34604354116.20642,618845400385.296
27.808495978079243,1.5090335622466738e+16,1.6684791190848602e+16,804139321532306.2,789634148151407.6,2065115652.4951527,3282945562.3384776,35838285428.40317,640912351523.2736
28.464665897640828,1.5267478356144736e+16,1.6880667174540024e+16,813578968285381.5,798903521283225.9,2138474571.92212,3399565354.4265933,37111365726.93901,663679421034.7421
29.133959215593645,1.5446069888291448e+16,1.707814573984038e+16,823095819140785.8,808248705899078.4,2214157332.706912,3519879393.0551047,38424774272.10175,687167698049.4586
29.816638399905518,1.5626129088613456e+16,1.7277247772494214e+16,832690879634323.6,817670689396741.2,2292233886.1032352,3643998880.837693,39779725006.28784,711398891917.4608
30.51297116790363,1.580767485796722e+16,1.7477994193364408e+16,842365156961723.9,827170460803970.6,2372776237.4393306,3772038285.7835636,41177467518.41991,736395349454.544
31.223230591261704,1.5990726122701358e+16,1.7680405952195466e+16,852119659677150.9,836749010482447.0,2455858502.851772,3904115431.488157,42619288028.4958,762180072547.65
31.947695203086937,1.6175301827336316e+16,1.7884504019539222e+16,861955397303113.8,846407329744728.6,2541556967.146879,4040351589.11624,44106510391.7031,788776736110.0515
32.686649107148675,1.6361420925423566e+16,1.80903093766681e+16,871873379843367.4,856146410375931.5,2629950142.748731,4180871571.1126556,45640497121.39283,816209706373.6582
33.44038208929165,1.6549102368420258e+16,1.8297843003294484e+16,881874617190059.0,865967244051577.2,2721118829.684267,4325803826.5615835,47222650430.04673,844504059503.0211
34.20918973107749,1.6738365092409154e+16,1.850712586290842e+16,891960118416064.1,875870821642683.5,2815146176.5462155,4475280538.100248,48854413287.21376,873685600512.6562
34.993373525699035,1.6929228002491372e+16,1.871817888554216e+16,902130890943290.8,885858132399075.9,2912117742.364439,4629437720.276885,50537270493.21104,903780882466.191
35.793240996213015,1.7121709954675878e+16,1.893102294776779e+16,912387939577605.1,895930163001732.9,3012121559.3060117,4788415319.2260895,52272749767.20414,934817225932.5297
36.60910581613728,1.7315829735092334e+16,1.9145678849735496e+16,922732265401112.8,906087896475023.5,3115248196.1130605,4952357313.516928,54062422848.089935,966822738670.8604
37.44128793246003,1.7511606036354024e+16,1.936216728906128e+16,933164864512591.5,916332310949881.1,3221590822.1758695,5121411816.011107,55907906606.40345,999826335512.6818
38.29011369110923,1.7709057430904488e+16,1.9580508831379764e+16,943686726607157.6,926664378269083.1,3331245272.1271944,5295731176.549531,57810864165.26694,1033857758405.4418
39.15591596493141,1.790820234118776e+16,1.9800723877385652e+16,954298833386704.8,937085062426356.4,3444310110.8314543,5475472085.266803,59773006028.19285,1068947596578.5966
40.03903428423004,1.810905900649225e+16,2.0022832626197076e+16,965002156793055.2,947595317831407.5,3560886698.6303315,5660795676.313217,61796091211.333855,1105127306789.123
40.93981496991464,1.831164544633069e+16,2.0246855034889788e+16,975797657056543.2,958196087393705.8,3681079256.6939588,5851867631.744637,63881928377.56516,1142429233599.6746
41.85861126931294,1.8515979420234172e+16,2.047281077406614e+16,986686280553502.6,968888300418616.4,3804994932.314714,6048858285.321154,66032376969.568535,1180886629638.7888
42.7957834946992,1.8722078383854732e+16,2.0700719179342864e+16,997668957467049.1,979672870310366.5,3932743863.968167,6251942725.935663,68249348338.877,1220533675788.7686
43.751699164593184,1.8929959441291544e+16,2.0930599198663844e+16,1008746599246615.2,990550692077426.8,4064439245.954288,6461300900.375013,70534806867.63188,1261405501243.1091
44.72673314788505,1.9139639293577904e+16,2.1162469335367344e+16,1019920095862917.1,1001522639636973.8,4200197392.4198065,6677117715.097582,72890771079.60147,1303538203371.8457
45.721267810842754,1.93511341832903e+16,2.1396347586965976e+16,1031190312856242.5,1012589562916437.1,4340137800.5519285,6899583136.693382,75319314736.81721,1346968867329.6035
