t(s),Total solute volume 1,Total retention volume 1,Total 1 volume 1,Total 2 volume 1,Total 3 volume 1,Total 4 volume 1,Total 5 volume 1,Total 6 volume 1
0.1,1225891390677807.5,1918426285810987.5,281662698191601.44,410872196941578.9,0.0,0.0,0.0,0.0
0.202,1844641917935846.0,2886756841600174.5,423827780246834.1,618253894656670.0,12547361.198374933,36668121.78655971,996107794.6724604,32203437545.30333
0.30604000000000003,2316468531428964.5,3625180623037727.5,532235393465073.7,776392256146389.0,31828285.028867546,93014522.31026131,2527069020.653335,81790085476.49776
0.41216080000000005,2715659696872791.5,4249949894294989.5,623954173412581.1,910185972183889.6,56530648.464812234,165204547.02664715,4488570115.823147,145341520417.84998
0.5204040160000001,3070204135687274.5,4804863312031369.0,705414852276945.0,1029015800741462.4,86071466.19494195,251534466.82228938,6834300813.961622,221351418946.45865
0.6308120963200001,3394064347837299.5,5311770289159630.0,779825475712393.5,1137561441840896.5,120138083.29599808,351090575.0044958,9539428109.206688,309013112269.96985
0.7434283382464002,3695359778097154.5,5783376660670197.0,849051579932584.4,1238544225083889.0,158551859.47734976,463350811.4394004,12589763809.897654,407865890085.7002
0.8582969050113283,3979293359978927.0,6227824351878280.0,914288598999347.9,1333707976201722.0,201212135.02575114,588021007.2038982,15977313191.035334,517650151946.97345
0.9754628431115548,4249431097732865.0,6650693752923746.0,976355863570297.6,1424247884387207.0,248068618.07911977,724954188.7106678,19698081718.006916,638236128852.7853
1.094972099973786,4508341063453254.0,7056003659695920.0,1035843417865038.4,1511024669868966.5,299106092.1755258,874105886.8769164,23750860448.0098,769584436238.3552
1.2168715419732616,4757944311709391.0,7446760403957178.0,1093192646354686.0,1594682197172716.0,354335227.5236085,1035507283.9036647,28136496246.12497,911722381631.4298
1.3412089728127268,4999721893471211.0,7825281798717564.0,1148743837602155.2,1675716858328522.5,413786719.1843691,1209248082.6597698,32857426241.88631,1064728854631.353
1.4680331522689813,5234844014211967.0,8193399250383688.0,1202765859827850.8,1754520861762016.2,477507374.0959596,1395465071.3825586,37917367067.66495,1228724242347.1165
1.597393815314361,5464254332115602.0,8552589671814712.0,1255475529396345.0,1831410485852128.2,545557406.0634302,1594334218.5441658,43321100034.20564,1403863458970.3557
1.729341691620648,5688727056274286.0,8904064831526789.0,1307050729786626.0,1906645216078333.8,618008514.4825248,1806065058.1069624,49074318549.569695,1590330995417.1475
1.863928525453061,5908906841968329.0,9248833783051466.0,1357639577993373.2,1980441116403259.8,694942491.1616106,2030896618.0956626,55183517478.542046,1788337329932.135
2.001207095962122,6125337412437191.0,9587747653091526.0,1407367000709379.2,2052980422203230.8,776450194.5601711,2269094422.909123,61655911681.17919,1998116285447.9307
2.1412312378813647,6338482565354629.0,9921532513019726.0,1456339560805768.2,2124418580840861.8,862630786.7990423,2520948263.5572033,68499375419.72526,2219923063985.0166
2.284055862638992,6548741898539138.0,1.0250813986896428e+16,1504649070495590.5,2194889522325897.0,953591163.19953,2786770530.5446315,75722397055.35046,2454032777067.948
2.4297369798917723,6756462788996497.0,1.0576135996622038e+16,1552375343657153.0,2264509674235252.5,1049445525.9558873,3066894967.970565,83334045191.2708,2700739347448.901
2.578331719489608,6961949659594988.0,1.0897975262733882e+16,1599588324959672.8,2333381067550581.5,1150315067.8335106,3361675749.1675706,91343943553.53265,2960354694255.058
2.7298983538794,7165471246687864.0,1.1216752677066146e+16,1646349759683452.5,2401593772489246.5,1256327741.372896,3671486802.2226734,99762252662.18184,3233208138384.673
2.884496320956988,7367266370646439.0,1.1532842332759054e+16,1692714519566504.0,2469227832567872.5,1367618095.66104,3996721332.957823,108599656868.2351,3519645981937.081
3.0421862473761276,7567548568976868.0,1.1846578774442232e+16,1738731667316619.8,2536354817447035.5,1484327167.342794,4337791506.421061,117867355698.04266,3820031227342.282
3.2030299723236504,7766509853966678.0,1.2158262878492126e+16,1784445319974048.5,2603039082351699.0,1606602415.8337579,4695128257.552382,127577058707.8408,4134743410330.5415
3.3670905717701234,7964323788467646.0,1.2468166666321734e+16,1829895355608146.8,2669338798956780.5,1734597695.08173,5069181208.659176,137740983240.741,4464178527028.05
3.5344323832055258,8161148024844909.0,1.2776537277648096e+16,1875117996670240.2,2735306806346439.0,1868473255.9796019,5460418676.467448,148371854617.82947,4808749039988.34
3.7051210308696363,8357126417073993.0,1.3083600275838352e+16,1920146295272302.0,2800991318908784.0,2008395774.842893,5869327755.344256,159482908399.1302,5168883951344.646
3.879223451487029,8552390790334583.0,1.3389562417323788e+16,1965010539771571.0,2866436519436494.0,2154538404.3552246,6296414466.180571,171087894428.79193,5545028933819.129
4.0568079205167695,8747062433464378.0,1.3694613987363566e+16,2009738597679044.8,2931683059340649.0,2307080844.141955,6742203962.635507,183201082438.98935,5937646512274.333
4.237944078927105,8941253365412671.0,1.399893078218161e+16,2054356206641826.0,2996768483117856.5,2466209428.717109,7207240788.152116,195837269033.46762,6347216289999.428
4.422702960505647,9135067416061986.0,1.4302675800644362e+16,2098887222774355.2,3061727590600618.5,2632117231.0053077,7692089178.489692,209011785907.91986,6774235215099.223
4.61115701971576,9328601153546530.0,1.4606000695756398e+16,2143353833720561.5,3126592747759255.0,2805004180.00022,8197333405.568618,222740509192.9648,7219217883281.188
4.803380160110075,9521944683838142.0,1.4909047026298044e+16,2187776742367927.5,3191394154692705.5,2985077191.4071207,8723578159.259958,237039869828.20892,7682696874072.476
4.9994477633122765,9715182343416832.0,1.5211947341181164e+16,2232175325996591.2,3256160077785471.0,3172550310.3467107,9271448964.422855,251926864894.09717,8165223118089.689
5.199436718578522,9908393301958542.0,1.5514826123018636e+16,2276567774753772.5,3320917051705522.0,3367644865.382788,9841592631.034842,267419069843.01038,8667366293462.628
5.403425452950093,1.0101652088896814e+16,1.581780061259103e+16,2320971212637447.0,3385690055887902.5,3570589633.287749,10434677735.702139,283534651583.0476,9189715249902.268
5.611493962009095,1.0295029055269014e+16,1.6120981532065474e+16,2365401803610770.0,3450502669327940.0,3781621014.084153,11051395133.201174,300292382377.84503,9732878459223.912
5.823723841249277,1.0488590780292756e+16,1.6424473721748498e+16,2409874845017821.0,3515377206850303.0,4000983216.003446,11692458497.001457,317711654533.912,10297484491400.752
6.040198318074262,1.0682400430536338e+16,1.6728376702677216e+16,2454404850107042.0,3580334839489198.5,4228928450.0888863,12358604887.973188,335812495853.81915,10884182515445.13
6.261002284435747,1.0876518078259486e+16,1.7032785175340368e+16,2499005621173777.0,3645395701184170.0,4465717134.241805,13050595350.691677,354615585839.2824,11493642824599.705
6.486222330124463,1.1071000984453036e+16,1.7337789463180886e+16,2543690314591862.0,3710578983644214.5,4711618106.571602,13769215536.931147,374142272633.0544,12126557385479.066
6.715946776726952,1.1265903851244058e+16,1.764347590818191e+16,2588471498806643.0,3775903020944387.5,4966908847.961958,14515276356.092096,394414590692.6754,12783640410936.1
6.950265712261491,1.1461279047623094e+16,1.7949927224728646e+16,2633361206198422.5,3841385365181025.0,5231875713.810845,15289614652.438152,415455279192.71924,13465628956543.791
7.18927102650672,1.165717681186194e+16,1.825722281701655e+16,2678370979590252.5,3907042854314471.5,5506814174.940855,16093093909.132002,437287801155.24005,14173283540683.246
7.433056447036854,1.1853645433500058e+16,1.856543906451114e+16,2723511914061412.5,3972891673164002.5,5792029067.710403,16926604979.160423,459936363310.8766,14907388788316.61
7.681717575977592,1.2050731417368096e+16,1.88746495793212e+16,2768794694633770.5,4038947408382329.0,6087834853.38671,17791066843.325474,483425936695.4104,15668754098601.12
7.935351927497144,1.2248479631773624e+16,1.9184925438812292e+16,2814229630319069.5,4105225098121759.0,6394555886.868011,18687427395.558308,507782277988.76355,16458214336569.729
8.194058966047088,1.2446933442683648e+16,1.949633539633148e+16,2859826684948998.0,4171739277007133.5,6712526694.866626,19616664255.880997,533031951605.26434,17276630549165.35
8.45794014536803,1.2646134835493292e+16,1.980894607253057e+16,2905595505152874.5,4238504016948030.5,7042092263.6863985,20579785611.40756,559202352545.8124,18124890705972.484
8.72709894827539,1.2846124525762428e+16,2.012282212945116e+16,2951545445800751.0,4305532964253495.5,7383608336.747895,21577831085.830585,586321730024.0884,19003910465040.355
9.0016409272409,1.3046942060123602e+16,2.0438026429254732e+16,2997685593188102.0,4372839373452535.5,7737441722.032707,22611872637.897625,614419211880.4711,19914633964239.832
9.281673745785717,1.3248625908413472e+16,2.0754620179245216e+16,3044024786204124.5,4440436138173082.0,8103970609.636246,23683015489.426064,643524829798.6252,20858034638640.42
9.567307220701432,1.3451213547950124e+16,2.1072663064627784e+16,3090571635695387.5,4508335819388536.0,8483584899.633236,24792399083.458107,673669545341.043,21835116064433.223
9.85865336511546,1.365474154076549e+16,2.1392213370270956e+16,3137334542210935.5,4576550671303168.0,8876686540.476236,25941198073.196037,704885276821.0105,22846912829967.88
10.155826432417769,1.3859245604507366e+16,2.171332809259065e+16,3184321712292776.0,4645092665115757.0,9283689878.161463,27130623342.404182,737204927029.5712,23894491434504.668
10.458942961066125,1.4064760677640134e+16,2.203606304254132e+16,3231541173456547.5,4713973510872379.0,9705022016.409521,28361923058.001904,770662411837.2357,24978951215322.04
10.768121820287448,1.4271320979501948e+16,2.2360472940588044e+16,3279000787990314.5,4783204677595316.0,10141123188.123886,29636383755.61305,805292689691.1885,26101425303852.24
11.083484256693197,1.4478960065712554e+16,2.2686611504433664e+16,3326708265685213.0,4852797411853708.0,10592447138.400337,30955331458.872677,841131792029.7838,27263081611552.293
11.405153941827061,1.4687710879371756e+16,2.301453153018906e+16,3374671175598812.5,4922762754923226.0,11059461519.37514,32320132833.332115,878216854637.172,28465123846248.402
11.733257020663602,1.4897605798438798e+16,2.334428496760013e+16,3422896956941116.5,4993111558665862.0,11542648297.212013,33732196375.837185,916586149961.8213,29708792559727.438
12.067922161076874,1.5108676679642594e+16,2.3675922989878816e+16,3471392929163458.0,5063854500247096.0,12042504171.539545,35192973640.29246,956279120423.7482,30995366227377.25
12.409280604298411,1.5320954899235012e+16,2.400949605862659e+16,3520166301321994.0,5135002095794683.0,12559541007.66359,36703960500.75887,997336412736.2045,32326162360711.664
12.75746621638438,1.553447139086626e+16,2.4345053984291176e+16,3569224180780090.0,5206564713093162.0,13094286281.891441,38266698452.869064,1039799913268.5544,33702538653646.33
13.112615540712067,1.574925668083425e+16,2.468264598254679e+16,3618573581307169.5,5278552583397995.0,13647283540.315937,39882775954.57855,1083712784478.0242,35125894163423.344
13.474867851526309,1.5965340920932452e+16,2.5022320726955636e+16,3668221430625944.0,5350975812445039.0,14219092871.421465,41553829807.309654,1129119502439.0144,36597670527113.95
13.844365208556836,1.618275391910018e+16,2.5364126398226236e+16,3718174577454673.5,5423844390723290.0,14810291392.884186,43281546578.57693,1176065895499.591,38119353214660.15
14.221252512727972,1.6401525168058026e+16,2.5708110730358256e+16,3768439798086487.0,5497168203072364.0,15421473752.952965,45067664067.222984,1224599184095.8281,39692472819449.52
14.605677562982532,1.6621683872094096e+16,2.605432105393291e+16,3819023802543795.0,5570957037660302.0,16053252646.808985,46913972812.42818,1274768021755.581,41318606387444.97
14.997791114242183,1.684325897215036e+16,2.640280433678438e+16,3869933240342207.0,5645220594391545.0,16706259348.314745,48822317647.694855,1326622537324.363,42999378785933.37
15.397746936527026,1.70662791693452e+16,2.675360722226596e+16,3921174705895091.5,5719968492790725.0,17381144257.576725,50794599301.04448,1380214378446.9473,44736464112976.39
15.805701875257567,1.729077294705481e+16,2.710677606530395e+16,3972754743587031.5,5795210279403613.0,18078577464.75809,52832776042.704544,1435596756339.4033,46531587148695.195
16.221815912762718,1.7516768591665184e+16,2.74623569664155e+16,4024679852541843.0,5870955434752294.0,18799249330.591488,54938865381.600365,1492824491887.2622,48386524849542.164
16.64625223101797,1.7744294212096424e+16,2.7820395803850776e+16,4076956491108501.5,5947213379879088.0,19543871084.05577,57114945812.00613,1551954063106.719,50303107886755.945
17.079177275638333,1.7973377758192028e+16,2.8180938264006384e+16,4129591081086282.5,6023993482509845.0,20313175437.693638,59363158611.74929,1613043654006.6082,52283222230227.016
17.5207608211511,1.8204047038057344e+16,2.8544029870241896e+16,4182590011708529.0,6101305062865189.0,21107917221.061146,61685709693.40549,1676153204890.3252,54328810779038.94
17.97117603757412,1.843632973442469e+16,2.890971601022247e+16,4235959643402616.5,6179157399145437.0,21928874032.81499,64084871509.958595,1741344464137.6843,56441875039985.76
18.430599558325603,1.867025342011487e+16,2.9278041961899036e+16,4289706311342542.0,6257559732712779.0,22776846911.9568,66562985016.44684,1808681041508.1208,58624476855403.99
18.899211549492115,1.8905845572660576e+16,2.9649052918229064e+16,4343836328808703.0,6336521272992422.0,23652661028.769897,69122461689.1572,1878228463007.5957,60878740181695.98
19.37719578048196,1.9143133588149564e+16,3.0022794010729924e+16,4398355990368671.0,6416051202112411.0,24557166395.997772,71765785603.97482,1950054227362.9297,63206852919960.97
19.864739696091597,1.9382144794343544e+16,3.0399310331953572e+16,4453271574891208.5,6496158679300341.0,25491238600.829765,74495515575.53935,2024227864148.4272,65611068800187.21
20.36203449001343,1.96229064631198e+16,3.077864695695954e+16,4508589348405047.0,6576852845053590.0,26455779558.274807,77314287358.9068,2100820993610.9463,68093709320502.13
20.869275179813698,1.98654458222844e+16,3.1160848963861388e+16,4564315566813058.0,6658142825098512.0,27451718286.52073,80224815915.46,2179907388240.7947,70657165743017.7
21.38666068340997,2.01097900667963e+16,3.1545961453513216e+16,4620456478471091.0,6740037734152371.0,28480011704.892147,83229897744.86357,2261563036137.25,73303901147850.78
21.91439389707817,2.035596636944329e+16,3.193402956839749e+16,4677018326640888.0,6822546679501407.0,29541645455.037735,86332413284.90268,2345866206218.654,76036452546940.52
22.452681775019734,2.06040018910031e+16,3.232509851077341e+16,4734007351824776.0,6905678764406710.0,30637634745.993988,89535329381.10202,2432897515328.5947,78857433059329.58
23.00173541052013,2.0853923789925108e+16,3.2719213560138e+16,4791429793990141.0,6989443091348864.0,31769025223.79123,92841701828.06197,2522739997290.9956,81769534149625.34
23.561770118730532,2.1105759231560668e+16,3.3116420090049836e+16,4849291894690138.0,7073848765121795.0,32936893866.284313,96254677984.5155,2615479173968.22,84775527931391.22
24.133005521105144,2.1359535396972068e+16,3.3516763584359828e+16,4907599899087636.0,7158904895785087.0,34142349903.909615,99777499464.15169,2711203128378.0947,87878269537285.56
24.715665631527248,2.161527949134375e+16,3.39202896528933e+16,4966360057887968.0,7244620601483228.0,35386535767.088554,103413504904.30994,2810002579926.8506,91080699557789.66
25.309978944157795,2.187301875202256e+16,3.4327044046622092e+16,5025578629186112.0,7331005011140281.0,36670628061.016235,107166132814.70638,2911970961816.833,94385846550438.25
25.91617852304095,2.213278045620679e+16,3.4737072672362376e+16,5085261880233304.0,7418067267036967.0,37995838568.59538,111038924508.41083,3017204500689.077,97796829621500.06
26.53450209350177,2.2394591928305348e+16,3.515042160703385e+16,5145416089128067.0,7505816527277321.0,39363415282.29341,115035527117.349,3125802298562.803,101316861082116.23
27.165192135371807,2.2658480546987164e+16,3.556713711151215e+16,5206047546435667.0,7594261968151112.0,40774643465.72113,119159696694.66644,3237866417135.126,104949249180953.72
27.808495978079243,2.2924473751935932e+16,3.598726564410257e+16,5267162556740354.0,7683412786398124.0,42230846745.75615,123415301406.3512,3353501964506.1997,108697400915484.25
28.464665897640828,2.3192599050329864e+16,3.641085387366485e+16,5328767440133943.0,7773278201379632.0,43733388236.04857,127806324814.57285,3472817184396.573,112564824924059.95
29.133959215593645,2.3462884023058484e+16,3.683794869241484e+16,5390868533644297.0,7863867457162161.0,45283671692.77538,132336869255.26431,3595923547925.385,116555134460999.03
29.816638399905518,2.373535633069278e+16,3.726859722842523e+16,5453472192606999.0,7955189824518414.0,46883142703.527405,137011159312.53058,3722935848019.624,120672050456972.58
30.51297116790363,2.4010043719220124e+16,3.77028468578515e+16,5516584791983043.0,8047254602849549.0,48533289910.23782,141833545392.53854,3853972296526.593,124919404667021.75
31.223230591261704,2.4286974025558156e+16,3.81407452169031e+16,5580212727625705.0,8140071122032880.0,50235646267.08293,146808507399.613,3989154624103.682,129301142908608.0
31.947695203086937,2.456617518285624e+16,3.85823402135781e+16,5644362417498632.0,8233648744199193.0,51991790334.31079,151940658517.3306,4128608182961.0425,133821328392155.03
32.686649107148675,2.4847675225597984e+16,3.9027680039184376e+16,5709040302848128.0,8327996865442423.0,53803347608.97727,157234749097.4641,4272462052535.1455,138484145146601.66
33.44038208929165,2.5131502294511348e+16,3.9476813179661816e+16,5774252849331423.0,8423124917465771.0,55671991893.592224,162695670659.72598,4420849148172.867,143293901542554.0
34.20918973107749,2.5417684641298636e+16,3.992978842672384e+16,5840006548103329.0,8519042369166697.0,57599446703.7061,168328460005.30466,4573906332907.787,148255033915681.3
34.993373525699035,2.570625063319206e+16,4.038665488883484e+16,5906307916863059.0,8615758728164003.0,59587486715.491,174138303447.28305,4731774532412.495,153372110293075.34
35.793240996213015,2.599722875734473e+16,4.084746200203607e+16,5973163500862964.0,8713283542269334.0,61637939254.396675,180130541161.09848,4894598853212.731,158649834225354.22
36.60910581613728,2.629064762506276e+16,4.13122595406385e+16,6040579873881016.0,8811626400905707.0,63752685825.9907,186310671658.27524,5062528704251.257,164093048727364.06
37.44128793246003,2.6586535975886204e+16,4.17810976277924e+16,6108563639158433.0,8910796936475406.0,65933663690.114494,192684356386.75058,5235717921891.702,169706740330393.1
38.29011369110923,2.6884922681525136e+16,4.22540267459474e+16,6177121430303992.0,9010804825678948.0,68182867479.52006,199257424461.18643,5414324898454.459,175496043248902.06
39.15591596493141,2.7185836749655864e+16,4.27310977472173e+16,6246259912166300.0,9111659790787634.0,70502350864.17722,206035877526.75696,5598512714379.368,181466243664823.12
40.03903428423004,2.7489307327583536e+16,4.321236186365954e+16,6315985781675259.0,9213371600871038.0,72894228262.4698,213025894759.95325,5788449274111.988,187622784132577.88
40.93981496991464,2.77953637057753e+16,4.369787071747895e+16,6386305768653987.0,9315950072981220.0,75360676600.53073,220233838010.08032,5984307445812.423,193971268108016.2
41.85861126931294,2.8104035321270076e+16,4.418767633117151e+16,6457226636602078.0,9419405073295534.0,77903937120.99272,227666257085.163,6186265204988.423,200517464604578.66
42.7957834946992,2.841535176096719e+16,4.4681831137611864e+16,6528755183451294.0,9523746518218812.0,80526317242.46275,235329895186.08713,6394505782156.519,207267312980037.16
43.751699164593184,2.872934276479924e+16,4.518038799009973e+16,6600898242294616.0,9628984375446890.0,83230192471.0622,243231694492.8999,6609217814637.58,214226927857271.4
