t(s),Total solute volume 1,Total retention volume 1,Total 1 volume 1,Total 2 volume 1,Total 3 volume 1,Total 4 volume 1,Total 5 volume 1,Total 6 volume 1
0.1,821307387244814.4,914309965951331.9,46537842289353.97,46464736417161.86,0.0,0.0,0.0,0.0
0.202,1235076093759577.8,1379740142921251.0,69983269870180.22,69873333956534.16,13333634563.943386,21746360709.184998,246681404852.8424,4525683934831.026
0.30604000000000003,1548235815688398.0,1735726726982791.0,87727878040196.38,87590067346924.27,33761887471.147095,55064090791.47813,624624388044.8281,11459515540965.414
0.41216080000000005,1811467861331636.8,2038171036179877.0,102643428092211.06,102482186743433.31,59845312207.44743,97605809427.37622,1107201204409.1362,20312907686552.258
0.5204040160000001,2043757368927561.5,2307971743048936.5,115805677272109.81,115623759504941.55,90928507604.61507,148302830574.791,1682289268759.6968,30863416737386.09
0.6308120963200001,2254570047426208.0,2555534602075510.5,127750982220868.42,127550299717826.25,126645803105.33324,206558989881.4568,2343126101217.625,42986941816402.11
0.7434283382464002,2449409916385379.5,2786906659031099.0,138791217881573.55,138573192405074.31,166774615949.75836,272011488490.63727,3085596429154.334,56607949825483.27
0.8582969050113283,2631803162894618.5,3005962985425698.5,149126189030712.56,148891928472434.78,211175074787.39597,344432427616.9647,3907115235908.653,71678982289616.14
0.9754628431115548,2804165241947338.0,3215361212900284.0,158892762894196.9,158643160142812.8,259760192944.93863,423680165916.32874,4806075979792.178,88170531577277.34
1.094972099973786,2968233945680851.0,3417017666063395.5,168189408203452.06,167925201464316.25,312479293681.98096,509672289156.9537,5781543974200.44,106065415157739.58
1.2168715419732616,3125307311524318.5,3612368603549294.5,177089675814328.56,176811487752650.38,369308005411.4266,602369294629.22,6833071311229.124,125355379846729.22
1.3412089728127268,3276384034140247.0,3802524214576072.5,185650154886354.06,185358519272114.56,430241840065.8497,701764119177.1207,7960578072848.23,146038922245259.47
1.4680331522689813,3422251114926030.0,3988364635435704.5,193915439377321.1,193610819928386.22,495291871155.14014,807875091537.09,9164272385950.355,168119821855321.9
1.597393815314361,3563541100160751.5,4170602580183335.0,201921371335492.78,201604175465884.47,564481713311.765,920741007226.9441,10444594554694.78,191606115945965.4
1.729341691620648,3700770872760329.0,4349825740431118.0,209697238961640.16,209367828076892.28,637845345863.8933,1040417579935.9341,11802176807290.96,216509360899176.16
1.863928525453061,3834368772645920.0,4526526396953009.0,217267313333843.72,216926010712340.97,715425504518.7605,1166974819437.198,13237813552860.65,242844086384078.38
2.001207095962122,3964694065277811.0,4701122655222302.0,224651951555433.78,224299048496830.75,797272467551.4586,1300495052901.6062,14752438936779.05,270627383434993.47
2.1412312378813647,4092051239075100.0,4873974025703993.0,231868406891468.53,231504167592466.16,883443123312.6709,1441071405025.5051,16347109600618.412,299878588016015.4
2.284055862638992,4216700715373268.5,5045393084454668.0,238931435628377.4,238556101105203.62,974000242984.4209,1588806612914.7527,18022991239440.637,330619034252472.5
2.4297369798917723,4338867011965423.0,5215654354037711.0,245853759645717.4,245467550929948.66,1069011906098.1024,1743812090131.1965,19781347985502.152,362871859514887.8
2.578331719489608,4458745062369743.0,5385001173046503.0,252646424485605.22,252249545257506.62,1168551041762.6333,1906207179477.602,21623533932950.195,396661848779456.25
2.7298983538794,4576505175245410.0,5553651083889224.0,259319080368719.3,258911719149137.38,1272695058912.9055,2076118550996.2773,23550986309786.25,432015309206252.8
2.884496320956988,4692296974978061.0,5721800111416236.0,265880205480177.78,265462537471679.84,1381525546005.8726,2253679713263.61,25565219935037.848,468959968292014.8
3.0421862473761276,4806252567881581.0,5889626199259201.0,272337285376431.5,271909474022611.38,1495128025579.6938,2439030614197.531,27667822691356.176,507524890647443.94
3.2030299723236504,4918489112113629.0,6057291998171421.0,278696958604697.3,278259156920734.0,1613591752651.226,2632317313400.3687,29860451809112.906,547740409657195.8
3.3670905717701234,5029110922988602.0,6224947149921466.0,284965135996571.1,284517487712388.5,1737009548509.585,2833691712271.272,32144830805843.33,589638071157278.6
3.5344323832055258,5138211212370174.0,6392730174238173.0,291147099227448.7,290689739776048.25,1865477663364.559,3043311331222.711,34522746960054.766,633250586909842.5
3.7051210308696363,5245873537006705.0,6560770040301064.0,297247582883720.44,296780640260600.1,1999095662727.8342,3261339125649.7285,36996049224666.03,678611796136992.2
3.879223451487029,5352173013245850.0,6729187485256625.0,303270843292312.6,302794438806754.06,2137966333476.525,3487943334048.7383,39566646505177.96,725756633739015.6
4.0568079205167695,5457177342654512.0,6898096128163317.0,309220716635507.6,308734965570581.06,2282195606367.9473,3723297353018.5005,42236506242824.69,774721104100497.5
4.237944078927105,5560947683393073.0,7067603417224019.0,315100668325731.75,314605680520730.06,2431892492407.014,3967579634907.691,45007653254662.22,825542259602500.8
4.422702960505647,5663539394862404.0,7237811440181805.0,320913835199581.06,320409715566180.6,2587169030960.7515,4220973604677.8384,47882168791671.29,878258183126343.1
4.61115701971576,5765002677533997.0,7408817621651205.0,326663061772600.2,326149910754060.5,2748140247902.7183,4483667593183.306,50862189783137.91,932907973966314.6
4.803380160110075,5865383125542521.0,7580715326446845.0,332350931550896.75,331828845532074.94,2914924122377.9336,4755854784572.361,53949908241264.95,989531736673138.1
4.9994477633122765,5964722206246027.0,7753594384304838.0,337979794204519.6,337448865879209.1,3087641561025.1846,5037733175915.284,57147570804533.125,1048170572433596.9
5.199436718578522,6063057678311643.0,7927541548515025.0,343551789257510.44,343012107958547.44,3266416378692.1094,5329505547488.599,60457478401995.92,1108866572659147.0
5.403425452950093,6160423957787896.0,8102640898707959.0,349068866830694.0,348520518827495.06,3451375284839.4824,5631379442408.133,63881986023676.44,1171662814510957.5
5.611493962009095,6256852439955972.0,8278974196228562.0,354532805878781.9,353975874646223.3,3642647874962.5815,5943567154517.175,67423502584667.44,1236603358133445.8
5.823723841249277,6352371783412471.0,8456621199077030.0,359945230287387.75,359379796749404.7,3840366626465.59,6266285723613.322,71084490872535.64,1303733245405152.8
6.040198318074262,6447008161755619.0,8635659942226226.0,365307623134354.1,364733765885128.6,4044666898514.49,6599756937242.591,74867467569288.05,1373098500046086.0
6.261002284435747,6540785487368870.0,8816166988174456.0,370621339370030.1,370039134875271.44,4255686935468.1313,6944207338411.55,78775003340532.3,1444746128945879.2
6.486222330124463,6633725611079237.0,8998217651816819.0,375887617130536.7,375297139910979.56,4473567873549.253,7299868238668.872,82809722985615.9,1518724124598235.8
6.715946776726952,6725848500879299.0,9181886203082726.0,381107587864713.44,380508910663711.9,4698453750469.516,7666975736093.705,86974305643493.83,1595081468544927.5
6.950265712261491,6817172402416265.0,9367246050261822.0,386282285427929.5,385675479364765.75,4930491517766.751,8045770737799.452,91271485049893.95,1673868135747404.0
7.18927102650672,6907713983548914.0,9554369906506860.0,391412654273134.8,390797788983462.1,5169831055649.702,8436498986623.66,95704049842040.39,1755135099817019.8
7.433056447036854,6997488464938589.0,9743329941639516.0,396499556850552.2,395876700615207.2,5416625190178.021,8839411091725.791,100274843907791.2,1838934339045447.5
7.681717575977592,7086509738358991.0,9934197921083684.0,401543780311476.06,400913000174768.75,5671029712631.884,9254762562860.584,104986766776544.69,1925318843186393.2
7.935351927497144,7174790474175069.0,1.0127045333496494e+16,406546042598363.9,405907404476799.44,5933203400949.43,9682813848131.252,109842774049713.9,2014342620947480.2
8.194058966047088,7262342219241866.0,1.0321943508453604e+16,411506997992099.7,410860566774373.7,6203308043130.544,10123830375062.373,114845877868942.05,2106060708158130.8
8.45794014536803,7349175486306785.0,1.051896372536463e+16,416427242177787.56,415773081816847.1,6481508462522.767,10578082594858.361,119999147420547.27,2200529176585280.5
8.72709894827539,7435299835854992.0,1.0718177314641046e+16,421307316882389.06,420645490480181.9,6767972544920.145,11045846029740.498,125305709474990.0,2297805143373838.0
9.0016409272409,7520723951217120.0,1.09196557520082e+16,426147714130540.5,425478284016100.0,7062871267419.828,11527401323276.666,130768748960379.28,2397946781093358.5
9.281673745785717,7605455707652917.0,1.1123470746740718e+16,430948880159061.5,430271907960432.7,7366378728991.908,12023034293635.89,136391509569272.83,2501013328376413.0
9.567307220701432,7689502236036570.0,1.1329694324506232e+16,435711219025561.1,435026765736054.25,7678672182728.877,12533035989718.596,142177294398197.56,2607065101137412.5
9.85865336511546,7772869981691267.0,1.1538398905418214e+16,440435095942184.8,439743221981403.6,7999932069749.3955,13057702750126.54,148129466619495.84,2716163504363953.5
10.155826432417769,7855564758855101.0,1.174965737782881e+16,445120840361825.94,444421605631839.3,8330342054739.389,13597336264949.768,154251450185250.2,2828371044475122.0
10.458942961066125,7937591801202607.0,1.1963543168331742e+16,449768748840834.25,449062212777851.4,8670089063120.059,14152243640360.36,160546730563158.62,2943751342243793.5
10.768121820287448,8018955808796315.0,1.2180130308389262e+16,454379087699433.1,453665309321302.1,9019363319838.617,14722737466010.992,167018855504365.25,3062369146281996.5
11.083484256693197,8099660991799668.0,1.2399493497955202e+16,458952095498637.6,458231133448449.6,9378358389783.002,15309135885247.648,173671435843331.3,3184290347090075.5
11.405153941827061,8179711111244658.0,1.262170816642146e+16,463487985350264.06,462759897936339.2,9747271219826.172,15911762668151.604,180508146329949.88,3309581991672290.5
11.733257020663602,8259109517114216.0,1.2846850531183076e+16,467986947074814.94,467251792307278.06,10126302182510.41,16530947287434.438,187532726494156.5,3438312298722678.5
12.067922161076874,8337859183971405.0,1.307499765408466e+16,472449149220322.75,471706984844530.06,10515655121385.021,17167024997215.102,194748981543387.47,3570550674386443.0
12.409280604298411,8415962744340738.0,1.3306227495984596e+16,476874740953850.6,476125624480829.25,10915537398014.594,17820336914714.25,202160783293279.5,3706367728603150.0
12.75746621638438,8493422520025881.0,1.3540618969648706e+16,481263853836044.6,480507842570152.3,11326159940677.412,18491230104905.484,209772071132070.66,3845835292038981.0
13.112615540712067,8570240551527399.0,1.3778251991165882e+16,485616603488040.8,484853754552005.2,11747737294776.35,19180057668167.414,217586853019213.47,3989026433616259.0
13.474867851526309,8646418625707552.0,1.4019207530056926e+16,489933091159035.56,489163461516530.9,12180487674986.424,19887178830985.105,225609206518744.22,4136015478649096.0
13.844365208556836,8721958301833276.0,1.4263567658234612e+16,494213405201964.44,493437051677868.94,12624633019165.404,20612959039751.188,233843279867994.56,4286878027594596.5
14.221252512727972,8796860936115351.0,1.4511415597955726e+16,498457622463965.4,497674601762435.5,13080399044054.643,21357770057721.023,242293293082274.8,4441690975429916.5
14.605677562982532,8871127704849342.0,1.4762835768894656e+16,502665809597617.9,501876178318103.56,13548015302799.906,22121990065178.773,250963539096164.62,4600532531665454.0
14.997791114242183,8944759626253662.0,1.5017913834456216e+16,506838024298356.7,506041838949672.75,14027715244321.447,22906003762872.168,259858384942090.8,4763482241005246.0
15.397746936527026,9017757581090164.0,1.5276736747434626e+16,510974316472899.8,510171633485458.1,14519736274564.553,23710202478777.004,268982272966882.88,4930621004665882.0
15.805701875257567,9090122332144820.0,1.5539392795117388e+16,515074729343081.2,514265605079395.56,15024319819662.117,24534984278252.625,278339722087012.66,5102031102365155.0
16.221815912762718,9161854542637966.0,1.580597164392397e+16,519139300489032.25,518323791252577.9,15541711391041.277,25380754077651.254,287935329083243.3,5277796214992489.0
16.64625223101797,9232954793627174.0,1.6076564383662234e+16,523168062835296.1,522346224877823.25,16072160652505.973,26247923761445.65,297773769935418.25,5458001447972549.0
17.079177275638333,9303423600460574.0,1.635126357147887e+16,527161045583099.9,526332935110482.44,16615921489328.322,27136912302938.61,307859801198131.94,5642733355334357.0
17.5207608211511,9373261428331246.0,1.663016327557478e+16,531118275091735.06,530283948268440.5,17173252079380.94,28048145888619.96,318198261418024.8,5832079964497369.0
17.97117603757412,9442468706981182.0,1.6913359118749772e+16,535039775711729.5,534199288663964.25,17744414966342.42,28982058046235.734,328794072593460.06,6026130801786840.0
18.430599558325603,9511045844597168.0,1.7200948321838142e+16,538925570572214.06,538078979389849.56,18329677135008.07,29939089776634.426,339652241677316.0,6224976918689944.0
18.899211549492115,9578993240937458.0,1.7493029747090754e+16,542775682324740.2,541923043062061.9,18929310088737.125,30919689689455.94,350777862123654.56,6428710918864610.0
19.37719578048196,9646311299726026.0,1.778970394155602e+16,546590133845569.6,545731502520920.8,19543589929067.938,31924314142727.875,362176115479012.3,6637426985912697.0
19.864739696091597,9713000440346740.0,1.8091073180509428e+16,550368948898297.25,549504381492689.25,20172797437531.152,32953427386431.715,373852273019038.5,6851220911928657.0
20.36203449001343,9779061108867854.0,1.839724151097607e+16,554112152758544.56,553241705213277.94,20817218159690.59,34007501710105.273,385811697431228.94,7070190126835354.0
20.869275179813698,9844493788424924.0,1.8708314795391e+16,557819772802278.6,556943501015646.2,21477142491440.934,35087017594542.176,398059844544476.8,7294433728517684.0
21.38666068340997,9909299008988026.0,1.9024400755435864e+16,561491839059258.25,560609798882373.25,22152865767590.047,36192463867650.46,410602265106155.3,7524052513764807.0
21.91439389707817,9973477356537198.0,1.934560901609141e+16,565128384732942.6,564240631964756.1,22844688352753.06,37324337864532.93,423444606607440.56,7759149010031772.0
22.452681775019734,1.0037029481668678e+16,1.967205114994069e+16,568729446688139.8,567836037069690.8,23552915734584.066,38483145591847.82,436592615157569.94,7999827508030156.0
23.00173541052013,1.0099956107652658e+16,2.0003840721757556e+16,572295065907603.5,571396055115541.6,24277858619370.402,39669401896508.92,450052137407718.8,8246194095158153.0
23.561770118730532,1.0162258037962614e+16,2.034109333341237e+16,575825287918641.5,574920731558099.1,25019833030013.562,40883630638783.75,463829122525169.3,8498356689779070.0
24.133005521105144,1.0223936163294348e+16,2.068392666912559e+16,579320163190865.5,578410116787684.2,25779160406418.707,42126364869846.14,477929624218425.6,8756425076357991.0
24.715665631527248,1.0284991468092656e+16,2.1032460541097776e+16,582779747505987.8,581864266498378.2,26556167708314.33,43398147013836.82,492359802813918.4,9020510941464684.0
25.309978944157795,1.034542503660208e+16,2.1386816935544916e+16,586204102300688.4,585283242030349.4,27351187520522.473,44699529054488.54,507125927384926.0,9290727910651862.0
25.91617852304095,1.0405238058457712e+16,2.174712005916393e+16,589593294983407.9,588667110686140.5,28164558160697.375,46031072726366.01,522234377933338.8,9567191586216272.0
26.53450209350177,1.0464431833831594e+16,2.211349638605503e+16,592947399225950.9,592015946021821.8,28996623789550.26,47393349710773.41,537691647624841.8,9850019585850484.0
27.165192135371807,1.0523007778148826e+16,2.248607470512398e+16,596266495230726.4,595329828113805.8,29847734523576.19,48786941836377.9,553504345078119.4,1.0139331582192574e+16
27.808495978079243,1.058096742638817e+16,2.286498616798854e+16,599550669974422.1,598608843802148.5,30718246550297.19,50212441284598.164,569679196708641.8,1.043524934328025e+16
28.464665897640828,1.0638312436980464e+16,2.3250364337410148e+16,602800017428910.4,601853086911098.6,31608522246034.77,51670450799804.51,586223049127585.1,1.0737896773916206e+16
29.133959215593645,1.0695044595318524e+16,2.364234523627354e+16,606014638760123.8,605062658447657.1,32518930296223.367,53161583904376.05,603142871596426.2,1.1047399957950166e+16
29.816638399905518,1.07511658168911e+16,2.404106739713361e+16,609194642505631.2,608237666778896.2,33449845818274.586,54686465118659.766,620445758537724.4,1.1363887201483328e+16
30.51297116790363,1.080667815005418e+16,2.444667191235065e+16,612340144731687.1,611378227788732.1,34401650487001.066,56245730185871.414,638138932102608.5,1.1687489077000532e+16
31.223230591261704,1.086158377845184e+16,2.4859302484831456e+16,615451269170380.1,614484465014883.1,35374732662606.69,57840026301983.695,656229744795459.9,1.201833846843429e+16
31.947695203086937,1.0915885023098996e+16,2.5279105479396664e+16,618528147337664.6,617556509766700.2,36369487521248.94,59470012350637.336,674725682156253.0,1.2356570617165172e+16
32.686649107148675,1.096958434413799e+16,2.57062299747903e+16,621570918632893.2,620594501224550.0,37386317188177.484,61136359143116.41,693634365501044.8,1.270232316896255e+16
33.44038208929165,1.1022684342281568e+16,2.6140827816350024e+16,624579730420566.6,623598586521435.0,38425630873450.766,62839749663424.66,712963554721033.2,1.3055736221868562e+16
34.20918973107749,1.1075187759953136e+16,2.6583053669353836e+16,627554738094962.8,626568920807522.4,39487845010233.08,64580879318497.47,732721151140656.8,1.3416952375028834e+16
34.993373525699035,1.1127097482137018e+16,2.7033065073059764e+16,630496105128303.9,629505667298234.2,40573383395670.25,66360456193587.34,752915200435112.1,1.3786116778471866e+16
35.793240996213015,1.1178416536949494e+16,2.7491022495453944e+16,633404003103117.4,632408997306552.4,41682677334342.49,68179201312852.53,773553895607767.5,1.4163377183839808e+16
36.60910581613728,1.1229148095942726e+16,2.795708938872164e+16,636278611729452.8,635279090260220.2,42816165784291.24,70037848905186.695,794645580027818.0,1.4548883996071914e+16
37.44128793246003,1.1279295474152518e+16,2.843143224545662e+16,639120118847595.5,638116133704439.4,43974295505615.22,71937146675316.56,816198750528606.8,1.4942790326042508e+16
38.29011369110923,1.1328862129901742e+16,2.8914220655621784e+16,641928720416917.9,640920323290751.8,45157521211628.0,73877856080202.08,838222060566986.4,1.5345252044153556e+16
39.15591596493141,1.1377851664370236e+16,2.9405627364275452e+16,644704620491520.2,643691862752701.2,46366305722571.49,75860752610765.78,860724323444096.9,1.575642783488358e+16
40.03903428423004,1.1426267820942712e+16,2.9905828330075944e+16,647448031183270.0,646430963868952.9,47601120121874.28,77886626078985.11,883714515587948.1,1.6176479252292196e+16
40.93981496991464,1.147411448434563e+16,3.0415002784576916e+16,650159172612905.8,649137846414449.2,48862443914944.734,79956280910371.83,907201779898124.4,1.6605570776480484e+16
41.85861126931294,1.152139567958422e+16,3.0933333292326388e+16,652838272849792.2,651812738100282.8,50150765190488.41,82070536441867.83,931195429153016.5,1.7043869871006698e+16
42.7957834946992,1.1568115570690208e+16,3.1461005811779964e+16,655485567840975.8,654455874502847.4,51466580784332.58,84230227225188.11,955704949479911.4,1.749154704125654e+16
43.751699164593184,1.1614278459291836e+16,3.199820975704113e+16,658101301330148.9,657067498982939.8,52810396445747.89,86436203335631.88,980740003888274.0,1.7948775893766592e+16
44.72673314788505,1.165988878301627e+16,3.25451380604376e+16,660685724767130.5,659647862595372.0,54182727006247.4,88689330686394.12,1006310435866600.9,1.8415733196499636e+16
