t(s),Total solute volume 1,Total retention volume 1,Total 1 volume 1,Total 2 volume 1,Total 3 volume 1,Total 4 volume 1,Total 5 volume 1,Total 6 volume 1
0.1,1144268928618327.0,1596229672649425.0,193012778181123.2,258947965849975.12,0.0,0.0,0.0,0.0
0.202,1722783701183690.8,2403251933443883.5,290595385956907.4,389865825204517.2,4087503.409944749,10502206.984776128,235442857.39448872,6771066202.178231
0.30604000000000003,2163694943429068.5,3018324100753988.5,364967330037047.3,489644008590003.0,10369763.758592347,26643533.826241504,597328831.3017602,17184355740.859444
0.41216080000000005,2536693938180591.5,3538663231655311.0,427883984626784.94,574053654484341.8,18418813.96843662,47324369.31649848,1060994757.6005245,30527625650.62467
0.5204040160000001,2867965082795314.0,4000795651230388.0,483762076694262.4,649020290690632.2,28044631.776504464,72056477.58430919,1615492919.386282,46485456152.757324
0.6308120963200001,3170563105646029.0,4422932239833021.0,534803649288551.9,717498201432059.8,39145325.74624813,100578063.0531634,2254953324.0115633,64888789663.250015
0.7434283382464002,3452077701953171.5,4815660353275484.0,582288915605396.8,781204934233909.9,51662686.77630539,132739565.76369813,2976022573.324249,85641058186.62173
0.8582969050113283,3717371690610636.0,5185763459282239.0,627038125301991.6,841240944678934.5,65563921.875269234,168456728.81680185,3776811478.5702963,108687858551.88142
0.9754628431115548,3969777691950534.0,5537890460867777.0,669613417487603.2,898360404516007.5,80832653.90673701,207687473.48529163,4656376545.085584,134002016963.08789
1.094972099973786,4211695576668299.0,5875389115720777.0,710419597102369.6,953106404314398.2,97463937.42596304,250419093.11639735,5614432835.237783,161575319844.443
1.2168715419732616,4444920512148266.5,6200763648377692.0,749759469054306.9,1005885190325778.5,115461264.0092401,296660558.7554265,6651181448.116031,191413546066.3877
1.3412089728127268,4670836464695045.0,6515944678243770.0,787866477752595.0,1057009954026176.0,134834651.92538595,346437610.8321343,7767199468.1630745,223533298222.18335
1.4680331522689813,4890536917889944.0,6822457616820649.0,824925069615961.4,1106728150671785.4,155599370.9723711,399789482.81291926,8963366505.22956,257959887596.1511
1.597393815314361,5104903657557408.0,7121532569465119.0,861083982348517.4,1155239328331398.2,177775061.00318423,456766636.38087016,10240813914.600855,294725872179.98175
1.729341691620648,5314660133058306.0,7414178772129048.0,896465245806022.6,1202707203543374.5,201385105.87516508,517429152.88952273,11600888731.576693,333870018357.6603
1.863928525453061,5520408740081304.0,7701236599242884.0,931170470775578.2,1249268098408678.0,226456179.50789875,581845567.0246556,13045127520.9126,375436548052.0876
2.001207095962122,5722657567291354.0,7983414874120251.0,965285360541804.4,1295036993355562.2,253017911.6827117,650092008.1247578,14575237124.33107,419474584469.4946
2.1412312378813647,5921840026061272.0,8261318251569130.0,998883021987025.2,1340111969346417.5,281102639.48012656,722251561.5357987,16193080341.445925,466037739874.6511
2.284055862638992,6118329545202606.0,8535467716394952.0,1032026444266337.0,1384577533294339.8,310745221.4635985,798413791.1834286,17900665225.351124,515183807428.32104
2.4297369798917723,6312450764448125.0,8806316197820559.0,1064770386899739.6,1428507151147392.2,341982898.83801407,878674382.8399976,19700137084.30845,566974530928.8267
2.578331719489608,6504488193300328.0,9074260648210180.0,1097162840327774.5,1471965207385422.2,374855192.4678813,963134879.527811,21593772549.218346,621475434023.0615
2.7298983538794,6694693001861183.0,9339651515996548.0,1129246171373826.2,1515008541784342.8,409403827.7647285,1051902488.5282682,23583975246.56014,678755695634.835
2.884496320956988,6883288412731636.0,9602800267169462.0,1161058032737939.8,1557687669602597.2,445672681.5981916,1145089944.9776428,25673272740.05527,738888061915.9476
3.0421862473761276,7070474030090460.0,9863985424183412.0,1192632093216372.0,1600047761251396.8,483707746.8878517,1242815420.8909588,27864314490.86743,801948787517.5303
3.2030299723236504,7256429350732818.0,1.0123457463742166e+16,1223998629935891.5,1642129436842495.8,523557111.60481167,1345202471.2095945,30159870647.90495,868017600756.9512
3.3670905717701234,7441316637984278.0,1.038144282582935e+16,1255185013119321.8,1683969416554724.8,565270949.6893784,1452380010.4655864,32562831524.573532,937177688544.8837
3.5344323832055258,7625283294011622.0,1.0638147223030428e+16,1286216106241705.2,1725601057487742.5,608901521.9634336,1564482315.1258004,35076207651.292435,1009515697886.0676
3.7051210308696363,7808463833299511.0,1.0893758393505346e+16,1317114598912096.2,1767054800259706.5,654503185.5431052,1681649047.7763968,37703130317.68541,1085121751475.5591
3.879223451487029,7990981536109944.0,1.1148448407555992e+16,1347901285775401.5,1808358543184958.8,702132410.5800258,1804025300.1370242,40446852536.94734,1164089475447.3325
4.0568079205167695,8172949842999181.0,1.140237561298646e+16,1378595301736511.0,1849537957853173.2,751847803.4061322,1931761652.5279596,43310750379.098816,1246516037741.2153
4.237944078927105,8354473538177359.0,1.1655686285912548e+16,1409214321566790.8,1890616756923513.0,803710135.3475952,2065014247.9032838,46298324630.818825,1332502195870.2507
4.422702960505647,8535649759429213.0,1.190851603963722e+16,1439774730255271.8,1931616922669620.5,857782376.6222857,2203944878.945434,49413202748.123764,1422152353117.378
4.61115701971576,8716568864616946.0,1.2160991033468894e+16,1470291769168506.5,1972558903069168.0,914129734.8524473,2348721087.0178275,52659141074.91092,1515574622384.79
4.803380160110075,8897315178843568.0,1.2413229015071192e+16,1500779662080418.5,2013461780886865.8,972819697.8174757,2499516272.011868,56040027305.76098,1612880897073.937
4.9994477633122765,9077967641728382.0,1.2665340223478104e+16,1531251724353307.0,2054343420152834.0,1033922080.1465472,2656509812.3168173,59559883175.69961,1714186928498.2751
5.199436718578522,9258600370614288.0,1.2917428174842202e+16,1561720457938445.2,2095220593616399.2,1097509073.7113204,2819887194.2964,63222867363.10837,1819612409431.0835
5.403425452950093,9439283152655180.0,1.316959034897845e+16,1592197634380300.0,2136109094105440.0,1163655301.5282292,2989840150.7828574,67033278594.808624,1929281063472.5215
5.611493962009095,9620081876443806.0,1.342191879157371e+16,1622694367622568.0,2177023832203710.5,1232437875.02046,3166566808.203194,70995558944.6855,2043320739987.3054
5.823723841249277,9801058912006308.0,1.3674500644374776e+16,1653221178104830.0,2217978922243618.5,1303936454.5232313,3350271842.038581,75114297319.146,2161863514419.9417
6.040198318074262,9982273446510120.0,1.3927418613602946e+16,1683788049389019.2,2258987758276863.5,1378233312.9440088,3541166640.390015,79394233124.32018,2285045793841.161
6.261002284435747,1.0163781781830552e+16,1.4180751385167204e+16,1714404478352298.0,2300063081413738.0,1455413402.5128636,3739469475.483494,83840260111.27599,2413008427617.8145
6.486222330124463,1.0345637599140674e+16,1.4434573993881632e+16,1745079519817516.0,2341217039699821.0,1535564424.5781324,3945405682.999709,88457430396.6578,2545896823132.083
6.715946776726952,1.0527892194885234e+16,1.4688958152768826e+16,1775821826356786.5,2382461241516867.0,1618776902.4195192,4159207849.1567454,93250958657.15465,2683861066503.7715
6.950265712261491,1.071059469183561e+16,1.4943972547606818e+16,1806639683891706.0,2423806803344447.5,1705144257.0656261,4381116005.5120125,98226226497.0352,2827056048293.9263
7.18927102650672,1.0893792228372008e+16,1.5199683101109638e+16,1837541043621143.5,2465264392594612.0,1794762886.115488,4611377831.4825945,103388786988.7354,2975641594189.229
7.433056447036854,1.1077530128683124e+16,1.5456153210492388e+16,1868533550730115.8,2506844266127957.0,1887732245.5748625,4850248864.611741,108744369387.11539,3129782600684.971
7.681717575977592,1.1261852056189512e+16,1.5713443961639268e+16,1899624570268874.5,2548556304973411.5,1984154934.728049,5097992718.634407,114298884018.57715,3289649175800.883
7.935351927497144,1.14468001521754e+16,1.5971614322643336e+16,1930821210537068.0,2590410045700522.0,2084136784.0745137,5354881309.417643,120058427346.73863,3455416784878.5454
8.194058966047088,1.1632415161344134e+16,1.6230721319109744e+16,1962130344262128.2,2632414708832720.0,2187786946.3677363,5621195088.871493,126029287216.80971,3627266401522.299
8.45794014536803,1.1818736545781896e+16,1.649082019329495e+16,1993558627822441.2,2674579224637256.5,2295217990.800709,5897223286.944864,132217948281.23782,3805384663757.2754
8.72709894827539,1.2005802588620854e+16,1.675196454888123e+16,2025112518732975.5,2716912256584147.5,2406546000.389028,6183264161.837161,138631097609.55405,3989964035489.2397
9.0016409272409,1.2193650488525764e+16,1.7014206482957254e+16,2056798291583162.5,2759422222728552.5,2521890672.608745,6479625258.572407,145275630485.70993,4181202973360.567
9.281673745785717,1.2382316445988596e+16,1.7277596706575076e+16,2088622052592774.5,2802117315239155.5,2641375423.351464,6786623676.096776,152158656396.5127,4379306099106.5405
9.567307220701432,1.2571835742290732e+16,1.7542184655085962e+16,2120589752931208.0,2845005518267428.0,2765127494.2647758,7104586343.073967,159287505215.0706,4584484377524.26
9.85865336511546,1.2762242811892114e+16,1.7808018589311176e+16,2152707200927814.8,2888094624329100.5,2893278063.5507746,7433850302.565998,166669733583.45163,4796955300175.3545
10.155826432417769,1.2953571308911624e+16,1.807514568847803e+16,2184980073285762.5,2931392249348880.0,3025962360.300576,7774763005.798707,174313131499.02646,5016943074951.059
10.458942961066125,1.3145854168289366e+16,1.8343612135742484e+16,2217413925398701.2,2974905846501312.0,3163319782.446738,8127682615.223598,182225729109.2395,5244678821636.16
10.768121820287448,1.3339123662150798e+16,1.8613463197024724e+16,2250014200858174.8,3018642718966061.5,3305494018.4206586,8492978317.098486,190415803719.79428,5480400773615.409
11.083484256693197,1.3533411451835134e+16,1.8884743293803372e+16,2282786240229609.5,3062610031701888.5,3452633172.60561,8871030643.820757,198891887021.50046,5724354485873.43
11.405153941827061,1.3728748635998452e+16,1.9157496070440852e+16,2315735289166294.5,3106814822332417.5,3604889894.6808133,9262231806.258102,207662772541.2605,5976793049445.658
11.733257020663602,1.3925165795157706e+16,1.9431764456550404e+16,2348866505922920.5,3151264011226410.5,3762421512.955745,9666986036.3316,216737523322.92648,6237977312485.569
12.067922161076874,1.4122693033001632e+16,1.9707590724860028e+16,2382184968323876.0,3195964410846460.0,3925390171.7983394,10085709940.11726,226125479843.9827,6508176108118.85
12.409280604298411,1.4321360014760924e+16,1.9985016544981684e+16,2415695680235375.5,3240922734432136.5,4093962973.264437,10518832861.742233,235836268174.24753,6787666489264.02
12.75746621638438,1.4521196002898832e+16,2.0264083033449624e+16,2449403577585701.5,3286145604076733.5,4268312123.040203,10966797258.362654,245879808383.0296,7076733970603.331
13.112615540712067,1.4722229890356918e+16,2.0544830800356096e+16,2483313533973045.0,3331639558250843.0,4448615080.813132,11430059086.51991,256266323201.39633,7375672777896.713
13.474867851526309,1.4924490231567164e+16,2.0827299992878748e+16,2517430365896530.5,3377411058820361.5,4635054715.191544,11909088200.183485,267006346946.465,7684786104836.704
13.844365208556836,1.5128005271420216e+16,2.111153033596533e+16,2551758837642522.5,3423466497601989.5,4827819463.29623,12404368760.798832,278110734714.8322,8004386377650.266
14.221252512727972,1.5332802972361172e+16,2.139756117041401e+16,2586303665855105.0,3469812202495032.5,5027103495.1526375,12916399659.668585,289590671852.54895,8334795527659.27
14.605677562982532,1.553891103976779e+16,2.1685431488566644e+16,2621069523816794.5,3516454443224474.0,5233106883.015351,13445694953.007547,301457683709.22424,8676345272019.519
14.997791114242183,1.5746356945751322e+16,2.1975179967810276e+16,2656061045463212.0,3563399436727112.5,5446035775.761915,13992784310.022007,313723645684.15546,9029377402863.928
15.397746936527026,1.5955167951506646e+16,2.226684500206378e+16,2691282829153081.0,3610653352209358.0,5666102578.4963455,14558213474.374777,326400793572.5614,9394244085083.984
15.805701875257567,1.6165371128327092e+16,2.256046473141108e+16,2726739441212948.0,3658222315902939.0,5893526137.507719,15142544739.40928,339501734220.30597,9771308162989.553
16.221815912762718,1.6376993377388672e+16,2.2856077070026988e+16,2762435419274338.0,3706112415542036.5,6128531930.733485,15746357437.517471,353039456495.731,10160943476095.68
16.64625223101797,1.6590061448398926e+16,2.3153719732529456e+16,2798375275419405.0,3754329704583545.5,6371352263.881624,16370248444.04694,367027342587.458,10563535184291.75
17.079177275638333,1.6804601957197188e+16,2.345343025887832e+16,2834563499149707.5,3802880206189959.0,6622226472.370392,17014832696.155718,381479179637.3401,10979480102656.004
17.5207608211511,1.7020641402385322e+16,2.375524603793249e+16,2871004560191442.5,3851769916992996.0,6881401129.249194,17680743727.03502,396409171717.94055,11409187046187.287
17.97117603757412,1.7238206181061802e+16,2.4059204329766684e+16,2907702911149446.0,3901004810654111.5,7149130259.269,18368634215.931465,411831952164.2785,11853077184731.945
18.430599558325603,1.7457322603724642e+16,2.436534228683952e+16,2944662990020961.0,3950590841237103.5,7425675559.275247,19079176554.415108,427762596269.7816,12311584408394.271
18.899211549492115,1.7678016908404272e+16,2.4673696974098308e+16,2981889222579562.0,4000533946406343.5,7711306625.101745,19813063429.34991,444216634356.73303,12785155703724.867
19.37719578048196,1.7900315274081408e+16,2.4984305388099056e+16,3019386024638477.5,4050840050463311.0,8006301185.148659,20571008423.03876,461210065231.77234,13274251540991.725
19.864739696091597,1.812424383344188e+16,2.5297204475211684e+16,3057157804201972.0,4101515067232895.5,8310945340.83323,21353746631.02656,478759370037.2965,13779346272846.203
20.36203449001343,1.834982868501405e+16,2.5612431148977256e+16,3095208963512718.0,4152564902810177.5,8625533814.107397,22162035298.06046,496881526509.95905,14300928544705.654
20.869275179813698,1.85770959047324e+16,2.5930022306677496e+16,3133543901002310.0,4203995458177276.5,8950370202.241068,22996654472.719147,515594023657.72815,14839501717183.055
21.38666068340997,1.8806071556967852e+16,2.6250014845171852e+16,3172167013151828.5,4255812631699409.0,9285767240.07684,23858407681.237663,534914876867.3229,15395584300903.674
21.91439389707817,1.90367817050596e+16,2.657244567605345e+16,3211082696268298.5,4308022321508361.0,9632047069.966131,24748122621.06951,554862643454.167,15969710404058.055
22.452681775019734,1.9269252421383748e+16,2.6897351740172828e+16,3250295348183102.0,4360630427780952.0,9989541519.603708,25666651874.741997,575456438667.3206,16562430193050.352
23.00173541052013,1.9503509796989116e+16,2.722477002157094e+16,3289809369877300.5,4413642854919688.0,10358592387.983097,26614873644.577087,596715952162.2433,17174310366611.11
23.561770118730532,1.9739579950829708e+16,2.75547375608635e+16,3329629167038892.5,4467065513641934.5,10739551739.701178,27593692508.864944,618661464954.4991,17805934643753.11
24.133005521105144,1.9977489038619124e+16,2.7887291468114536e+16,3369759151556437.5,4520904322983765.0,11132782207.847635,28604040200.093723,641313866868.0228,18457904265960.69
24.715665631527248,2.0217263261333068e+16,2.822246893523262e+16,3410203742953221.0,4575165212224149.0,11538657305.719656,29646876405.85591,664694674491.756,19130838514011.67
25.309978944157795,2.0458928873382356e+16,2.8560307247923356e+16,3450967369765823.0,4629854122734318.0,11957561747.610645,30723189593.06854,688826049659.0168,19825375239843.82
25.91617852304095,2.0702512190477044e+16,2.890084379722729e+16,3492054470870660.5,4684977009757574.0,12389891778.926983,31833997856.16002,713730818464.2178,20542171413887.438
26.53450209350177,2.094803959720214e+16,2.924411609067193e+16,3533469496761799.0,4740539844123577.0,12836055515.894743,32980349789.897797,739432490832.0042,21281903688297.496
27.165192135371807,2.1195537554322508e+16,2.9590161763063092e+16,3575216910783193.0,4796548613901520.0,13296473295.124546,34163325387.544445,765955280654.322,22045268976531.598
27.808495978079243,2.1445032605834936e+16,2.993901858694017e+16,3617301190318142.0,4853009325995938.0,13771578033.310436,35384036965.052055,793324126511.223,22832985049728.75
28.464665897640828,2.1696551385781704e+16,3.0290724482718236e+16,3659726827938669.5,4909928007688721.0,14261815597.345688,36643630112.021706,821564712991.7781,23645791150360.785
29.133959215593645,2.1950120624842504e+16,3.0645317528536664e+16,3702498332517313.0,4967310708130701.0,14767645185.146473,37943284670.174515,850703492631.8271,24484448623635.848
29.816638399905518,2.2205767156715724e+16,3.1002835969836348e+16,3745620230303651.5,5025163499785912.0,15289539717.481247,39284215740.10042,880767708485.694,25349741567150.195
30.51297116790363,2.246351792430473e+16,3.1363318228681384e+16,3789097065967676.0,5083492479831437.0,15827986241.111973,40667674717.072464,911785417349.5763,26242477499294.17
31.223230591261704,2.272339998571879e+16,3.172680291284356e+16,3832933403612077.0,5142303771515450.0,16383486343.56205,42094950356.7322,943785513654.6595,27163488046934.477
31.947695203086937,2.2985440520101444e+16,3.2093328824666404e+16,3877133827755336.0,5201603525476181.0,16956556579.83209,43567369871.474525,976797754048.5352,28113629652905.746
32.686649107148675,2.3249666833295816e+16,3.246293496972271e+16,3921702944287337.0,5261397921023941.0,17547728911.395638,45086300058.38515,1010852782683.9867,29093784303861.125
33.44038208929165,2.3516106363356644e+16,3.283566056528022e+16,3966645381399124.0,5321693167388520.0,18157551157.81332,46653148459.596214,1045982157234.6826,30104860279042.242
34.20918973107749,2.3784786685918468e+16,3.321154504858918e+16,4011965790488435.5,5382495504934053.0,18786587461.313828,48269364555.96203,1082218375657.8309,31147792920547.043
34.993373525699035,2.4055735519428776e+16,3.359062808500355e+16,4057668847042370.5,5443811206343202.0,19435418764.69891,49936440994.96633,1119594903724.3682,32223545425685.742
35.793240996213015,2.4328980730253604e+16,3.3972949575948244e+16,4103759251498547.0,5505646577772571.0,20104643302.9385,51655914853.80544,1158146203337.7642,33333109662031.918
36.60910581613728,2.460455033766247e+16,3.4358549666742908e+16,4150241730086093.5,5568007959980853.0,20794877108.831703,53429368938.6116,1197907761663.1045,34477507005789.93
37.44128793246003,2.4882472518701524e+16,3.474746875429341e+16,4197121035647529.5,5630901729431516.0,21506754533.11839,55258433120.80516,1238916121088.59,35657789204116.82
38.29011369110923,2.516277561295974e+16,3.513974749466055e+16,4244401948442716.0,5694334299371514.0,22240928779.436775,57144785711.59103,1281208910042.2244,36875039262050.47
39.15591596493141,2.5445488127234916e+16,3.553542681051476e+16,4292089276935937.5,5758312120887169.0,22998072454.531292,59090154875.638756,1324824874687.0068,38130372354714.4
40.03903428423004,2.5730638740105564e+16,3.5934547898486548e+16,4340187858567119.0,5822841683938662.0,23778878134.125965,61096320085.01325,1369803911518.4556,39424936765484.336
40.93981496991464,2.6018256306413644e+16,3.6337152236420456e+16,4388702560507850.0,5887929518374659.0,24584058944.88858,63165113614.447716,1416187100889.068,40759914850817.766
41.85861126931294,2.6308369861663628e+16,3.674328159054015e+16,4437638280403531.5,5953582194927725.0,25414349162.92069,65298422079.077934,1464016741484.6968,42136524032467.53
42.7957834946992,2.6601008626342276e+16,3.715297802253258e+16,4486999947101942.0,6019806326191896.0,26270504829.22094,67498188015.78749,1513336385778.5603,43556017817813.375
43.751699164593184,2.689620201016388e+16,3.756628389655791e+16,4536792521369341.0,6086608567583338.0,27153304382.578857,69766411509.33583,1564190876489.3342,45019686849066.21
