t(s),Total solute volume 1,Total retention volume 1,Total 1 volume 1,Total 2 volume 1,Total 3 volume 1,Total 4 volume 1,Total 5 volume 1,Total 6 volume 1
0.1,839524706393360.9,941664656952722.2,50673114377222.37,51466836182138.266,0.0,0.0,0.0,0.0
0.202,1248531927648881.0,1432343993256559.0,75360499542252.52,76540914117599.92,80864073878.10184,135412942307.20401,1597949630538.5857,30096425301102.723
0.30604000000000003,1547988987204935.8,1816238270780439.2,93435514780168.45,94899048682748.2,202504826180.90298,339125157664.8505,4001886903917.212,75371203224823.94
0.41216080000000005,1791543428009786.5,2149624003051643.8,108136287687454.27,109830088218787.44,355043081680.8476,594601693518.3416,7016694654762.05,132147859705653.61
0.5204040160000001,1999549581243754.8,2453415529027489.5,120691391227836.42,122581849539417.81,533621046052.67194,893714690119.3328,10546464728333.66,198618906551979.38
0.6308120963200001,2182289596455201.8,2737973684516665.0,131721448639147.22,133784677061089.38,735266618353.9745,1231493344055.9885,14532543722614.719,273678658676198.53
0.7434283382464002,2345822792291168.0,3009295491806271.0,141592196087485.34,143810035685146.44,957952416200.4827,1604548515655.2495,18934942574688.19,356573024235925.5
0.8582969050113283,2494084332139538.5,3271213503915555.5,150541157237436.28,152899169545296.9,1200203816205.52,2010416534443.2375,23724593187861.4,446753631454776.25
0.9754628431115548,2629807281320554.0,3526352727557735.0,158733297968753.97,161219628476215.6,1460903011663.1897,2447231180673.7573,28879477693105.74,543804907906770.7
1.094972099973786,2754985554577626.0,3776606408294381.5,166288969557831.47,168893648885122.28,1739178800973.6335,2913539195233.564,34382451408036.69,647403065869555.9
1.2168715419732616,2871129600173261.5,4023396246358701.0,173299341587970.84,176013828396586.8,2034339232091.314,3408187536319.5396,40219912436966.625,757291036995503.4
1.3412089728127268,2979418123541695.0,4267825303626324.5,179835559881199.97,182652427230280.1,2345827815615.654,3930250092325.241,46380936869303.81,873262178195906.0
1.4680331522689813,3080793320519916.0,4510773042880921.0,185954494708396.34,188867206448600.6,2673193665482.4814,4478977710441.295,52856689111811.73,995149160716274.8
1.597393815314361,3176023416072615.5,4752957130210726.0,191702515582264.84,194705261876399.78,3016070346127.258,5053762800236.354,59640004210690.71,1122816099322395.6
1.729341691620648,3265745288951391.5,4994975147506174.0,197118064051467.4,200205637194255.8,3374160414351.4663,5654113470303.591,66725082667035.95,1256152800757370.5
1.863928525453061,3350494443114453.0,5237333637797713.0,202233462754206.84,205401161328298.53,3747223827435.1646,6279634137074.801,74107261626023.92,1395070451010223.8
2.001207095962122,3430726648136066.5,5480468874591037.0,207076221617956.28,210319775109694.25,4135069059456.062,6930010667250.064,81782839564284.27,1539498310436330.5
2.1412312378813647,3506833925147676.0,5724762057493869.0,211670002759504.62,214985511288463.94,4537546165779.618,7604998781579.642,89748939462368.39,1689381133888491.2
2.284055862638992,3579156592798904.5,5970550654316310.0,216035347570592.3,219419233007888.84,4954541281488.148,8304414859220.345,98003400304900.5,1844677124493309.2
2.4297369798917723,3647992504170372.0,6218137017234996.0,220190234251407.22,223639200070961.25,5385972196551.939,9028128544769.346,106544689853071.7,2005356288147867.2
2.578331719489608,3713604240053488.0,6467795031388920.0,224150511991836.75,227661509922472.4,5831784753858.904,9776056733024.436,115371833674965.06,2171399094259274.5
2.7298983538794,3776224788522964.0,6719775317652995.0,227930243786428.62,231500445833675.62,6291949885961.484,10548158623265.488,124484356796830.95,2342795374203880.0
2.884496320956988,3836062085175608.0,6974309355860919.0,231541980479972.7,235168755240403.16,6766461154559.864,11344431615471.719,133882235289766.3,2519543406905147.5
3.0421862473761276,3893302683348103.5,7231612790296430.0,234996982299241.8,238677874744783.47,7255332690678.694,12164907877697.045,143565855776611.94,2701649153559324.5
3.2030299723236504,3948114751234722.5,7491888107681684.0,238305399756882.66,242038113852735.9,7758597457846.951,13009651454592.43,153535981324916.28,2889125612599985.5
3.3670905717701234,4000650542037197.0,7755326827931694.0,241476422747908.8,245258806405840.28,8276305778352.734,13878755816793.527,163793722542661.16,3081992272602926.5
3.5344323832055258,4051048447058635.5,8022111312505092.0,244518404472985.5,248348436445713.16,8808524075793.64,14772341772904.492,174340512953165.4,3280274645725888.0
3.7051210308696363,4099434715433716.5,8292416269664178.0,247438965240127.03,251314743641599.4,9355333797009.445,15690555682321.291,185178087920460.38,3484003867948945.0
3.879223451487029,4145924904946754.0,8566410017332568.0,250245080035037.84,254164812232386.75,9916830483977.426,16633567919683.193,196308466544448.84,3693216355170278.0
4.0568079205167695,4190625114090406.5,8844255550472469.0,252943152887306.72,256905146557633.88,10493122972008.514,17601571551378.297,207733936058907.97,3907953506354826.0
4.237944078927105,4233633034769309.5,9126111449610370.0,255539080410842.28,259541735593280.1,11084332695052.416,18594781192012.062,219457038353660.34,4128261446596219.0
4.422702960505647,4275038856884183.0,9412132659360384.0,258038306403934.1,262080108406933.72,11690593082422.805,19613432014611.36,231480558311469.03,4354190804256823.5
4.61115701971576,4314926049763911.0,9702471159856496.0,260445869015931.0,264525382063354.97,12312049034024.783,20657778892976.863,243807513704944.0,4585796517381344.0
4.803380160110075,4353372040556631.5,9997276549430276.0,262766441694448.84,266882303213038.03,12948856463376.92,21728095658293.82,256441146442390.1,4823137665402115.0
4.9994477633122765,4390448805897389.5,1.029669655331582e+16,265004368898008.88,269155284364238.44,13601181899495.555,22824674455087.844,269384914986634.22,5066277322814977.0
5.199436718578522,4426223390180965.5,1.0600877470378482e+16,267163697378615.75,271348435655550.72,14269202140146.3,23947825184015.906,282642487799259.2,5315282432039921.0
5.403425452950093,4460758361397142.5,1.0909964567666808e+16,269248203695651.5,273465592800762.7,14953103950140.746,25097875020948.023,296217737685837.56,5570223693116353.0
5.611493962009095,4494112213589486.0,1.1224102430839354e+16,271261418508000.6,275510341761486.56,15653083799315.79,26275168003402.945,310114736936758.4,5831175468240907.0
5.823723841249277,4526339723473386.0,1.1543435277119336e+16,273206648099261.53,277486040609531.06,16369347635626.803,27480064676730.594,324337753173891.7,6098215699450932.0
6.040198318074262,4557492267513667.0,1.186810723630587e+16,275086993516326.03,279395838965258.53,17102110689444.197,28712941793536.14,338891245826382.4,6371425838001273.0
6.261002284435747,4587618104755672.0,1.219826260445626e+16,276905367640865.97,281242695336468.97,17851597305690.66,29974192060760.652,353779863169705.3,6650890784187080.0
6.486222330124463,4616762629879481.0,1.2534046074112416e+16,278664510463495.2,283029392631818.0,18618040800917.926,31264223929605.7,369008439871219.75,6936698836535883.0
6.715946776726952,4644968600267416.0,1.2875602944335394e+16,280367002789415.44,284758552081135.7,19401683342808.453,32583461424138.73,384581994993141.94,7228941649437336.0
6.950265712261491,4672276340313630.0,1.322307931331044e+16,282015278570391.94,286432645760563.75,20202775849915.82,33932344004966.836,400505730410348.56,7527714198400645.0
7.18927102650672,4698723925736397.0,1.3576622255872258e+16,283611636029708.8,288054007891774.75,21021577909737.027,35311326464835.6,416785029605966.9,7833114752233852.0
7.433056447036854,4724347350263197.0,1.3936379987953802e+16,285158247723169.94,289624845060556.6,21858357713446.3,36720878853407.85,433425456812385.9,8145244851527641.0
7.681717575977592,4749180676731079.0,1.4302502019676756e+16,286657169659405.44,291147245479978.56,22713392005824.918,38161486428821.37,450432756469427.8,8464209292902216.0
7.935351927497144,4773256174368050.0,1.4675139298559696e+16,288110349586075.3,292623187406388.9,23586966049095.406,39633649633918.57,467812852974844.1,8790116118541353.0
8.194058966047088,4796604443787599.0,1.5054444344118098e+16,289519634534456.8,294054546802171.75,24479373599521.637,41137884095296.19,485571850705333.56,9123076610593728.0
8.45794014536803,4819254531030068.0,1.544057137495878e+16,290886777702895.44,295443104327022.3,25390916895763.773,42674720643544.14,503716034288897.44,9463205290070588.0
8.72709894827539,4841234031814821.0,1.5833676429327248e+16,292213444749397.3,296790551729103.0,26321906658093.05,44244705353233.14,522251869111579.06,9810619919911010.0
9.0016409272409,4862569187022974.0,1.6233917479942682e+16,293501219554890.06,298098497698576.3,27272662097669.562,45848399601380.11,541186002043665.25,1.016544151192349e+16
9.281673745785717,4883284970305698.0,1.664145454384956e+16,294751609511205.25,299368473238414.56,28243510935170.734,47486380143266.09,560525262372080.1,1.0527794337343718e+16
9.567307220701432,4903405168606172.0,1.7056449787926228e+16,295966050381322.8,300601936600776.06,29234789428136.645,49159239204608.86,580276662927323.8,1.0897805940777922e+16
9.85865336511546,4922952456291231.0,1.7479067630612e+16,297145910773907.9,301800277831628.94,30246842406460.734,50867584589208.266,600447401394549.0,1.1275607157325016e+16
10.155826432417769,4941948463508261.0,1.7909474840348584e+16,298292496269278.7,302964822961345.56,31280023315516.438,52612039801279.07,621044861799610.4,1.1661332132693322e+16
10.458942961066125,4960413839313591.0,1.8347840631174496e+16,299407053229798.6,304096837874774.75,32334694266458.727,54393244181779.01,642076616161971.5,1.2055118346146128e+16
10.768121820287448,4978368310058057.0,1.8794336755859604e+16,300490772323979.3,305197531890554.94,33411226093286.2,56211853058111.61,663550426307216.8,1.245710663612841e+16
11.083484256693197,4995830733462478.0,1.9249137596926308e+16,301544791790445.4,306268061076193.7,34509998416288.61,58068537906662.23,685474245832841.4,1.2867441228441374e+16
11.405153941827061,5012819148769613.0,1.971242025586333e+16,302570200465062.94,307309531322619.7,35631399711542.08,59963986527679.02,707856222221673.1,1.328626976684512e+16
11.733257020663602,5029350823318238.0,2.0184364640807852e+16,303568040592129.3,308323001199401.25,36775827386142.625,61898903232073.92,730704699097908.6,1.3713743345981982e+16
12.067922161076874,5045442295849737.0,2.0665153552941412e+16,304539310438319.2,309309484609632.75,37943687858898.85,63874009039763.35,754028218621459.6,1.4150016546523568e+16
12.409280604298411,5061109416825532.0,2.115497277181907e+16,305484966726211.0,310269953261593.44,39135396646230.97,65890041889217.57,777835524016693.9,1.4595247472453614e+16
12.75746621638438,5076367386006091.0,2.1654011139832596e+16,306405926902547.0,311205338972517.9,40351378453040.016,67947756857924.52,802135562232238.8,1.5049597790408266e+16
13.112615540712067,5091230787517814.0,2.2162460645983896e+16,307303071254828.3,312116535818356.56,41592067268338.79,70047926393514.53,826937486728942.2,1.5513232771002142e+16
13.474867851526309,5105713622611791.0,2.2680516509132268e+16,308177244888615.9,313004402142043.56,42857906465445.61,72191340555321.98,852250660393409.6,1.5986321332075634e+16
13.844365208556836,5119829340298976.0,2.3208377260860496e+16,309029259576654.94,313869762431587.75,44149348906563.2,74378807266192.38,878084658575002.2,1.6469036083805516e+16
14.221252512727972,5133590866029769.0,2.3746244828093744e+16,309859895489940.0,314713409078250.6,45466857051579.13,76611152574369.42,904449272244406.0,1.6961553375625452e+16
14.605677562982532,5147010628569283.0,2.429432461559099e+16,310669902819898.5,315536104024140.8,46810903070930.35,78889220925324.64,931354511272272.6,1.746405334490915e+16
14.997791114242183,5160100585206738.0,2.4852825588419172e+16,311460003300010.8,316338580307663.06,48181968962395.76,81213875443411.02,958810607826627.6,1.7976719967372344e+16
15.397746936527026,5172872245424825.0,2.542196035451137e+16,312230891634468.3,317121543514560.94,49580546671679.57,83585998223242.69,986828019888067.2,1.8499741109154536e+16
15.805701875257567,5185336693143168.0,2.6001945247399176e+16,312983236840783.3,317885673141550.56,51007138216666.87,86006490630732.02,1015417434881918.9,1.9033308580544428e+16
16.221815912762718,5197504607641178.0,2.6593000409205236e+16,313717683512667.3,318631623878990.56,52462255815233.58,88476273613715.53,1044589773426836.9,1.9577618191316624e+16
16.64625223101797,5209386283255350.0,2.7195349873971516e+16,314434853008955.4,319360026818411.6,53946422016503.74,90996288022135.23,1074356193199455.2,2.0132869807650744e+16
17.079177275638333,5220991647938817.0,2.7809221651395468e+16,315135344573841.5,320071490590319.94,55460169835449.9,93567494937743.5,1104728092914895.4,2.0699267410604404e+16
17.5207608211511,5232330280763532.0,2.8434847811038184e+16,315819736393298.9,320766602437144.0,57004042890742.945,96190876013320.42,1135717116423128.5,2.127701915611704e+16
17.97117603757412,5243411428438297.0,2.9072464567066344e+16,316488586592099.7,321445929225886.9,58578595545755.71,98867433821403.39,1167335156921348.8,2.1866337436521492e+16
18.430599558325603,5254244020910749.0,2.972231236358117e+16,317142434175533.94,322110018404590.44,60184393052633.875,101598192212543.64,1199594361282662.0,2.2467438943542424e+16
18.899211549492115,5264836686115145.0,3.0384635960587984e+16,317781799919582.5,322759398906448.06,61822011699347.92,104384196683110.92,1232507134501478.2,2.3080544732762856e+16
19.37719578048196,5275197763923411.0,3.1059684520651804e+16,318407187212984.4,323394582005068.2,63492038959644.414,107226514752683.42,1266086144256269.8,2.3705880289541716e+16
19.864739696091597,5285335319352278.0,3.1747711696283908e+16,319019082854419.6,324016062124136.9,65195073645817.01,110126236351066.39,1300344325590294.8,2.4343675596365896e+16
20.36203449001343,5295257155075146.0,3.244897571809942e+16,319617957807706.44,324624317604452.25,66931726064218.63,113084474214996.1,1335294885711189.5,2.4994165201621732e+16
20.869275179813698,5304970823283790.0,3.316373948378313e+16,320204267917773.44,325219811431103.75,68702618173436.39,116102364294590.16,1370951308910306.8,2.565758828977211e+16
21.38666068340997,5314483636941497.0,3.3892270647898332e+16,320778454589886.25,325802991923343.44,70508383745057.38,119181066169618.19,1407327361602828.5,2.6334188752926108e+16
21.91439389707817,5323802680466194.0,3.4634841712571044e+16,321340945434475.8,326374293389507.75,72349668526946.16,122321763475670.55,1444437097489871.5,2.702421526378838e+16
22.452681775019734,5332934819879268.0,3.5391730119077944e+16,321892154879712.56,326934136749196.44,74227130408960.47,125525664340317.69,1482294862843683.5,2.772792134997681e+16
23.00173541052013,5341886712453208.0,3.616321834036636e+16,322432484753831.1,327482930124714.44,76141439591031.33,128794001829346.03,1520915301917437.0,2.844556546969675e+16
23.561770118730532,5350664815888854.0,3.694959397453032e+16,322962324839065.4,328021069403674.8,78093278753528.66,132128034403184.33,1560313362480876.8,2.91774110887612e+16
24.133005521105144,5359275397050767.0,3.775114983926648e+16,323482053398902.9,328548938774528.06,80083343229838.62,135529046383619.14,1600504301483422.8,2.9923726758945388e+16
24.715665631527248,5367724540287223.0,3.8568184067329096e+16,323992037680286.7,329066911236614.75,82112341181073.62,138998348430919.5,1641503690846328.0,3.068478619766661e+16
25.309978944157795,5376018155359923.0,3.940100020300479e+16,324492634392227.56,329575349086287.3,84180993772835.72,142537278031489.3,1683327423385499.5,3.1460868368976644e+16
25.91617852304095,5384161985005891.0,4.024990729962361e+16,324984190162252.6,330074604380499.1,86290035353954.4,146147199996178.9,1725991718866814.0,3.225225756585811e+16
26.53450209350177,5392161612153483.0,4.111522001811994e+16,325467041971949.25,330565019379175.9,88440213637111.83,149829506969383.75,1769513130195681.5,3.3059243493813184e+16
27.165192135371807,5400022466812568.0,4.1997258726659384e+16,325941517572853.1,331046926967613.75,90632289881274.3,153585619949070.88,1813908549742842.5,3.388212135573315e+16
27.808495978079243,5407749832657139.0,4.289634960134186e+16,326407935883771.9,331520651060026.4,92867039075840.1,157416988817877.2,1859195215808344.2,3.4721191938038864e+16
28.464665897640828,5415348853318465.0,4.381282472799086e+16,326866607370629.75,331986506985352.1,95145250126412.47,161325092885428.4,1905390719225703.8,3.5576761698078956e+16
29.133959215593645,5422824538404668.0,4.474702220503817e+16,327317834409815.9,332444801856270.94,97467726042104.31,165311441442030.94,1952513010108463.0,3.644914285277473e+16
29.816638399905518,5430181769262392.0,4.569928624750889e+16,327761911635943.25,332895834922429.2,99835284124278.05,169377574323900.2,2000580404741286.5,3.733865346849872e+16
30.51297116790363,5437425304494664.0,4.666996729211526e+16,328199126274907.44,333339897908708.6,102248756156617.3,173525062490078.0,2049611592617862.5,3.824561755217244e+16
31.223230591261704,5444559785248472.0,4.7659422103458616e+16,328629758463042.7,333777275339379.75,104708988596427.97,177755508611228.0,2099625643627930.2,3.917036514357217e+16
31.947695203086937,5451589740284852.0,4.86680138813436e+16,329054081553145.75,334208244848922.44,107216842767057.9,182070547670453.0,2150642015395859.5,4.011323240882321e+16
32.686649107148675,5458519590843049.0,4.969611236920398e+16,329472362408076.4,334633077480222.94,109773195051319.05,186471847576342.8,2202680560773210.0,4.1074561735071784e+16
33.44038208929165,5465353655310153.0,5.074409396363965e+16,329884861682608.6,335052037970842.94,112378937085801.36,190961109788406.1,2255761535487831.5,4.205470182631392e+16
34.20918973107749,5472096153706461.0,5.1812341825057e+16,330291834094168.25,335465385027993.4,115034975955942.22,195540069955092.2,2309905605952031.0,4.305400780036532e+16
34.993373525699035,5478751211996561.0,5.290124598941423e+16,330693528683045.7,335873371592826.25,117742234391737.05,200210498564582.88,2365133857232580.0,4.407284128695298e+16
35.793240996213015,5485322866235352.0,5.401120348105813e+16,331090189062645.8,336276245094606.0,120501650963944.22,204974201608547.53,2421467801185084.5,4.511157052690792e+16
36.60910581613728,5491815066557743.0,5.5142618426646456e+16,331482053660303.75,336674247695291.06,123314180280650.95,209833021259068.25,2478929384755791.5,4.617057047243773e+16
37.44128793246003,5498231681020209.0,5.629590217014566e+16,331869355949159.7,337067616525047.06,126180793184052.66,214788836558920.97,2537540998453270.5,4.725022288845499e+16
38.29011369110923,5504576499302106.0,5.7471473388888904e+16,332252324671566.44,337456583909149.44,129102476947290.2,219843564125438.78,2597325484993367.5,4.835091645494002e+16
39.15591596493141,5510853236273916.0,5.866975821068133e+16,332631184054464.4,337841377586736.9,132080235471189.75,224999158868143.0,2658306148119874.0,4.947304687030706e+16
40.03903428423004,5517065535439445.0,5.989119033193534e+16,333006154017154.6,338222220921832.9,135115089480736.31,230257614720376.06,2720506761604378.0,5.061701695575146e+16
40.93981496991464,5523216972258505.0,6.11362111368152e+16,333377450371850.2,338599333107041.2,138208076721105.9,235620965385139.28,2783951578428100.0,5.1783236760543544e+16
41.85861126931294,5529311057356264.0,6.240526981737351e+16,333745285017390.75,338972929360295.06,141360252153080.3,241091285095356.3,2848665340149020.0,5.297212366824206e+16
42.7957834946992,5535351239625071.0,6.369882349465128e+16,334109866126467.5,339343221115015.75,144572688147651.47,246670689388789.03,2914673286457385.5,5.418410250379097e+16
43.751699164593184,5541340909224399.0,6.501733734071984e+16,334471398326696.94,339710416204019.44,147846474679615.38,252361335897831.47,2982001164922952.0,5.541960564146422e+16
