t(s),Total solute volume 1,Total retention volume 1,Total 1 volume 1,Total 2 volume 1,Total 3 volume 1,Total 4 volume 1,Total 5 volume 1,Total 6 volume 1
0.1,1392571168361754.5,6037270240607699.0,1452613831222594.2,3192085241023349.0,0.0,0.0,0.0,-0.09582846306271511
0.202,2064900881423524.5,8952416694169066.0,2153932565554402.0,4733224751966097.0,87683425.75257316,479801092.96294725,25928923527.283073,331998816994.11816
0.30604000000000003,2584862056551815.5,1.1207244086239928e+16,2696312815316041.0,5925095726010384.0,221722623.7985115,1213534172.1109977,66659218330.693054,905393886562.0648
0.41216080000000005,3026189169500499.0,1.312137186295855e+16,3156668529366867.0,6936718934876979.0,393274186.0383372,2152666890.778536,119074660254.00154,1673608612870.576
0.5204040160000001,3418653017675526.0,1.4823842574847758e+16,3566054144991268.5,7836336191475820.0,598331425.1162235,3275249251.277249,181861982398.0955,2613485142069.773
0.6308120963200001,3777383184872500.0,1.638023490685766e+16,3940251589671112.0,8658628056455488.0,834738156.6419619,4569471574.471823,254331768700.56628,3712339880129.134
0.7434283382464002,4111243326171257.0,1.7828968109929278e+16,4288506692294432.0,9423912090238848.0,1101260337.2173915,6028575326.561326,336092447051.51135,4962778942018.011
0.8582969050113283,4425935777508061.0,1.919475923356237e+16,4616767655741999.0,1.0145259367526862e+16,1397201592.8661718,7648746638.046034,426923141518.08295,6360463695702.596
0.9754628431115548,4725378452215853.0,2.0494591299392104e+16,4929121321388340.0,1.0831650650537064e+16,1722213217.4926136,9428075550.437635,526712420063.52075,7903012542030.269
1.094972099973786,5012397565902290.0,2.1740715868300856e+16,5228515762251638.0,1.148956427698951e+16,2076188769.4844847,11365978729.663195,635424730494.2881,9589396259433.33
1.2168715419732616,5289109807044222.0,2.294230950102594e+16,5517158931632524.0,1.2123852184252932e+16,2459200666.0994735,13462852223.936663,753080350781.5286,11419575692588.883
1.3412089728127268,5557148496252601.0,2.4106453993603748e+16,5796754573671762.0,1.27382583189248e+16,2871459700.4552107,15719849768.460594,879742644765.0962,13394270800355.002
1.4680331522689813,5817805010516349.0,2.523874933793092e+16,6068649745367240.0,1.3335742813966052e+16,3313287999.0018897,18138734698.60736,1015509574905.1823,15514806483670.863
1.597393815314361,6072121246829866.0,2.634371447118705e+16,6333931266942643.0,1.391869393671726e+16,3785100315.7217474,20721777518.084965,1160507844246.6384,17783005975211.49
1.729341691620648,6320952336217730.0,2.7425059082936772e+16,6593491139902490.0,1.4489071843924048e+16,4287390738.0578794,23471683102.69329,1314888739752.2163,20201115078913.67
1.863928525453061,6565010510875336.0,2.8485873736367064e+16,6848072305584400.0,1.5048509135341348e+16,4820723040.808325,26391537880.44855,1478825119740.1057,22771747185307.777
2.001207095962122,6804896603816195.0,2.9528766387386364e+16,7098301502970627.0,1.5598383058183876e+16,5385723578.753954,29484770913.59281,1652509196019.0107,25497842725165.043
2.1412312378813647,7041123184951935.0,3.055596265563817e+16,7344713402321667.0,1.6139868540349248e+16,5983075995.298907,32755124924.754265,1836150883602.1326,28382638930813.78
2.284055862638992,7274131892121165.0,3.156938093655841e+16,7587768683463556.0,1.6673977917125038e+16,6613517261.808362,36206634609.65394,2029976565776.636,31429647131020.105
2.4297369798917723,7504306640206256.0,3.257068964945108e+16,7827867814439079.0,1.7201591209522926e+16,7277834713.159228,39843610404.74109,2234228169777.533,34642635667935.117
2.578331719489608,7731983844187873.0,3.3561351544465108e+16,8065361715347615.0,1.7723479557870696e+16,7976863843.6953945,43670626418.50194,2449162479312.854,38025617089349.83
2.7298983538794,7957460440118477.0,3.454265846628073e+16,8300560125157041.0,1.8240323607727224e+16,8711486694.013735,47692511597.89216,2675050630960.811,41582838648732.945
2.884496320956988,8181000256093649.0,3.551575896721313e+16,8533738247370732.0,1.8752728113612956e+16,9482630704.48743,51914343450.387695,2912177755704.77,45318775405937.086
3.0421862473761276,8402839129047397.0,3.648168048522277e+16,8765142087442584.0,1.9261233667880376e+16,10291267943.299355,56341443816.64905,3160842736841.498,49238125403858.49
3.2030299723236504,8623189055804789.0,3.744134733687454e+16,8994992782809539.0,1.976632621588029e+16,11138414639.496468,60979376313.298065,3421358062604.581,53345806526384.07
3.3670905717701234,8842241591679062.0,3.839559544960118e+16,9223490148025178.0,2.0268444846326656e+16,12025130968.066666,65833945155.61115,3694049756994.671,57646954737174.23
3.5344323832055258,9060170656454664.0,3.934518452599734e+16,9450815601727724.0,2.0767988223254556e+16,12952521046.181368,70911195136.41393,3979257376096.422,62146923468092.2
3.7051210308696363,9277134869019140.0,4.0290808165668136e+16,9677134601933550.0,2.1265319937532068e+16,13921733108.806871,76217412587.06961,4277334059987.1685,66851283977682.98
3.879223451487029,9493279503676000.0,4.123310234781317e+16,9902598686700024.0,2.1760772991178668e+16,14933959838.73444,81759127183.94957,4588646632475.843,71765826539012.95
4.0568079205167695,9708738140255398.0,4.2172652587078584e+16,1.0127347195383578e+16,2.225465357979786e+16,15990438831.312822,87543114492.42758,4913575742540.672,76896562345856.17
4.237944078927105,9923634064462640.0,4.311000000727024e+16,1.0351508729366568e+16,2.2747244302497e+16,17092453178.21126,93576399162.58539,5252516042593.075,82249726049081.28
4.422702960505647,1.0138081463027806e+16,4.40456465260542e+16,1.057520239873806e+16,2.3238806901444908e+16,18241332157.696957,99866258708.10185,5605876399677.104,87831778852898.81
4.61115701971576,1.0352186449134696e+16,4.498005930439144e+16,1.0798538891935766e+16,2.3729584612390052e+16,19438452021.39829,106420227813.40816,5974080136487.34,93649412114608.98
4.803380160110075,1.056604794659077e+16,4.591367458405273e+16,1.102162139803857e+16,2.4219804191381136e+16,20685236869.501423,113246103125.02473,6357565299702.32,99709551402575.06
4.9994477633122765,1.077975845573593e+16,4.684690101287816e+16,1.1244546405698894e+16,2.4709677670405636e+16,21983159607.91249,120351948491.66193,6756784953623.316,106019360976003.53
5.199436718578522,1.0993404719797948e+16,4.7780122538854904e+16,1.146740439822907e+16,2.5199403884829556e+16,23333742982.199013,127746100624.6854,7172207497505.955,112586248657243.89
5.403425452950093,1.1207068307009152e+16,4.871370093938243e+16,1.1690280460817012e+16,2.568916980774208e+16,24738560684.1664,135437175156.25964,7604317005295.936,119417871073115.3
5.611493962009095,1.1420826121095036e+16,4.964797804037831e+16,1.1913254813025552e+16,2.6179151720112876e+16,26199238527.782413,143434073077.1672,8053613586746.336,126522139246496.9
5.823723841249277,1.1634750850578116e+16,5.058327767048197e+16,1.2136403277468684e+16,2.666951624069948e+16,27717455691.87045,151745987540.18155,8520613769113.13,133907224523325.55
6.040198318074262,1.1848911365589934e+16,5.151990738803355e+16,1.23597976937329e+16,2.716042123563155e+16,29294946027.581806,160382411018.09976,9005850898808.973,141581564823378.5
6.261002284435747,1.2063373069464346e+16,5.2458160012348136e+16,1.2583506285129946e+16,2.7652016624343116e+16,30933499429.15282,169353142808.25134,9509875562548.48,149553871205919.62
6.486222330124463,1.2278198211225104e+16,5.3398314985780616e+16,1.2807593984657946e+16,2.8144445095866124e+16,32634963266.87041,178668296877.59036,10033256027647.986,157833134743572.9
6.715946776726952,1.2493446164129484e+16,5.4340639588955224e+16,1.303212272555486e+16,2.8637842747315984e+16,34401243881.52631,188338310044.43076,10576578701253.324,166428633699705.6
6.950265712261491,1.2709173674644284e+16,5.528539002812892e+16,1.3257151701009492e+16,2.9132339654601852e+16,36234308139.94613,198373950494.55075,11140448608363.492,175349941006259.53
7.18927102650672,1.2925435085580218e+16,5.623281241083953e+16,1.348273759691678e+16,2.9628060383901804e+16,38136185051.44253,208786326630.85284,11725489888600.156,184606932040376.75
7.433056447036854,1.3142282536568652e+16,5.718314362364353e+16,1.3708934800998456e+16,3.0125124451201584e+16,40108967445.273926,219586896257.0111,12332346311744.24,194209792699404.0
7.681717575977592,1.3359766144612002e+16,5.813661212378424e+16,1.393579559113808e+16,3.0623646736157348e+16,42154813709.389656,230787476096.65485,12961681812122.871,204169027774915.47
7.935351927497144,1.3577934167058376e+16,5.909343865498257e+16,1.4163370305382624e+16,3.1123737855670972e+16,44275949590.92405,242400251650.60916,13614181041986.04,214495469627357.56
8.194058966047088,1.379683314903046e+16,6.005383689615476e+16,1.439170749572816e+16,3.1625504501830932e+16,46474670059.05933,254437787395.59592,14290549944060.65,225200287163728.06
8.45794014536803,1.401650805706746e+16,6.101801405068523e+16,1.462085406752387e+16,3.2129049748250356e+16,48753341231.02193,266913037328.5721,14991516343515.059,236294995121475.78
8.72709894827539,1.4237002400508444e+16,6.198617138288311e+16,1.4850855406089062e+16,3.263447332830531e+16,51114402362.1065,279839355861.6067,15717830559606.422,247791463662454.12
9.0016409272409,1.4458358341948768e+16,6.295850470740288e+16,1.5081755491932134e+16,3.3141871888326324e+16,53560367900.74115,293230509072.84247,16470266037320.55,259701928281395.3
9.281673745785717,1.4680616797933638e+16,6.393520483667958e+16,1.5313597005785732e+16,3.3651339218411016e+16,56093829609.71686,307100686319.68915,17249619999347.328,272039000033909.4
9.567307220701432,1.4903817530908894e+16,6.491645799080699e+16,1.5546421424522092e+16,3.4162966463196696e+16,58717458754.806274,321464512220.9574,18056714118766.773,284815676089545.7
9.85865336511546,1.5127999233324848e+16,6.590244617374948e+16,1.5780269108883256e+16,3.467684231464525e+16,61434008362.09192,336337059015.15967,18892395212849.336,298045350615922.3
10.155826432417769,1.5353199604682528e+16,6.689334751931648e+16,1.6015179383849212e+16,3.5193053188651096e+16,64246315545.41493,351733859302.6988,19757535958402.465,311741826000380.0
10.458942961066125,1.557945542221883e+16,6.788933660992532e+16,1.625119061237075e+16,3.5711683387067532e+16,67157303905.439064,367670919180.1405,20653035629122.074,325919324416044.7
10.768121820287448,1.5806802605846802e+16,6.88905847708346e+16,1.6488340263109872e+16,3.623281524656503e+16,70169986001.90953,384164731775.1919,21579820855430.95,340592499739583.25
11.083484256693197,1.603527627789797e+16,6.989726034222266e+16,1.6726664972757906e+16,3.675652927557407e+16,73287465900.76065,401232291191.47546,22538846407313.074,355776449828315.94
11.405153941827061,1.6264910818151718e+16,7.090952893122856e+16,1.69662006034376e+16,3.728290428042519e+16,76512941797.80734,418891106872.56494,23531096000673.664,371486729164728.9
11.733257020663602,1.6495739914584666e+16,7.1927553645835336e+16,1.7206982295640644e+16,3.781201748167827e+16,79849708720.82568,437159218395.18396,24557583127779.234,387739361876786.1
12.067922161076874,1.672779661022523e+16,7.295149531227867e+16,1.744904451710248e+16,3.834394462152379e+16,83301161311.90248,456055210701.85596,25619351912353.22,404550855142775.56
12.409280604298411,1.6961113346458482e+16,7.39815126774866e+16,1.7692421107974256e+16,3.887876006304776e+16,86870796692.00487,475598229783.6809,26717477989925.79,421938212989790.44
12.75746621638438,1.719572200308958e+16,7.501776259789466e+16,1.793714532261377e+16,3.941653688206576e+16,90562217409.7897,495807998824.3079,27853069414056.277,439918950495254.0
13.112615540712067,1.7431653935442928e+16,7.606040021585016e+16,1.818324986828413e+16,3.995734695216349e+16,94379134476.745,516704834816.5451,29027267589069.996,458511108401248.4
13.474867851526309,1.7668940008745428e+16,7.710957912469277e+16,1.8430766941019456e+16,4.050126102351012e+16,98325370490.82326,538309665663.4355,30241248229971.45,477733268151717.06
13.844365208556836,1.7907610630017636e+16,7.816545152349374e+16,1.867972825889126e+16,4.104834879596102e+16,102404862850.79298,560644047775.9929,31496222350215.918,497604567362943.8
14.221252512727972,1.8147695777674756e+16,7.922816836233718e+16,1.893016509288556e+16,4.1598678986909624e+16,106621667063.61043,583730184180.1936,32793437278045.824,518144715738030.06
14.605677562982532,1.838922502901907e+16,8.029787947894786e+16,1.9182108295580824e+16,4.21523193943061e+16,110979960147.17372,607590943146.1577,34134177702115.55,539374011436420.9
14.997791114242183,1.8632227585788556e+16,8.137473372738606e+16,1.943558832779796e+16,4.2709336955221224e+16,115484044130.8991,632249877352.874,35519766747152.35,561313357909827.4
15.397746936527026,1.8876732297910284e+16,8.245887909947277e+16,1.9690635283378224e+16,4.326979780029431e+16,120138349656.6212,657731243602.1781,36951567080420.5,583984281216252.4
15.805701875257567,1.9122767685594036e+16,8.355046283953638e+16,1.994727891222903e+16,4.383376730437667e+16,124947439682.39455,684060023096.07,38430982049778.95,607408947824113.9
16.221815912762718,1.93703619598877e+16,8.464963155303162e+16,2.0205548641765988e+16,4.440131013364945e+16,129916013291.84132,711261942291.8749,39959456854142.52,631610182918802.8
16.64625223101797,1.961954304180632e+16,8.575653130952042e+16,2.0465473596866524e+16,4.497249028947208e+16,135048909611.76173,739363494350.104,41538479747179.695,656611489224343.2
17.079177275638333,1.9870338580135784e+16,8.687130774047027e+16,2.072708261844132e+16,4.554737114919189e+16,140351111840.79453,768391961190.2766,43169583275101.48,682437066353122.2
17.5207608211511,2.0122775968002876e+16,8.799410613228222e+16,2.0990404280718596e+16,4.61260155041267e+16,145827751391.9885,798375436170.3839,44854345549417.48,709111830697025.2
17.97117603757412,2.0376882358295784e+16,8.91250715149269e+16,2.125546690732975e+16,4.670848559491262e+16,151484112152.22083,829342847406.0208,46594391555559.56,736661435873630.8
18.430599558325603,2.063268467801191e+16,9.02643487465352e+16,2.1522298586275816e+16,4.729484314439127e+16,157325634861.46283,861323981745.6923,48391394498293.0,765112293741428.0
18.899211549492115,2.089020964160209e+16,9.141208259426258e+16,2.1790927183846824e+16,4.788514938819927e+16,163357921614.98624,894349509419.125,50247077184861.37,794491595998414.9
19.37719578048196,2.114948376337603e+16,9.256841781171702e+16,2.20613803575622e+16,4.847946510320344e+16,169586740491.65692,928451009375.9109,52163213446832.05,824827336378736.0
19.864739696091597,2.1410533369026388e+16,9.373349921322456e+16,2.2333685568191856e+16,4.907785063391676e+16,176018030311.55905,963660995332.1603,54141629601632.69,856148333462365.6
20.36203449001343,2.1673384606325896e+16,9.490747174517488e+16,2.2607870090914252e+16,4.968036591701869e+16,182657905526.25348,1000012942543.3258,56184205954796.14,888484254113231.0
20.869275179813698,2.193806345504552e+16,9.609048055468034e+16,2.2883961025662652e+16,5.028707050408999e+16,189512661245.07404,1037541315321.7256,58292878343949.46,921865637561475.2
21.38666068340997,2.220459573613935e+16,9.728267105575707e+16,2.3161985306705612e+16,5.089802358266672e+16,196588778400.91382,1076281595317.7926,60469639725612.56,956323920145948.6
21.91439389707817,2.2473007120237108e+16,9.84841889932278e+16,2.344196971150571e+16,5.151328399570614e+16,203892929059.0685,1116270310584.4778,62716541805893.35,991891460733385.0
22.452681775019734,2.2743323135481384e+16,9.969518050452352e+16,2.3723940868894948e+16,5.213291025955267e+16,211431981872.75714,1157545065444.6763,65035696716191.93,1028601566831039.5
23.00173541052013,2.301556917474551e+16,1.0091579217955496e+17,2.4007925266603656e+16,5.27569605804818e+16,219213007689.04303,1200144571182.0212,67429278735052.26,1066488521409994.0
23.561770118730532,2.328977050226257e+16,1.0214617111881134e+17,2.429394925817539e+16,5.338549286989647e+16,227243285308.94366,1244108677575.842,69899526057324.16,1105587610456667.6
24.133005521105144,2.356595225969575e+16,1.0338646498982994e+17,2.458203906929873e+16,5.401856475824054e+16,235530307405.61932,1289478405301.5432,72448742611824.72,1145935151270470.0
24.715665631527248,2.384413947167619e+16,1.0463682208217467e+17,2.4872220803584556e+16,5.465623360769344e+16,244081786604.60193,1336295979218.067,75079299928715.47,1187568521525888.8
25.309978944157795,2.4124357050833676e+16,1.058973913610483e+17,2.516452044781299e+16,5.529855652370173e+16,252905661730.12262,1384604862564.7297,77793639057834.66,1230526189117726.2
25.91617852304095,2.4406629802342012e+16,1.071683225196586e+17,2.5458963876674988e+16,5.59455903653976e+16,262010104221.6695,1434449792089.9949,80594272539255.02,1274847742808554.8
26.53450209350177,2.4690982428000616e+16,1.0844976603045002e+17,2.5755576857029984e+16,5.6597391754955384e+16,271403524725.01773,1485876814135.4055,83483786427361.83,1320573923697856.5
27.165192135371807,2.4977439529871216e+16,1.0974187319530227e+17,2.605438505169937e+16,5.725401708592754e+16,281094579862.0361,1538933321698.2803,86464842369772.06,1367746657532750.5
27.808495978079243,2.5266025613486996e+16,1.1104479619479616e+17,2.635541402281404e+16,5.791552253060055e+16,291092179183.6845,1593668092497.2966,89540179742446.08,1416409087880533.0
28.464665897640828,2.555676509065098e+16,1.1235868813664002e+17,2.6658689234733176e+16,5.858196404640955e+16,301405492310.6969,1650131328065.612,92712617842368.84,1466605610183728.2
29.133959215593645,2.5849682281837544e+16,1.1368370310333862e+17,2.696423605654968e+16,5.925339738144336e+16,312043956266.5445,1708374693896.6013,95985058139205.42,1518381906718719.8
29.816638399905518,2.6144801418211596e+16,1.1501999619919088e+17,2.727207976419622e+16,5.992987807907255e+16,323017283007.3462,1768451360667.8787,99360486587365.42,1571784982479429.5
30.51297116790363,2.6442146643277376e+16,1.1636772359669315e+17,2.758224554216493e+16,6.061146148172929e+16,334335467153.52106,1830416046569.7258,102841975999938.03,1626863202007967.5
31.223230591261704,2.6741742014168252e+16,1.1772704258242008e+17,2.789475848485337e+16,6.129820273386324e+16,346008793928.02625,1894325060764.538,106432688485985.95,1683666327194543.2
31.947695203086937,2.7043611502588324e+16,1.1909811160245259e+17,2.8209643597546108e+16,6.199015678410078e+16,358047847306.1626,1960236348004.5059,110135877952721.8,1742245556069315.0
32.686649107148675,2.734777899541534e+16,1.2048109030742174e+17,2.852692579704397e+16,6.268737838662598e+16,370463518381.9876,2028209534435.1611,113954892674110.34,1802653562609430.5
33.44038208929165,2.7654268294973216e+16,1.2187613959722829e+17,2.884662991194829e+16,6.338992210180601e+16,383267013956.4947,2098305974613.0017,117893177927478.02,1864944537584667.0
34.20918973107749,2.7963103118982772e+16,1.2328342166550106e+17,2.9168780682609404e+16,6.409784229607829e+16,396469865352.7982,2170588799765.8865,121954278699730.86,1929174230465790.0
34.993373525699035,2.8274307100197504e+16,1.2470310004384906e+17,2.949340276074694e+16,6.481119314111517e+16,410083937463.6668,2245122967325.4966,126141842464821.89,1995399992419911.2
35.793240996213015,2.8587903785731436e+16,1.2613533964596475e+17,2.9820520708748372e+16,6.553002861228333e+16,424121438036.85034,2321975311761.5356,130459622034129.0,2063680820417746.5
36.60910581613728,2.890391663608435e+16,1.2758030681162987e+17,3.015015899865244e+16,6.62544024864096e+16,438594927203.7125,2401214596748.063,134911478481437.88,2134077402478004.0
37.44128793246003,2.922236902387076e+16,1.2903816935067562e+17,3.0482342010823348e+16,6.698436833886677e+16,453517327256.81604,2482911568692.6387,139501384144254.61,2206652164074510.8
38.29011369110923,2.9543284232256304e+16,1.3050909658694637e+17,3.081709403231952e+16,6.771997953999093e+16,468901932682.173,2567139011659.7373,144233425703200.7,2281469315732263.0
39.15591596493141,2.9866685453107404e+16,1.3199325940231374e+17,3.1154439254963756e+16,6.846128925083831e+16,484762420451.9879,2653971803720.2505,149111807341270.62,2358594901838828.0
