t(s),Total solute volume 1,Total retention volume 1,Total 1 volume 1,Total 2 volume 1,Total 3 volume 1,Total 4 volume 1,Total 5 volume 1,Total 6 volume 1
0.1,803801399340899.0,888695292650996.4,42833262785020.44,42060630525076.21,0.0,0.0,0.0,0.0
0.202,1211142583128884.2,1339234299432343.0,64539808744894.03,63375630967625.08,533698431.6123105,848428908.9771949,9261862308.799442,165632601289.20645
0.30604000000000003,1521259179812794.2,1682374985015863.2,81065415330312.88,79603146448030.42,1354076893.9692767,2152598551.6648145,23498829126.89276,420237920149.9804
0.41216080000000005,1783503104124549.8,1972663074641051.5,95039965444806.5,93325621749594.66,2405075209.5608983,3823389606.7256613,41738022636.77177,746416834646.8015
0.5204040160000001,2016337246223560.8,2230503202218132.2,107447316331767.73,105509167172111.55,3661795320.499264,5821221647.304561,63547362366.24729,1136442111359.648
0.6308120963200001,2228958532049733.8,2466059214086973.0,118777557143635.81,116635031575272.42,5110862512.923339,8124833078.502524,88694746035.08878,1586162876705.7473
0.7434283382464002,2426711774920943.5,2685237886692166.0,129315504246723.61,126982893769883.88,6744610723.303438,10722037439.559813,117047140261.87779,2093199966191.6196
0.8582969050113283,2613020651037090.5,2891823054008046.5,139243599750124.03,136731904949897.38,8558693681.676246,13605925808.012224,148529124001.9034,2656204527448.0234
0.9754628431115548,2790231052378983.0,3088407642813613.0,148686852403388.88,146004818940295.44,10550907887.129694,16772995670.227852,183102462326.5307,3274492725064.235
1.094972099973786,2960031987212577.0,3276858811500611.5,157735266696501.34,154890016717995.97,12720540720.053473,20222114608.891735,220754793503.03247,3947843424706.1
1.2168715419732616,3123686637584811.5,3458573281423225.0,166456155536197.94,163453596990486.25,15067978670.098373,23953897499.860275,261492830157.50223,4676376605392.636
1.3412089728127268,3282168632008183.0,3634627919513819.0,174901401994609.25,171746506956067.88,17594457325.431885,27970309068.80665,305338020581.5204,5460475767980.208
1.4680331522689813,3436247052081504.0,3805873667768763.5,183111989173145.84,179808990457458.97,20301894393.67246,32274398444.425053,352323650981.06555,6300736112838.985
1.597393815314361,3586541906691105.0,3972996838230001.5,191120956332014.94,187673490788247.7,23192774182.342293,36870115517.535706,402492840760.5339,7197928688170.51
1.729341691620648,3733561702757789.5,4136560624655829.0,198955400973919.03,195366616662737.3,26270065461.00034,41762180367.527374,455897117116.9732,8152974898440.169
1.863928525453061,3877729694221758.5,4297034104103908.5,206637877609563.38,202910515750333.47,29537161811.605686,46955988438.697174,512595379898.445,9166927992105.44
2.001207095962122,4019402711331754.5,4454813041531137.5,214187401141151.53,210323859963007.72,32997837618.834248,52457540637.04874,572653148703.9292,10240960568259.695
2.1412312378813647,4158884984035262.0,4610235157584706.0,221620183482347.66,217622568775280.12,36656215246.31326,58273390923.110275,636141950043.9938,11376349735614.836
2.284055862638992,4296438480559093.5,4763591558034144.0,228950184493354.25,224820350240873.4,40516740391.34305,64410607478.753075,703138954466.9069,12574476438492.58
2.4297369798917723,4432290791261363.0,4915135439450762.0,236189532092378.34,231929113512968.1,44584163572.97919,70876743052.31612,773726612162.3743,13836815065259.504
2.578331719489608,4566641222745829.0,5065088823560549.0,243348847002584.25,238959287736691.94,48863526286.1152,77679813007.35635,847992423496.9497,15164930312641.572
2.7298983538794,4699665577884097.0,5213647838735307.0,250437497471664.06,245920072174018.94,53360150781.060005,84828279077.84769,926028761679.595,16560474013992.994
2.884496320956988,4831519950940610.0,5360986913510687.0,257463801507848.72,252819634791827.88,58079632702.41153,92331037668.97388,1007932745049.3365,18025182854955.406
3.0421862473761276,4962343774432938.0,5507262143567303.0,264435189242106.06,259665271695380.75,63027836018.3078,100197411799.10661,1093806149112.0679,19560876799952.363
3.2030299723236504,5092262290057915.0,5652614022565645.0,271358334599766.53,266463536424843.22,68210889811.24184,108437146001.28008,1183755350884.8303,21169458096436.402
3.3670905717701234,5221388571051447.0,5797169677545261.0,278239263068762.44,273220345779582.88,73635186603.20485,117060403663.97232,1277891299868.9114,22852910755330.195
3.5344323832055258,5349825191389165.0,5941044714289392.0,285083440648605.06,279941067162677.12,79307381962.69592,126077766409.84656,1376329511270.5415,24613300429311.215
3.7051210308696363,5477665614178013.0,6084344752581346.0,291895847835510.44,286630591231476.94,85234395196.90422,135500235199.79109,1479190078055.8262,26452774627894.863
3.879223451487029,5604995354725017.0,6227166712647501.0,298681041600417.6,293293392757668.75,91423410974.50484,145339232916.5437,1586597699157.8987,28373563221349.746
4.0568079205167695,5731892961279590.0,6369599900284654.0,305443207651160.9,299933581946722.56,97881881756.69472,155606608233.39407,1698681721712.6016,30377979195466.66
4.237944078927105,5858430847089107.0,6511726927831526.0,312186204771338.56,306554947976979.3,104617530938.95927,166314640612.9419,1815576195630.7131,32468419626919.07
4.422702960505647,5984676000321104.0,6653624500316946.0,318913602650913.4,313160996147851.56,111638356625.4419,177476046311.73547,1937419939151.0017,34647366854970.164
4.61115701971576,6110690592986101.0,6795364090129413.0,325628714334711.8,319754979743017.75,118952635973.05112,189103985290.86078,2064356614283.2383,36917389830015.26
4.803380160110075,6236532505811449.0,6937012518932589.0,332334624192091.6,326339927495566.8,126568930054.55894,201212068951.81213,2196534811260.6423,39281145623212.49
4.9994477633122765,6362255782759293.0,7078632461951977.0,339034212137465.8,332918667371628.94,134496089199.6368,213814368632.4102,2334108141289.5166,41741381084460.41
5.199436718578522,6487911026325670.0,7220282886935078.0,345730174695145.06,339493847255242.0,142743258780.608,226925424809.95294,2477235337019.671,44300934638414.87
5.403425452950093,6613545742734784.0,7362019437853220.0,352425043394171.94,346067953011389.8,151319885416.05185,240560256968.91034,2626080360269.4956,46962738210205.76
5.611493962009095,6739204644533309.0,7503894771634714.0,359121200893077.6,352643324319888.4,160235723570.59595,254734374098.7491,2780812516630.091,49729819274135.055
5.823723841249277,6864929916797448.0,7645958854793277.0,365820895165628.0,359222168605248.6,169500842533.5372,269463785794.28525,2941606576647.151,52605303019966.43
6.040198318074262,6990761452124139.0,7788259225663902.0,372526252023113.0,365806573333092.5,179125633762.47314,284765013936.63306,3108642903341.1787,55592414632520.695
6.261002284435747,7116737058732072.0,7930841227025864.0,379239286203711.75,372398516899478.7,189120818581.11203,300655104937.53564,3282107585878.108,58694481681217.5
6.486222330124463,7242892645307635.0,8073748213128620.0,385961911222633.8,378999878303372.8,199497456222.9219,317151642533.844,3462192579245.836,61914936616972.25
6.715946776726952,7369262385665212.0,8217021734512316.0,392695948146592.0,385612445762839.94,210266952214.3891,334272761122.2444,3649095849828.8594,65257319374522.055
6.950265712261491,7495878865823153.0,8360701703497845.0,399443133431246.1,392237924411123.56,221441067093.4545,352037159627.23883,3843021526804.188,68725280078801.85
7.18927102650672,7622773215710685.0,8504826542793933.0,406205125939646.75,398877943188475.4,233031925460.23395,370464115897.75964,4044180059308.7104,72322581854477.16
7.433056447036854,7749975227397883.0,8649433319313692.0,412983513242516.1,405534061028805.44,245052025358.45404,389573501629.9769,4252788379350.8438,76053103738145.7
7.681717575977592,7877513461471926.0,8794557864994170.0,419779817286862.06,412207772426035.25,257514247987.1769,409385797815.6241,4469070070459.502,79920843693079.12
7.935351927497144,8005415342956126.0,8940234886163999.0,426595499507358.1,418900512453284.9,270431867743.39105,429922110716.7904,4693255542080.53,83929921726684.47
8.194058966047088,8133707247978392.0,9086498062792968.0,433431965444748.75,425613661297964.1,283818562596.9203,451204188369.51794,4925582209746.253,88084583111139.61
8.45794014536803,8262414582233312.0,9233380138779168.0,440290568926975.4,432348548367487.3,297688424799.8816,473254437619.7468,5166294681056.817,92389201707891.84
8.72709894827539,8391561852145983.0,9380913004278476.0,447172615861378.1,439106456013059.6,312055971933.5859,496095941696.28564,5415644947524.388,96848283396927.88
9.0016409272409,8521172729528407.0,9529127770952392.0,454079367680131.75,445888622912973.5,326936158296.4331,519752478326.41644,5673892582341.437,101466469611909.11
9.281673745785717,8651270110419967.0,9678054840898890.0,461012044475750.06,452696247151552.06,342344386636.83685,544248538400.6512,5941304944144.365,106248540982440.0
9.567307220701432,8781876168717208.0,9827723969938780.0,467971827858942.06,459530489025449.1,358296520235.7843,569609345193.9196,6218157386851.916,111199421084884.52
9.85865336511546,8913012405125322.0,9978164325846060.0,474959863567144.44,466392473605137.94,374808895344.0247,595860874151.2109,6504733475665.786,116324180303297.17
10.155826432417769,9044699691899432.0,1.0129404542042954e+16,481977263848720.2,473283293076095.3,391898333979.32025,623029873246.319,6801325209328.385,121628039802152.61
10.458942961066125,9176958313789516.0,1.0281472767218092e+16,489025109644841.94,480204008881332.5,409582157089.57837,651143883922.9764,7108233248738.496,127116375612675.48
10.768121820287448,9309808005554566.0,1.0434396711274956e+16,496104452588562.9,487155653684403.94,427878198088.0089,680231262628.1765,7425767152032.409,132794722834690.73
11.083484256693197,9443267986370330.0,1.0588203687970494e+16,503216316838347.94,494139233169867.3,446804816766.77637,710321202948.0477,7754245616243.134,138668779956000.5
11.405153941827061,9577356991418930.0,1.0742920654565634e+16,510361700761428.9,501155727696272.2,466380913595.95166,741443758357.0497,8093996725655.988,144744413291394.7
11.733257020663602,9712093300916554.0,1.0898574248772816e+16,517541578480650.3,508206093815105.7,486625944414.7795,773629865591.7979,8445358206983.272,151027661543492.72
12.067922161076874,9847494766808484.0,1.105519082325651e+16,524756901297000.3,515291265667661.25,507559935522.62396,806911368661.1661,8808677691485.826,157524740487683.75
12.409280604298411,9983578837335612.0,1.1212796477915218e+16,532008598998716.94,522412156270530.6,529203499177.11414,841321043504.7478,9184312984172.924,164242047783522.4
12.75746621638438,1.0120362579655468e+16,1.1371417090149538e+16,539297581066732.7,529569658699309.0,551577849507.329,876892623312.1129,9572632340216.85,171186167914998.22
13.112615540712067,1.0257862700682268e+16,1.1531078343300812e+16,546624737785199.7,536764647179082.1,574704818849.9985,913660824515.6805,9974014748721.377,178363877262175.9
13.474867851526309,1.0396095566292928e+16,1.1691805753426054e+16,553990941264949.0,543997978089430.94,598606874516.9802,951661373470.2966,10388850223988.027,185782149306754.84
13.844365208556836,1.0535077219031926e+16,1.1853624694558172e+16,561397046386958.8,551270490890875.7,623307136002.3912,990931033832.9763,10817540104426.02,193448159974164.66
14.221252512727972,1.0674823394434456e+16,1.2016560422587084e+16,568843891672181.2,558583008979012.3,648829392638.0381,1031507634656.5311,11260497359256.719,201369293114880.44
14.605677562982532,1.0815349536075378e+16,1.2180638097882604e+16,576332300083477.9,565936340471994.5,675198121705.8701,1073430099211.0825,11718146903164.846,209553146127661.7
14.997791114242183,1.0956670809441432e+16,1.2345882806770834e+16,583863079764850.4,573331278936408.8,702438507016.4124,1116738474547.738,12190925919052.379,218007535727510.1
15.397746936527026,1.1098802114714148e+16,1.2512319581962926e+16,591437024722621.5,580768604056185.5,730576457962.2584,1161473961818.8936,12679284189053.623,226740503861154.84
15.805701875257567,1.1241758098543068e+16,1.2679973422027878e+16,599054915452806.1,588249082248650.8,759638629055.7976,1207678947369.8809,13183684433971.115,235760323772930.9
16.221815912762718,1.1385553164880988e+16,1.2848869309990786e+16,606717519518506.4,595773467231496.1,789652439960.5161,1255397034616.848,13704602661296.162,245075506223937.75
16.64625223101797,1.1530201484945234e+16,1.301903223113217e+16,614425592080734.9,603342500544041.9,820646096025.2826,1304673076725.873,14242528521977.031,254694805867413.22
17.079177275638333,1.1675717006364238e+16,1.3190487190054646e+16,622179876385808.4,610956912025825.8,852648609331.0745,1355553210108.5334,14797965676101.0,264627227783261.0
17.5207608211511,1.1822113461560516e+16,1.3363259227079222e+16,629981104212084.5,618617420255289.6,885689820259.7097,1408084888749.0632,15371432167655.957,274882034174696.1
17.97117603757412,1.1969404375417912e+16,1.3537373434024866e+16,637829996278516.2,626324732950957.1,919800419594.0754,1462316919378.428,15963460808538.473,285468751229967.7
18.430599558325603,1.2117603072273904e+16,1.3712854969421262e+16,645727262617267.4,634079547337338.0,955011971159.3849,1518299497510.4563,16574599571974.236,296397176152115.4
18.899211549492115,1.226672268227337e+16,1.3889729073197646e+16,653673602912297.8,641882550477397.2,991356935014.8718,1576084244355.1326,17205411995514.92,307677384359689.1
19.37719578048196,1.2416776147115948e+16,1.4068021080885822e+16,661669706805633.0,649734419573300.4,1028868691205.2408,1635724244623.9448,17856477593775.12,319319736861318.0
19.864739696091597,1.2567776225223062e+16,1.4247756437369914e+16,669716254172693.2,657635822236781.1,1067581564080.9479,1697274085241.803,18528392281066.984,331334887806967.44
20.36203449001343,1.2719735496346834e+16,1.4428960710209932e+16,677813915367904.4,665587416730320.8,1107530847196.133,1760789894979.7288,19221768804088.36,343733792218609.75
20.869275179813698,1.2872666365637552e+16,1.4611659602560584e+16,685963351441455.9,673589852179991.4,1148752828792.6511,1826329385021.7725,19937237184810.844,356527713902943.75
21.38666068340997,1.302658106718221e+16,1.4795878965701322e+16,694165214327835.8,681643768760594.8,1191284817878.1858,1893951890478.9963,20675445173708.125,369728233548638.4
21.91439389707817,1.3181491667019564e+16,1.498164481118718e+16,702420147006536.8,689749797853466.2,1235165170905.7546,1963718412862.3225,21437058713454.113,383347257010400.8
22.452681775019734,1.3337410065634598e+16,1.5168983322624192e+16,710728783634943.5,697908562176967.9,1280433319061.2964,2035691663524.9304,22222762413206.008,397397023781904.5
23.00173541052013,1.349434799992634e+16,1.5357920867066248e+16,719091749653222.0,706120675889486.4,1327129796164.946,2109936108083.31,23033260033573.598,411890115659370.8
23.561770118730532,1.3652317044639766e+16,1.55484840060233e+16,727509661860606.9,714386744664336.0,1375296267190.6836,2186518011824.5286,23869274982356.188,426839465597236.9
24.133005521105144,1.3811328613244158e+16,1.5740699506063662e+16,735983128462220.4,722707365735745.1,1424975557407.615,2265505486105.0327,24731550821105.87,442258366756933.75
24.715665631527248,1.397139395823549e+16,1.5934594348985078e+16,744512749085173.0,731083127914659.1,1476211682144.6277,2346968535743.9785,25620851782549.336,458160481749333.5
25.309978944157795,1.4132524170831954e+16,1.6130195741521472e+16,753099114762352.5,739514611572816.5,1529049877178.4546,2430979107411.176,26537963298870.23,474559852070871.56
25.91617852304095,1.4294730180025804e+16,1.6327531124543078e+16,761742807881884.5,748002388593137.9,1583536629743.009,2517611139006.5874,27483692540817.703,491470907732698.5
26.53450209350177,1.4458022750947046e+16,1.6526628181700348e+16,770444402099942.8,756547022284090.1,1639719710155.6304,2606940610024.426,28458868967565.715,508908477081505.0
27.165192135371807,1.4622412482486998e+16,1.6727514847450438e+16,779204462214114.8,765149067255348.9,1697648204053.055,2699045592890.746,29464344887202.918,526887796809824.7
27.808495978079243,1.4787909804122506e+16,1.6930219314399138e+16,788023543994168.4,773809069251608.1,1757372545227.0554,2794006305258.805,30500996027679.01,545424522152680.44
28.464665897640828,1.4954524971874438e+16,1.7134770039878882e+16,796902193966679.1,782527564941101.0,1818944549046.337,2891905163240.72,31569722117977.27,564534737266429.9
29.133959215593645,1.5122268063326032e+16,1.7341195751676248e+16,805840949149577.1,791305081654930.9,1882417446447.4475,2992826835548.677,32671447479217.016,584234965784479.4
29.816638399905518,1.5291148971621628e+16,1.7549525452812604e+16,814840336732338.8,800142137073029.0,1947845918473.539,3096858298511.9146,33807121625320.867,604542181543314.2
30.51297116790363,1.546117739835743e+16,1.7759788425273676e+16,823900873697155.9,809039238852163.8,2015286131335.3003,3204088891928.984,34977719872803.117,625473819470865.2
31.223230591261704,1.5632362845272978e+16,1.7972014232574964e+16,833023066376187.8,817996884191170.9,2084795771963.5386,3314610375707.0693,36184243959153.555,647047786627782.5
31.947695203086937,1.5804714604644818e+16,1.8186232721043784e+16,842207409939641.2,827015559328273.6,2156434084017.8865,3428516987231.9277,37427722669200.62,669282473390599.9
32.686649107148675,1.5978241748280802e+16,1.8402474019691708e+16,851454387809310.2,836095738965196.2,2230261904310.2993,3545905499403.262,38709212468742.52,692196764763977.2
33.44038208929165,1.6152953115010714e+16,1.8620768538546324e+16,860764470991971.2,845237885612597.9,2306341699596.601,3666875279261.1597,40029798144634.42,715810051807515.8
34.20918973107749,1.632885729656734e+16,1.8841146965307436e+16,870138117326998.4,854442448851226.0,2384737603682.755,3791528347119.3047,41390593450413.15,740142243160651.9
34.993373525699035,1.6505962621750416e+16,1.906364026019079e+16,879575770642495.5,863709864503309.8,2465515454786.5835,3919969436110.8833,42792741756429.59,765213776647221.6
35.793240996213015,1.6684277138769996e+16,1.928827964882063e+16,889077859814396.9,873040553708604.0,2548742833088.676,4052306052042.18,44237416703345.89,791045630939171.8
36.60910581613728,1.686380859566587e+16,1.9515096613035164e+16,898644797723050.9,882434921899813.4,2634489098399.752,4188648533438.4663,45725822857736.65,817659337256861.8
37.44128793246003,1.7044564418707072e+16,1.9744122879470668e+16,908276980102172.8,891893357672289.8,2722825427864.7046,4329110111655.6797,47259196368412.31,845076991081212.4
38.29011369110923,1.7226551688679652e+16,1.9975390405795468e+16,917974784275243.2,901416231543243.1,2813824853616.578,4473806970920.209,48838805621964.56,873321263850821.8
39.15591596493141,1.7409777114982098e+16,2.0208931364472812e+16,927738567775114.1,911003894596229.0,2907562300286.91,4622858308148.464,50465951895911.7,902415414615016.0
40.03903428423004,1.7594247007456042e+16,2.0444778123940136e+16,937568666842898.6,920656677007126.8,3004114622271.8384,4776386392386.445,52141970007703.516,932383301611662.0
40.93981496991464,1.777996724589342e+16,2.0682963227103556e+16,947465394803064.2,930374886448539.1,3103560640646.7266,4934516623699.402,53868228957726.66,963249393736460.0
41.85861126931294,1.7966943247175532e+16,2.092351936706193e+16,957429040312325.1,940158806370275.4,3205981179615.598,5097377591330.683,55646132564340.92,995038781868467.8
42.7957834946992,1.8155179930014972e+16,2.116647935998697e+16,967459865480799.6,950008694154389.8,3311459102375.27,5265101130939.582,57477120088866.88,1027777190014615.2
43.751699164593184,1.8344681677289344e+16,2.1411876115107868e+16,977558103864828.8,959924779144222.9,3420079346268.3213,5437822380718.286,59362666848344.58,1061490986234173.0
44.72673314788505,1.8535452295975016e+16,2.165974260176433e+16,987723958331923.4,969907260547842.0,3531928957093.65,5615679836179.525,61304284813787.734,1096207193302448.9
45.721267810842754,1.872749497471e+16,2.1910111813515676e+16,997957598799345.8,979956305217422.8,3647097122438.31,5798815403398.556,63303523191573.38,1131953499071488.0
