t(s),Total solute volume 1,Total retention volume 1,Total 1 volume 1,Total 2 volume 1,Total 3 volume 1,Total 4 volume 1,Total 5 volume 1,Total 6 volume 1
0.1,821307387244814.4,914309965951331.9,46537842289353.97,46464736417161.86,0.0,0.0,0.0,0.0
0.202,1237585797801323.0,1377727948088443.8,70125477541010.055,70015318233778.24,3756817.53127875,6127043.632310579,69502479.43598321,1275125988.5542243
0.30604000000000003,1554586667306081.5,1730627202461065.2,88087737131925.36,87949361137696.34,9532346.822443541,15546431.938162837,176352017.87061915,3235454566.141808
0.41216080000000005,1822716353205439.2,2029121821166583.0,103280802780491.6,103118560183201.7,16932431.395794526,27615329.496713866,313256496.25125676,5747193190.06669
0.5204040160000001,2060833697484291.2,2294206106304317.5,116773275392329.97,116589837630730.23,25782199.021038618,42048534.80448367,476980699.5521991,8750985532.803871
0.6308120963200001,2278332908662117.5,2536338006798748.5,129097460170659.22,128894662493272.14,35987874.47870827,58693108.59502476,665789745.8667915,12215001972.202814
0.7434283382464002,2480673522892905.0,2761595262269348.0,140562711489942.06,140341903184732.9,47495865.769583456,77461646.9654699,878692160.5476109,16121052096.722034
0.8582969050113283,2671352820609269.0,2973871164626521.0,151367196185183.44,151129415242412.06,60275956.96013461,98304870.35713126,1115128936.1466022,20458879893.270367
0.9754628431115548,2852767270725172.0,3175833546850306.5,161646705671724.28,161392776768625.72,74313028.12513952,121198119.49692573,1374820347.7177117,25223353284.998955
1.094972099973786,3026642453052729.0,3369403386980597.5,171499016692494.9,171229610910030.25,89602470.33409366,146133877.63640818,1657681128.097293,30412907866.049145
1.2168715419732616,3194269063971195.5,3556017537422747.0,180997264136523.97,180712937668949.72,106147430.86834486,173117277.73907825,1963769503.2549288,36028611862.97424
1.3412089728127268,3356642104695506.0,3736783673877373.5,190197827881064.84,189899048356170.6,123957055.89875753,202163236.43964115,2293254681.093247,42073569658.64914
1.4680331522689813,3514547704959235.5,3912576950274341.0,199145252492714.03,198832417563765.94,143045317.40287137,233294540.8474003,2646395148.926873,48552523621.00537
1.597393815314361,3668619781982904.5,4084103073353653.0,207875457701561.16,207548908595951.0,163430202.18891966,266540525.9146426,3023523670.0908985,55471578839.326645
1.729341691620648,3819378413001550.0,4251941020184308.5,216417912708479.7,216077944360782.72,185133135.84198743,301936134.94272834,3425036626.707401,62838007598.55562
1.863928525453061,3967256644053434.5,4416572882555543.0,224797155254843.6,224444024053589.72,208178564.9567734,339521238.2399468,3851386290.8201103,70660107579.70235
2.001207095962122,4112619721661815.5,4578405276290167.0,233033881349701.12,232667811172303.88,232593649.48919907,379340131.3736971,4303075132.773542,78947097437.09108
2.1412312378813647,4255779206644313.0,4737785053198905.0,241145745003970.38,240766931999109.38,258408033.91728252,421441162.4542036,4780651689.128007,87709050621.41776
2.284055862638992,4397003539363739.5,4895011062574096.0,249147956883787.66,248756573298185.9,285653675.8019076,465876450.53383034,5284706985.546232,96956791285.17201
2.4297369798917723,4536526087257612.0,5050343110066454.0,257053740318987.38,256649937630981.44,314364718.1238478,512701680.3927659,5815872782.1900835,106701919703.5645
2.578331719489608,4674551370083694.0,5204008887749854.0,264874684037965.78,264458595521291.56,344577393.99686366,561975945.1416782,6374819406.56622,116956734153.94849
2.7298983538794,4811259941982127.0,5356209409008814.0,272621018802358.03,272192761659364.78,376329957.2883131,613761633.5677916,6962254570.964662,127734218800.6216
2.884496320956988,4946812267757197.0,5507123323742012.0,280301837049269.22,279861514199101.44,409662633.4177045,668124349.8917186,7578922462.212965,139048026994.84018
3.0421862473761276,5081351835035183.0,5656910382920329.0,287925269235861.25,287472970825621.8,444617586.39659333,725132860.0125009,8225603131.901914,150912470087.38004
3.2030299723236504,5215007678298486.0,5805714248428584.0,295498626859014.25,295034431550258.44,481238899.1003666,784859059.3327533,8903112131.406754,163342510732.30038
3.3670905717701234,5347896444873172.0,5953664792996539.0,303028519520629.44,302552495591967.06,519572564.4773952,847377958.4217061,9612300349.254356,176353759903.09042
3.5344323832055258,5480124100306332.0,6100879998688720.0,310520951559645.5,310033157857538.1,559666485.927262,912767683.6322051,10354054018.121935,189962477021.01532
3.7051210308696363,5611787347020910.0,6247467536206651.0,317981402437445.44,317481889200732.25,601570485.4724559,981109490.4282248,11129294866.018587,204185572728.72873
3.879223451487029,5742974812912248.0,6393526088084224.0,325414894087452.5,324903703666076.94,645336318.644648,1052487787.6632493,11938980391.688927,219040613942.96533
4.0568079205167695,5873768053796128.0,6539146464657578.0,332826047716973.06,332303215201477.3,691017695.23343,1126990171.4198816,12784104248.475286,234545830897.08908
4.237944078927105,6004242404061416.0,6684412551052797.0,340219132007827.5,339684685783128.06,738670305.2207273,1204707467.3068056,13665696724.116846,250720125943.76743
4.422702960505647,6134467702644041.0,6829402115378049.0,347598104252299.9,347052066486852.9,788351849.3608099,1285733780.332339,14584825306.494265,267583083934.45978
4.61115701971576,6264508915904394.0,6974187502146558.0,354966645647329.4,354409032726838.9,840122073.9736362,1370166551.6496098,15542595327.32327,285154984029.0187
4.803380160110075,6394426674717975.0,7118836230199688.0,362328191727732.6,361759014641061.9,894042809.6049874,1458106621.6080952,16540150677.384981,303456812817.74994
4.9994477633122765,6524277739762608.0,7263411510697526.0,369685958730838.3,369105223414499.1,950178013.2755113,1549658298.6583984,17578674588.152985,322510278661.6259
5.199436718578522,6654115406375175.0,7407972697836538.0,377042966536925.94,376450674183538.4,1008593814.0963507,1644929433.7476604,18659390475.703835,342337827175.20734
5.403425452950093,6783989858285382.0,7552575682657128.0,384402058712898.06,383798206048152.8,1069358562.0743564,1744031499.9168942,19783562843.63597,362962657792.16156
5.611493962009095,6913948477890389.0,7697273238471363.0,391765920093402.3,391150499625416.6,1132542879.966997,1847079676.872126,20952498242.409912,384408741365.924
5.823723841249277,7044036119414975.0,7842115324974904.0,399137092258938.6,398510092503291.1,1198219718.0778859,1954192940.351487,22167546283.09051,406700838768.46716
6.040198318074262,7174295350238406.0,7987149356921798.0,406517987210197.0,405879392893481.25,1266464411.9094758,2065494156.152037,23430100703.94918,429864520458.85156
6.261002284435747,7304766664805448.0,8132420442280054.0,413910899488926.44,413260691733267.25,1337354742.6110582,2181110178.7155895,24741600488.779293,453926187000.5701
6.486222330124463,7435488674834533.0,8277971594001086.0,421318016955712.8,420656173446350.44,1410971000.1783838,2301171954.2021465,26103531036.119225,478913090512.8432
6.715946776726952,7566498278957111.0,8423843918892562.0,428741430402289.56,428067925540064.56,1487396049.376872,2425814628.005303,27517425378.86216,504853357046.37134
6.950265712261491,7697830814446128.0,8570076786552719.0,436183142148935.56,435497947189265.94,1566715398.3736606,2555177656.68558,28984865453.98086,531776009878.5093
7.18927102650672,7829520193295358.0,8716707980884767.0,443645073755158.06,442948156934908.44,1649017270.0753727,2689404924.316546,30507483422.31023,559710993726.8408
7.433056447036854,7961599024582996.0,8863773836343318.0,451129072953201.4,450420399606652.44,1734392676.1786668,2828644863.25528,32086963038.516727,588689199883.515
7.681717575977592,8094098724777456.0,9011309360758510.0,458636919898309.5,457916452563318.8,1822935493.9494097,2973050579.362981,33725041071.549355,618742492275.7405
7.935351927497144,8227049617412387.0,9159348346326690.0,466170332816631.5,465438031331915.6,1914742545.754361,3122779981.7147894,35423508776.01348,649903734460.5466
8.194058966047088,8360481023363242.0,9307923470139356.0,473730973120569.9,472986794714952.0,2009913681.3762906,3277995916.849019,37184213415.03887,682206817564.2955
8.45794014536803,8494421342793246.0,9457066385438968.0,481320450052094.3,480564349426455.2,2108551863.149823,3438866307.61697,39009059835.33349,715686689179.616
8.72709894827539,8628898129696012.0,9606807804634618.0,488940324906562.3,488172254309167.25,2210763253.961227,3605564296.7034388,40900012095.2215,750379383234.4167
9.0016409272409,8763938159844096.0,9757177574977334.0,496592114882898.7,495812024178656.8,2316657308.160633,3778268394.897305,42859095146.56217,786322050849.4481
9.281673745785717,8899567492849567.0,9908204747682322.0,504277296600128.6,503485133334351.06,2426346865.440222,3957162634.1992645,44888396571.54152,823552992202.5735
9.567307220701432,9035811528956150.0,1.0059917641186814e+16,511997309315415.1,511193018772499.94,2539948247.736452,4142436725.8617024,46990068375.40972,862111689419.4622
9.85865336511546,9172695061107208.0,1.021234389915039e+16,519753557874383.4,518937083131870.25,2657581359.2189097,4334286223.46244,49166328836.323166,902038840511.966
10.155826432417769,9310242322768646.0,1.0365510543730102e+16,527547415420916.75,526718697399292.7,2779369789.432425,4532912691.121345,51419464413.523,943376394386.7515
10.458942961066125,9448477031930004.0,1.0519444024602838e+16,535380225890397.7,534539203398974.5,2905440919.663011,4738523876.974732,53751831715.156624,986167586948.2012
10.768121820287448,9587422431658244.0,1.0674170264150396e+16,543253306307612.0,542399916086805.1,3035926032.602173,4951333892.029054,56165859527.120605,1030456978320.8248
11.083484256693197,9727101327536332.0,1.082971469917881e+16,551167948908138.4,550302125668403.6,3170960425.3876586,5171563394.521447,58664050904.369125,1076290491217.7178
11.405153941827061,9867536122282134.0,1.098610231949887e+16,559125423099953.5,558247099557651.3,3310683526.1023555,5399439779.920252,61248985326.20148,1123715450482.7983
11.733257020663602,1.0008748847810012e+16,1.1143357703661848e+16,567126977280154.2,566236084190551.2,3455239013.8167367,5635197376.704661,63923320917.104576,1172780623835.7588
12.067922161076874,1.0150761194970316e+16,1.1301505052111294e+16,575173840520088.1,574270306707714.5,3604774942.2633567,5879077648.068158,66689796734.79404,1223536263849.8662
12.409280604298411,1.0293594541176612e+16,1.1460568217984334e+16,583267224130786.2,582350976517343.4,3759443867.2358766,6131329399.696229,69551235127.15591,1276034151193.8762
12.75746621638438,1.043726997610811e+16,1.1620570735772122e+16,591408323119359.6,590479286749321.5,3919402977.8078213,6392208993.773827,72510544159.8608,1330327639170.4927
13.112615540712067,1.0581808325656532e+16,1.1781535848026944e+16,599598317545894.1,598656415609994.4,4084814231.470274,6661980569.384512,75570720116.47781,1386471699584.9473
13.474867851526309,1.0727230174268884e+16,1.1943486530285322e+16,607838373789461.5,606883527646180.5,4255844493.2908053,6940916269.467523,78734850072.98245,1444522969978.4626
13.844365208556836,1.0873555885822394e+16,1.2106445514358522e+16,616129645730967.6,615161774926168.8,4432665679.199149,7229296474.505788,82006114548.61371,1504539802262.4353
14.221252512727972,1.1020805623155408e+16,1.2270435310127882e+16,624473275859815.0,623492298144639.8,4615454903.50901,7527410043.122273,85387790235.10043,1566582312790.3428
14.605677562982532,1.1168999366364424e+16,1.2435478225968848e+16,632870396310693.4,631876227657822.2,4804394630.788163,7835554559.768471,88883252806.33344,1630712433905.617
14.997791114242183,1.131815692996866e+16,1.260159638791562e+16,641322129836158.9,640314684454560.8,4999672832.192994,8154036589.693855,92495979810.6331,1696993967004.7258
15.397746936527026,1.1468297979032726e+16,1.2768811757667276e+16,649829590720214.0,648808781068430.4,5201483146.386651,8483171941.390925,96229553647.81451,1765492637155.9954
15.805701875257567,1.1619442044329658e+16,1.2937146149527652e+16,658393885637464.9,657359622435584.9,5410025045.163645,8823285936.71607,100087664633.32242,1836276149315.8562
16.221815912762718,1.1771608536619148e+16,1.3106621246361912e+16,667016114462200.5,665968306702525.6,5625504003.906784,9174713688.891918,104074114151.7735,1909414246185.1836
16.64625223101797,1.1924816760108546e+16,1.3277258614645044e+16,675697371031114.1,674635925987654.6,5848131677.006473,9537800388.602444,108192817902.29454,1984978767749.8835
17.079177275638333,1.2079085925157732e+16,1.3449079718670414e+16,684438743863207.4,683363567100026.8,6078126078.374949,9912901598.398144,112447809238.12753,2063043712550.667
17.5207608211511,1.2234435160282996e+16,1.3622105933980098e+16,693241316839972.0,692152312218481.2,6315711767.191948,10300383555.632656,116843242603.01308,2143685300728.4019
17.97117603757412,1.2390883523510338e+16,1.3796358560072422e+16,702106169848701.4,701003239533919.9,6561120039.021292,10700623484.159838,121383397066.94066,2226982038892.2886
18.430599558325603,1.254845001312195e+16,1.3971858832436522e+16,711034379391409.6,709917423857295.2,6814589122.441385,11114009915.022589,126072679963.90512,2313014786859.358
18.899211549492115,1.270715357783637e+16,1.4148627933957956e+16,720027019161686.5,718895937195541.6,7076364381.334989,11540943016.37249,130915630634.3651,2401866826314.6924
19.37719578048196,1.2867013126456762e+16,1.4326687005734756e+16,729085160591390.2,727939849297411.2,7346698522.987199,11981834932.86171,135916924275.15112,2493623931442.82
19.864739696091597,1.3028047537018048e+16,1.4506057157337406e+16,738209873368953.0,737050228170973.6,7625851812.142446,12437110134.753906,141081375899.61975,2588374441581.4634
20.36203449001343,1.3190275665458202e+16,1.4686759476541514e+16,747402225930719.4,746228140574177.5,7914092291.173927,12907205777.003773,146413944410.88727,2686209335949.6177
20.869275179813698,1.3353716353834646e+16,1.486881503855625e+16,756663285926530.6,755474652479693.4,8211696006.520315,13392572068.558617,151919736791.01004,2787222310502.6465
21.38666068340997,1.3518388438101946e+16,1.5052244914766562e+16,765994120660409.6,764790829514929.4,8518947241.545891,13893672652.135399,157604012408.99567,2891509856967.1226
21.91439389707817,1.3684310755461342e+16,1.5237070181001482e+16,775395797507025.2,774177737377814.8,8836138755.98056,14410984994.729862,163472187450.55078,2999171344108.688
22.452681775019734,1.3851502151287494e+16,1.5423311925333952e+16,784869384304174.4,783636442228688.2,9163572032.096153,14945000789.111515,169529839472.43988,3110309101285.8643
23.00173541052013,1.4019981485632372e+16,1.561099125541224e+16,794415949721314.5,793168011058235.2,9501557527.773434,15496226366.557283,175782712084.33124,3225028504342.1816
23.561770118730532,1.4189767639298942e+16,1.580012930531549e+16,804036563603723.9,802773512031111.6,9850414936.612717,16065183121.072346,182236719760.9406,3343438063888.4663
24.133005521105144,1.4360879519471958e+16,1.5990747241918206e+16,813732297291549.1,812454014804503.0,10210473455.23547,16652407945.339594,188897952787.21848,3465649516025.435
24.715665631527248,1.4533336064884776e+16,1.6182866270741408e+16,823504223912581.8,822210590820414.0,10582072057.92053,17258453678.631084,195772682339.21805,3591777915555.03
25.309978944157795,1.4707156250493622e+16,1.6376507641257658e+16,833353418647109.5,832044313570132.4,10965559778.710283,17883889566.90214,202867365703.15726,3721941731726.5044
25.91617852304095,1.4882359091623114e+16,1.6571692651610586e+16,843280958962822.2,841956258828741.0,11361296001.112219,18529301735.27382,210188651635.00278,3856262946559.936
26.53450209350177,1.505896364753642e+16,1.6768442652696736e+16,853287924817106.4,851947504857115.6,11769650755.51144,19195293673.090607,217743385862.6917,3994867155785.9824
27.165192135371807,1.5236989024376256e+16,1.6966779051549136e+16,863375398823674.5,862019132568282.0,12191005024.393053,19882486731.71623,225538616732.8453,4137883672435.8154
27.808495978079243,1.5416454377409834e+16,1.7166723313949912e+16,873544466379806.0,872172225654446.4,12625751055.458529,20591520635.203712,233581601003.51202,4285445633109.4146
28.464665897640828,1.5597378912504384e+16,1.7368296966188142e+16,883796215749921.2,882407870670459.8,13074292682.698402,21323054003.94163,241879809784.10583,4437690106943.538
29.133959215593645,1.5779781886745434e+16,1.7571521595867298e+16,894131738100630.6,892727157068794.5,13537045655.461456,22077764891.342342,250440934623.27158,4594758207292.747
29.816638399905518,1.5963682608102002e+16,1.7776418851653548e+16,904552127481756.6,903131177180610.4,14014437975.532366,22856351333.59156,259272893744.9077,4756795206127.821
30.51297116790363,1.6149100434030198e+16,1.7983010441845908e+16,915058480747219.6,913621026136746.6,14506910242.200493,23659531912.430813,268383838432.01978,4923950651145.27
31.223230591261704,1.6336054768896418e+16,1.819131813163486e+16,925651897409018.5,924197801721942.4,15014916005.26686,24488046330.88714,277782159557.4299,5096378485570.262
31.947695203086937,1.6524565060090788e+16,1.840136373890577e+16,936333479417007.2,934862604154964.1,15538922125.89849,25342656001.800446,287476494259.6553,5274237170621.816
32.686649107148675,1.6714650792690746e+16,1.86131691284311e+16,947104330856521.8,945616535786696.4,16079409145.1959,26224144648.931858,297475732761.4781,5457689810594.981
33.44038208929165,1.6906331482525836e+16,1.8826756204285452e+16,957965557555405.1,956460700707791.5,16636871660.293325,27133318920.356594,307789025327.8694,5646904280498.432
34.20918973107749,1.709962666748537e+16,1.9042146900306976e+16,968918266591474.2,967396204256900.1,17211818707.75978,28071009013.764385,318425789358.9667,5842053356168.92
34.993373525699035,1.7294555896903112e+16,1.9259363168421096e+16,979963565691015.6,978424152420128.8,17804774154.01365,29038069313.199234,329395716612.8091,6043314846765.101
35.793240996213015,1.7491138718847266e+16,1.9478426964634076e+16,991102562508613.9,989545651111979.9,18416277092.40443,30035379036.672394,340708780551.4042,6250871729522.909
36.60910581613728,1.7689394665139222e+16,1.9699360232500852e+16,1002336363778248.4,1000761805327794.5,19046882246.552742,31063842893.982483,352375243802.5644,6464912286634.106
37.44128793246003,1.7889343233920708e+16,1.992218488386564e+16,1013666074325500.0,1012073718157507.6,19697160379.471565,32124391753.964977,364405665728.7027,6685630244085.531
38.29011369110923,1.8091003869588864e+16,2.0146922776674412e+16,1025092795930615.9,1023482489650502.1,20367698707.92288,33217983320.28007,376810910092.4694,6913224912274.268
39.15591596493141,1.829439593992005e+16,2.037359568965882e+16,1036617626032261.5,1034989215521379.2,21059101321.390446,34345602814.730064,389602152807.79034,7147901328188.48
40.03903428423004,1.8499538710204716e+16,2.060222529369535e+16,1048241656261935.5,1046594985686707.9,21771989604.973793,35508263666.97187,402790889763.43787,7389870398917.642
40.93981496991464,1.8706451314224748e+16,2.083283311964901e+16,1059965970799436.6,1058300882623041.5,22507002665.430996,36707008209.36544,416388944704.8581,7639349046230.69
41.85861126931294,1.891515272190906e+16,2.1065440522521584e+16,1071791644540153.5,1070107979537108.1,23264797759.51842,37942908375.568825,430408477158.4815,7896560351932.42
42.7957834946992,1.9125661703518224e+16,2.130006864173461e+16,1083719741065624.0,1082017338339548.6,24046050723.696404,39217066401.36159,444861990381.29944,8161733703682.372
43.751699164593184,1.933799679021863e+16,2.153673835739489e+16,1095751310409572.0,1094030007414471.9,24851456404.187508,40530615526.0435,459762339316.9666,8435104940932.546
44.72673314788505,1.9552176230926e+16,2.177547024240531e+16,1107887386612506.8,1106147019177875.9,25681729086.295803,41884720692.62878,475122738538.23254,8716916500612.946
