t(s),Total solute volume 1,Total retention volume 1,Total 1 volume 1,Total 2 volume 1,Total 3 volume 1,Total 4 volume 1,Total 5 volume 1,Total 6 volume 1
0.1,1277535415264620.8,2216485712870468.2,368078767489456.25,570871530116391.1,0.0,0.0,0.0,3.710125213445117e-74
0.202,1887516187670486.8,3375365394551767.0,543824178219465.75,843443838443620.4,28043349847.6133,90054302203.04561,2812567961007.741,97650524605137.52
0.30604000000000003,2328658535951821.0,4291561954021366.5,670924480818908.4,1040570001371793.2,69886241484.31145,224423954663.3663,7011022575285.027,244103603107408.72
0.41216080000000005,2682709309809494.5,5093795542406733.0,772932280671694.9,1198778955565722.5,121977964867.36264,391706161975.22614,12238306414204.633,426623005818778.0
0.5204040160000001,2981150777180796.5,5830255023207088.0,858918132794211.6,1332138676916559.0,182547178884.3262,586212649795.5466,18316579769554.5,638962096717288.6
0.6308120963200001,3240015551797019.0,6524796888209333.0,933501294628331.6,1447813401149213.8,250499601135.4676,804429413641.296,25136010378231.273,877275701241756.8
0.7434283382464002,3468814630667535.0,7191206393064136.0,999422039464025.5,1550053153960217.2,325083629486.4457,1043942901854.3868,32621169582011.94,1138926372859005.8
0.8582969050113283,3673760177276148.0,7838277801243559.0,1058470192862526.1,1641633864473668.2,405749960814.97485,1302989205110.0022,40716934576873.305,1421987892888421.5
0.9754628431115548,3859187689566527.5,8472025181770693.0,1111894882447654.8,1724492866569227.2,492080873508.6093,1580226960860.7195,49381388692564.31,1724996046660358.5
1.094972099973786,4028272876460205.0,9096780987810686.0,1160611081719839.5,1800049237937956.5,583750145927.2915,1874608639826.1873,58581798024437.39,2046807634882503.5
1.2168715419732616,4183429110789933.0,9715796330904802.0,1205314122726086.8,1869381403462064.8,680498375014.2454,2185301287121.9048,68292134178768.336,2386513760085822.0
1.3412089728127268,4326544185022477.0,1.0331593315436326e+16,1246547909243314.2,1933332930422157.2,782116812784.385,2511634616837.4956,78491452070059.48,2743383087248698.0
1.4680331522689813,4459129491506663.0,1.094618376000867e+16,1284747898039568.0,1992579190264781.0,888436265939.7905,2853065365789.8853,89162775926070.53,3116822902639846.0
1.597393815314361,4582418368957508.0,1.1561211240541696e+16,1320269434099197.0,2047671305106498.8,999319179501.6965,3209151872061.692,100292304864776.7,3506351356462154.5
1.729341691620648,4697433394463174.0,1.2178046828470208e+16,1353407138546855.5,2099066217425231.5,1114653815599.98,3579535381678.0938,111868828745946.83,3911577060091723.0
1.863928525453061,4805033884101250.0,1.2797855661785904e+16,1384408594349291.0,2147147915892616.0,1234349863276.425,3963925950665.4067,123883287636134.03,4332183703992678.5
2.001207095962122,4905950322585785.0,1.342164448003858e+16,1413484266057774.0,2192242820393548.5,1358335056646.1418,4362091585224.184,136328432466549.84,4767918211893045.0
2.1412312378813647,5000809893498498.0,1.405029635310989e+16,1440814855483841.2,2234631190307647.2,1486552522656.138,4773849724837.689,149198558906707.94,5218581452665705.0
2.284055862638992,5090155788749908.0,1.4684596566193996e+16,1466556865069738.5,2274555753015778.0,1618958668888.778,5199060459611.367,162489295430618.72,5684020844799447.0
2.4297369798917723,5174462068594508.0,1.5325252256171462e+16,1490846879300974.0,2312228344154592.5,1755521479075.6492,5637621056881.441,176197432295058.47,6164124389290387.0
2.578331719489608,5254145274087653.0,1.5972907543248482e+16,1513804910444398.2,2347835096687205.0,1896219121784.506,6089461493508.187,190320781942855.97,6658815799471077.0
2.7298983538794,5329573626261814.0,1.6628155356530728e+16,1535537048980806.0,2381540551590237.0,2041038803363.407,6554540772546.755,204858063915498.72,7168050486206459.0
2.884496320956988,5401074402974741.0,1.729154679423275e+16,1556137588995117.8,2413490954226564.5,2189975813994.7812,7032843860048.683,219808809142572.3,7691812219219714.0
3.0421862473761276,5468939919689984.0,1.7963598618904562e+16,1575690751336700.8,2443816926879883.5,2343032728287.7456,7524379118130.402,235173279737550.75,8230110329414030.0
3.2030299723236504,5533432426725058.0,1.8644799323472676e+16,1594272094596399.2,2472635657108745.0,2500218730900.3057,8029176139550.229,250952401338969.6,8782977348833015.0
3.3670905717701234,5594788155538562.0,1.933561408912519e+16,1611949680907770.2,2500052705845348.0,2661549044323.027,8547283910357.738,267147705702357.53,9350467008176474.0
3.5344323832055258,5653220689471621.0,2.0036488874726484e+16,1628785047112633.2,2526163513624250.5,2827044440893.042,9078769243034.33,283761281743706.44,9932652529090378.0
3.7051210308696363,5708923792889550.0,2.0747853818920936e+16,1644834019882887.5,2551054664795034.5,2996730824828.0474,9623715434492.367,300795733608666.1,1.0529625161485506e+16
3.879223451487029,5762073802165721.0,2.1470126093406492e+16,1660147404601942.5,2574804955942641.0,3170638872908.9653,10182221112416.97,318254144626492.3,1.1141492926084388e+16
4.0568079205167695,5812831659228726.0,2.2203712314336704e+16,1674771571262767.0,2597486304585570.5,3348803724630.525,10754399240469.238,336140046227610.7,1.1768379530066942e+16
4.237944078927105,5861344651270155.0,2.2949010595261464e+16,1688748955706071.0,2619164526571020.0,3531264714346.909,11340376258353.91,354457391075020.25,1.2410423429666492e+16
4.422702960505647,5907747907168076.0,2.3706412307234764e+16,1702118490764290.5,2639900004757344.5,3718065139284.0425,11940291337072.107,373210529794652.4,1.3067777018274046e+16
4.61115701971576,5952165691146035.0,2.4476303598156332e+16,1714915978985830.2,2659748267090567.5,3909252058357.811,12554295733108.125,392404190796946.4,1.3740605922345484e+16
4.803380160110075,5994712526395131.0,2.5259066712975556e+16,1727174416368891.8,2678760488699131.0,4104876117592.133,13182552228044.133,412043462767649.25,1.442908839039909e+16
4.9994477633122765,6035494175283170.0,2.605508114828212e+16,1738924274775696.5,2696983929904123.5,4304991398620.7393,13825234642311.88,432133779475064.7,1.5133414762803168e+16
5.199436718578522,6074608497955030.0,2.686472466846565e+16,1750193749309260.0,2714462319888137.0,4509655287316.644,14482527413589.316,452680906597191.1,1.5853787012015122e+16
5.403425452950093,6112146207294173.0,2.7688374205623556e+16,1761008975830099.2,2731236194052653.0,4718928360051.903,15154625231822.719,473690930318190.25,1.6590418344536586e+16
5.611493962009095,6148191535141951.0,2.852640666142769e+16,1771394222904863.0,2747343191720693.5,4932874285467.284,15841732724065.887,495170247481467.9,1.7343532857169178e+16
5.823723841249277,6182822822192955.0,2.9379199625980344e+16,1781372061764801.2,2762818319733839.0,5151559739943.994,16544064183331.383,517125557117985.2,1.81133652412475e+16
6.040198318074262,6216113041972540.0,3.024713202613999e+16,1790963517272238.5,2777694186593535.5,5375054335229.251,17261843336482.293,539563853194506.1,1.8900160529435452e+16
6.261002284435747,6248130267659405.0,3.1130584713726756e+16,1800188202419748.5,2792001211062560.5,5603430556885.401,17995303146893.52,562492418448297.8,1.9704173880432964e+16
6.486222330124463,6278938089166820.0,3.202994100233639e+16,1809064438498063.2,2805767808539370.5,5836763712414.538,18744685648196.45,585918819193152.6,2.052567039757837e+16
6.715946776726952,6308595986782360.0,3.2945587160114804e+16,1817609362747781.5,2819020558020427.5,6075131888065.647,19510241805918.184,609850900997080.9,2.136492497787316e+16
6.950265712261491,6337159666741573.0,3.3877912864714216e+16,1825839025043586.2,2831784352052591.0,6318615913461.727,20292231404247.027,634296785145199.4,2.2222222188413548e+16
7.18927102650672,6364681363340637.0,3.4827311625714616e+16,1833768474937836.5,2844082531733282.0,6567299333296.187,21090922955513.26,659264865812470.1,2.3097856167601508e+16
7.433056447036854,6391210111547775.0,3.5794181179021756e+16,1841411840204360.2,2855937008527952.0,6821268385443.063,21906593630281.55,684763807880578.6,2.3992130548845364e+16
7.681717575977592,6416791993530494.0,3.677892385710309e+16,1848782397866981.5,2867368374431741.5,7080611984907.705,22739529206213.984,710802545341429.8,2.4905358404741384e+16
7.935351927497144,6441470362057514.0,3.778194693838317e+16,1855892638565226.2,2878396001797424.0,7345421713114.462,23590024034088.215,737390280236787.9,2.5837862209979056e+16
8.194058966047088,6465286043345427.0,3.880366297866481e+16,1862754324997775.2,2889038133978280.0,7615791812089.821,24458381019552.45,764536482089741.2,2.6789973821421924e+16
8.45794014536803,6488277521589871.0,3.984449012706011e+16,1869378545088896.8,2899311967786505.5,7891819183151.078,25344911619367.14,792250887788941.5,2.7762034474003376e+16
8.72709894827539,6510481107138272.0,4.090485242858857e+16,1875775760441755.2,2909233728641879.5,8173603389757.49,26249935851031.44,820543501891192.6,2.8754394791234616e+16
9.0016409272409,6531931090019492.0,4.198518011532619e+16,1881955850572798.2,2918818739177043.5,8461246664220.532,27173782314821.277,849424597311966.4,2.976741480926584e+16
9.281673745785717,6552659880337456.0,4.308590988775363e+16,1887928153361459.5,2928081481972965.0,8754853918004.581,28116788227377.508,878904716376955.9,3.08014640135594e+16
9.567307220701432,6572698136856836.0,4.420748518775081e+16,1893701502097785.5,2937035657017904.0,9054532755380.957,29079299466082.535,908994672210851.5,3.1856921387346012e+16
9.85865336511546,6592074884953358.0,4.535035646451466e+16,1899284259465836.5,2945694234413995.0,9360393490224.172,30061670623549.535,939705550442220.5,3.2934175471125492e+16
10.155826432417769,6610817624966795.0,4.651498143452726e+16,1904684348761940.8,2954069502795155.5,9672549165763.979,31064265071625.79,971048711205807.9,3.4033624432560204e+16
10.458942961066125,6628952431877835.0,4.77018253365761e+16,1909909282613272.2,2962173113868125.0,9991115577127.295,32087455034377.676,1003035791425625.9,3.5155676146179736e+16
10.768121820287448,6646504047127908.0,4.891136118271707e+16,1914966189432563.2,2970016123442466.0,10316211296522.898,33131621669587.77,1035678707364124.2,3.630074828238393e+16
11.083484256693197,6663495963311365.0,5.014407000597673e+16,1919861837819382.5,2977609029275620.0,10647957700938.486,34197155158343.66,1068989657424371.2,3.746926840528672e+16
11.405153941827061,6679950502392131.0,5.1400441105506136e+16,1924602659095554.0,2984961806024276.5,10986479002234.225,35284454802349.43,1102981125193655.4,3.8661674078995896e+16
11.733257020663602,6695888888027031.0,5.26809722898289e+16,1929194768142742.5,2992083937562386.0,11331902279529.982,36393929128630.28,1137665882718250.0,3.987841298197036e+16
12.067922161076874,6711331312518799.0,5.398617011876219e+16,1933643982692674.0,2998984446899302.5,11684357513795.674,37525996001339.95,1173056994000260.2,4.1119943029136104e+16
12.409280604298411,6726296998867172.0,5.531655014453448e+16,1937955841205085.5,3005671923907623.5,12043977624564.037,38681082740413.43,1209167818708499.0,4.238673250148108e+16
12.75746621638438,6740804258340362.0,5.667263715257696e+16,1942135619454990.8,3012154551049156.5,12410898508695.262,39859626246839.016,1246012016096369.8,4.367926018288066e+16
13.112615540712067,6754870543946529.0,5.805496540242516e+16,1946188345938689.2,3018440127268908.5,12785259081130.488,41062073134350.48,1283603549120473.5,4.499801550393495e+16
13.474867851526309,6768512500148468.0,5.946407886912482e+16,1950118816197386.5,3024536090210247.5,13167201317580.455,42288879867364.57,1321956688754551.8,4.634349869262929e+16
13.844365208556836,6781746009131083.0,6.090053148551329e+16,1953931606147590.5,3030449536889706.0,13556870299100.145,43540512905012.21,1361086018493954.0,4.771622093164685e+16
14.221252512727972,6794586233902391.0,6.2364887385708664e+16,1957631084499221.2,3036187242956854.5,13954414258509.355,44817448851131.13,1401006439046580.5,4.911670452219385e+16
14.605677562982532,6807047658482126.0,6.385772115012296e+16,1961221424334605.0,3041755680652691.5,14359984628622.246,46120174610106.03,1441733173206679.0,5.054548305420814e+16
14.997791114242183,6819144125408723.0,6.53796180522895e+16,1964706613914856.8,3047161035569841.0,14773736092255.81,47449187548460.555,1483281770908556.5,5.2003101582846824e+16
15.397746936527026,6830888870774625.0,6.693117430777314e+16,1968090466774100.8,3052409222308151.0,15195826633991.42,48804995662118.67,1525668114457559.8,5.3490116811162584e+16
15.805701875257567,6842294556980486.0,6.8512997325420664e+16,1971376631156505.5,3057505899111088.5,15626417593667.299,50188117749267.59,1568908423936323.8,5.500709727889329e+16
16.221815912762718,6853373303382566.0,7.012570596118883e+16,1974568598846295.8,3062456481560610.5,16065673721585.01,51599083588766.86,1613019262784480.8,5.6554623557304504e+16
16.64625223101797,6864136714991896.0,7.1769930774774984e+16,1977669713436443.2,3067266155401518.0,16513763235415.406,53038434124063.086,1658017543550530.8,5.813328845003511e+16
17.079177275638333,6874595909370208.0,7.344631428926678e+16,1980683178077836.5,3071939888559975.5,16970857878793.422,54506721652573.4,1703920533814848.8,5.974369719991255e+16
17.5207608211511,6884761541855412.0,7.515551125401123e+16,1983612062747140.5,3076482442415672.5,17437132981594.629,56004510020518.836,1750745862283138.2,6.1386467701707816e+16
17.97117603757412,6894643829237944.0,7.689818891090046e+16,1986459311068348.2,3080898382381626.5,17912767521887.6,57532374823192.516,1798511525049895.0,6.306223072081749e+16
18.430599558325603,6904252571999400.0,7.86750272642584e+16,1989227746720064.8,3085192087841631.0,18397944189561.438,59090903610657.65,1847235892031758.2,6.4771630117865336e+16
18.899211549492115,6913597175215427.0,8.048671935450952e+16,1991920079458019.8,3089367761490792.5,18892849451627.37,60680696098879.37,1896937713570831.2,6.651532307922403e+16
19.37719578048196,6922686668217065.0,8.23339715358009e+16,1994538910779786.0,3093429438121280.5,19397673619197.684,62302364386299.67,1947636127208301.5,6.829398035346909e+16
19.864739696091597,6931529723096544.0,8.421750375774646e+16,1997086739256592.8,3097380992891692.0,19912610916146.574,63956533175873.17,1999350664628898.8,7.0108286493780744e+16
20.36203449001343,6940134672136956.0,8.613804985145616e+16,1999565965555145.5,3101226149115627.5,20437859549459.18,65643840002587.06,2052101258776981.2,7.195894010631936e+16
20.869275179813698,6948509524239315.0,8.809635782000765e+16,2001978897170470.5,3104968485602098.5,20973621781277.67,67364935466495.89,2105908251145087.5,7.3846654104603e+16
21.38666068340997,6956661980414109.0,9.009319013351947e+16,2004327752889324.5,3108611443578045.0,21520104002654.367,69120483471304.64,2160792399236157.0,7.577215596992784e+16
21.91439389707817,6964599448399813.0,9.212932402897003e+16,2006614667002019.5,3112158333220671.0,22077516809023.566,70911161468542.52,2216774884200655.8,7.773618801786928e+16
22.452681775019734,6972329056465999.0,9.420555181492232e+16,2008841693279305.8,3115612339825399.0,22646075077405.74,72737660707372.2,2273877318650040.5,7.973950767091685e+16
23.00173541052013,6979857666454067.0,9.632268118129288e+16,2011010808729652.5,3118976529633206.5,23225998045358.844,74600686490085.28,2332121754648148.5,8.178288773729242e+16
23.561770118730532,6987191886105117.0,9.84815355143151e+16,2013123917151066.0,3122253855339325.0,23817509391692.66,76500958433339.72,2391530691882259.5,8.386711669601235e+16
24.133005521105144,6994338080720263.0,1.0068295421683904e+17,2015182852490643.0,3125447161303735.0,24420837318964.145,78439210735196.22,2452127086015647.0,8.59929989882546e+16
24.715665631527248,7001302384195859.0,1.0292779303411203e+17,2017189382024016.0,3128559188482321.0,25036214637772.047,80416192448021.03,2513934357223675.5,8.816135531510018e+16
25.309978944157795,7008090709473051.0,1.052169243851796e+17,2019145209365986.5,3131592579096238.0,25663878852871.223,82432667757319.02,2576976398915531.5,9.037302294171856e+16
25.91617852304095,7014708758437601.0,1.0755123770005136e+17,2021051977322880.0,3134549881055733.5,26304072251127.293,84489416266569.28,2641277586643771.0,9.262885600807354e+16
26.53450209350177,7021162031304311.0,1.0993163976276821e+17,2022911270596317.2,3137433552153573.5,26957041991334.28,86587233288141.4,2706862787204147.0,9.492972584623024e+16
27.165192135371807,7027455835517237.0,1.1235905506051469e+17,2024724618347535.5,3140245964042191.0,27623040195918.273,88726930140364.88,2773757367928093.0,9.727652130434326e+16
27.808495978079243,7033595294195019.0,1.1483442613891742e+17,2026493496630595.8,3142989406007465.0,28302324044551.01,90909334450839.02,2841987206170437.5,9.967014907741867e+16
28.464665897640828,7039585354148773.0,1.1735871396366547e+17,2028219330702498.8,3145666088551550.5,28995155869699.8,93135290466066.47,2911578698995093.0,1.0211153404493203e+17
29.133959215593645,7045430793497522.0,1.1993289828859898e+17,2029903497217303.2,3148278146795925.5,29701803254137.965,95405659367497.14,2982558773061377.0,1.046016196154051e+17
29.816638399905518,7051136228905498.0,1.2255797803040459e+17,2031547326311300.8,3150827643715307.5,30422539130445.57,97721319594079.08,3054954894713979.0,1.0714136807803406e+17
30.51297116790363,7056706122462721.0,1.2523497165006053e+17,2033152103585430.2,3153316573212358.0,31157641882526.13,100083167171404.08,3128795080279415.0,1.0973176096146667e+17
31.223230591261704,7062144788230051.0,1.2796491754117152e+17,2034719071991018.5,3155746863042297.5,31907395449169.33,102492116047552.89,3204107906572099.0,1.1237379939983942e+17
31.947695203086937,7067456398467631.0,1.3074887442534125e+17,2036249433624300.8,3158120377596161.0,32672089429689.273,104949098435732.97,3280922521613202.0,1.1506850450617456e+17
32.686649107148675,7072644989565001.0,1.335879217547219e+17,2037744351434955.5,3160438920550657.0,33452019191669.08,107455065163820.58,3359268655565438.0,1.1781691775325037e+17
33.44038208929165,7077714467689478.0,1.3648316012188952e+17,2039204950853541.8,3162704237392190.0,34247485980842.715,110010986030906.31,3439176631887276.5,1.2062010136205512e+17
34.20918973107749,7082668614168931.0,1.3943571167719014e+17,2040632321342301.0,3164918017822141.5,35058797033146.62,112617850170956.16,3520677378709851.0,1.2347913869794282e+17
34.993373525699035,7087511090623251.0,1.4244672055370437e+17,2042027517873687.5,3167081898049951.5,35886265688974.09,115276666423700.7,3603802440440123.0,1.263951346746046e+17
35.793240996213015,7092245443858904.0,1.4551735329997808e+17,2043391562340527.8,3169197462980194.0,36730211509665.766,117988463712864.45,3688583989593957.5,1.2936921616598214e+17
36.60910581613728,7096875110539115.0,1.4864879932067392e+17,2044725444901569.5,3171266248299536.5,37590960396271.22,120754291431854.64,3775054838862599.0,1.32402532426243e+17
37.44128793246003,7101403421642174.0,1.5184227132528557e+17,2046030125266001.5,3173289742468847.0,38468844710616.92,123575219837027.38,3863248453416569.5,1.3549625551794456e+17
38.29011369110923,7105833606718950.0,1.550990057850814e+17,2047306533920149.8,3175269388625832.5,39364203398714.93,126452340448655.2,3953198963450551.5,1.3865158074851854e+17
39.15591596493141,7110168797960765.0,1.5842026339841718e+17,2048555573299441.5,3177206586402651.5,40277382116552.31,129386766459718.44,4044941176973418.5,1.4186972711520504e+17
40.03903428423004,7114412034087430.0,1.6180732956458752e+17,2049778118908642.2,3179102693663380.5,41208733358294.71,132379633152650.7,4138510592847187.5,1.4515193775857024e+17
40.93981496991464,7118566264065034.0,1.652615148663621e+17,2050975020393002.8,3180959028165248.0,42158616586945.195,135432098324166.45,4233943414079143.5,1.4849948042474877e+17
41.85861126931294,7122634350662313.0,1.687841555613729e+17,2052147102562915.2,3182776869147888.0,43127398367495.414,138545342718303.81,4331276561371261.0,1.519136479365427e+17
42.7957834946992,7126619073854170.0,1.723766140825125e+17,2053295166374515.8,3184557458854178.0,44115452502609.625,141720570467816.9,4430547686931010.0,1.553957586735285e+17
