t(s),Total solute volume 1,Total retention volume 1,Total 1 volume 1,Total 2 volume 1,Total 3 volume 1,Total 4 volume 1,Total 5 volume 1,Total 6 volume 1
0.1,1063829490026819.8,1368988609462191.8,135960145783138.03,169198973652234.8,0.0,0.0,0.0,0.0
0.202,1600737830119765.8,2063165971631476.2,204578413929935.6,254592682008871.1,2818053606.6550384,6450008023.961064,121617091507.59848,3126160419766.949
0.30604000000000003,2008669379762922.0,2593112294270366.0,256713115839305.9,319473005509505.06,7143016358.349288,16349069880.420855,308271823039.5471,7925029249358.727
0.41216080000000005,2352769614284128.0,3042313691673632.0,300690011354366.06,374201144243926.25,12675702072.447227,29012402446.028706,547050082527.2871,14064183604167.703
0.5204040160000001,2657486357156383.0,3442075350393580.5,339633595271276.56,422665453433650.4,19281668514.792408,44132294409.75417,832149430117.3634,21394381139227.984
0.6308120963200001,2935008029860657.5,3807996948560292.0,375101579231079.4,466804466012181.7,26887419388.213356,61540528890.685616,1160397896348.2961,29834047611741.027
0.7434283382464002,3192420260954672.0,4149146500949158.5,407999524801021.9,507745130549925.8,35449605605.38239,81137890603.0068,1529924649241.9119,39335072498089.375
0.8582969050113283,3434261811843783.0,4471334798261117.0,438907497370174.2,546209323815897.8,44942356426.53757,102865169130.12428,1939613205462.7004,49868744500239.02
0.9754628431115548,3663641693009126.0,4778545739085394.0,468222836479427.56,582691524861475.2,55351028697.50141,126688852082.38412,2388831651815.6914,61418813202770.81
1.094972099973786,3882796993251949.0,5073650161950302.0,496231447834858.44,617547536136654.2,66668738801.51742,152593187382.8268,2877282968160.8975,73977639832505.06
1.2168715419732616,4093399241415005.0,5358797671090353.0,523146957124281.0,651043209428996.0,78894273508.9855,180575401598.84637,3404914862603.9033,87543878584363.3
1.3412089728127268,4296735162290678.5,5635647695628989.0,549133811087541.44,683383194563939.1,92030752499.48425,210642638714.14758,3971862048111.7,102120992247498.69
1.4680331522689813,4493819471663273.0,5905513602465669.0,574321693013218.9,714728879127425.9,106084731174.83253,242809906646.18292,4578407521563.419,117716256502368.03
1.597393815314361,4685468508899411.0,6169456728439777.0,598814933173188.9,745210099514701.6,121065576295.01747,277098648205.1434,5224955617473.863,134340067010498.22
1.729341691620648,4872350120901384.0,6428350056101303.0,622698884120238.5,774933074827644.0,136985018503.0616,313535716919.43317,5912012695993.627,152005442820622.62
1.863928525453061,5055018523673685.0,6682922695583770.0,646044376085987.2,803985951505249.2,153856823902.3266,352152625350.5647,6640172969037.858,170727661900559.4
2.001207095962122,5233939317675787.0,6933791791476740.0,668910914007356.9,832442781942543.9,171696548312.18652,392984982644.0139,7410107894691.049,190523988425408.53
2.1412312378813647,5409507850837150.0,7181485937327060.0,691349024367137.9,860366445074569.5,190521350497.17276,436072067059.92395,8222558116819.777,211413465513809.84
2.284055862638992,5582062967713292.0,7426462702570762.0,713402012371522.2,887810833139539.6,210349848444.39624,481456497033.9087,9078327262587.973,233416755738337.6
2.4297369798917723,5751897484524249.0,7669121983242163.0,735107300686981.2,914822517703176.4,231202007705.7337,529183975628.75543,9978277123844.676,256556017220564.7
2.578331719489608,5919266293475701.0,7909816330037657.0,756497465193352.1,941442038627338.6,253099054053.68588,579303090636.2454,10923323887860.24,280854806708728.78
2.7298983538794,6084392719496917.0,8148859049161365.0,777601047391314.8,967704915090646.2,276063404869.1814,631865157553.6361,11914435176514.44,306338003443536.94
2.884496320956988,6247473567969400.0,8386530635598578.0,798443199515092.8,993642448415002.5,300118615168.98926,686924096068.1936,12952627717319.123,333031749270536.8
3.0421862473761276,6408683177749406.0,8623083939753994.0,819046202519174.2,1019282366687010.9,325289335223.74615,744536333071.2769,14038965514686.309,360963401615408.25
3.2030299723236504,6568176708427278.0,8858748359403604.0,839429886198504.1,1044649347586972.8,351601277461.86914,804760726926.9164,15174558421975.328,390161496764489.3
3.3670905717701234,6726092831065383.0,9093733272709734.0,859611973071722.4,1069765446342915.1,379081190894.26044,867658508954.9218,16360561038141.115,420655721491703.75
3.5344323832055258,6882555949215659.0,9328230873889860.0,879608362232915.2,1094650448976938.6,407756841691.7619,933293238997.4067,17598171869942.6,452476891513741.44
3.7051210308696363,7037678046391551.0,9562418534064018.0,899433365463294.1,1119322166140268.9,437656998843.4789,1001730772615.4209,18888632713451.535,485656935583971.4
3.879223451487029,7191560233768136.0,9796460781233722.0,919099905031245.0,1143796679270417.5,468811424047.65314,1073039237974.095,20233228218250.18,520228884283667.0
4.0568079205167695,7344294055288977.0,1.0030510972191664e+16,938619680488347.4,1168088548164629.5,501250865157.4836,1147289020865.4363,21633285605076.58,556226862758626.8
4.237944078927105,7495962594925133.0,1.026471271330931e+16,958003310179923.2,1192210987086225.5,535007052636.0393,1224552756619.4614,23090174513358.004,593686086795413.6
4.422702960505647,7646641421413564.0,1.0499201075152264e+16,977260451985037.9,1216176015022423.5,570112698576.9797,1304905327889.098,24605306959503.51,632642861745300.8
4.61115701971576,7796399398597952.0,1.0734103636694114e+16,996399906880140.6,1239994584566771.0,606601497928.4424,1388423867478.9539,26180137390305.883,673134583893524.9
4.803380160110075,7945299383934153.0,1.0969541387816422e+16,1015429708209858.6,1263676693014309.2,644508131621.4023,1475187765534.2852,27816162818562.625,715199743942360.1
4.9994477633122765,8093398833390082.0,1.1205629513269328e+16,1034357198994762.6,1287231478569219.0,683868271354.8049,1565278680523.268,29514923030226.188,758877932333148.6
5.199436718578522,8240750327571434.0,1.1442478076938076e+16,1053189099171582.9,1310667304023507.5,724718585830.8407,1658780553539.7908,31278000854168.41,804209846178016.6
5.403425452950093,8387402031214122.0,1.1680192621839416e+16,1071931564317529.6,1333991829837998.5,767096748267.0183,1755779625529.9531,33107022487077.535,851237297608914.5
5.611493962009095,8533398096043123.0,1.191887469854662e+16,1090590237136691.1,1357212078215823.8,811041445038.7604,1856364457107.5916,35003657867176.83,900003223381642.1
5.823723841249277,8678779015278827.0,1.2158622332556012e+16,1109170292766850.8,1380334489485638.2,856592385328.5054,1960625950675.0896,36969621091414.02,950551695597284.9
6.040198318074262,8823581936686232.0,1.239953043934702e+16,1127676478787984.2,1403364971891168.5,903790311675.6338,2068657374607.5232,39006670871561.23,1002927933423787.2
6.261002284435747,8967840939936783.0,1.2641691194454634e+16,1146113150669813.8,1426308945704808.0,952677011336.7646,2180554389293.3152,41116611025323.086,1057178315717275.4
6.486222330124463,9111587283133750.0,1.2885194364708086e+16,1164484303278393.2,1449171382436779.8,1003295328378.6256,2296415074853.3403,43301290999097.41,1113350394456840.0
6.715946776726952,9254849622598678.0,1.3130127605830174e+16,1182793598965374.5,1471956839791498.8,1055689176436.3945,2416339960384.923,45562606419492.875,1171492908918307.8
6.950265712261491,9397654209393868.0,1.337657673080208e+16,1201044392684084.5,1494669492923915.5,1109903552079.321,2540432054597.752,47902499671095.45,1231655800522436.2
7.18927102650672,9540025065540716.0,1.3624625952744154e+16,1219239754510691.0,1517313162466526.2,1165984548733.0476,2668796877725.8354,50322960498299.78,1293890228301455.0
7.433056447036854,9681984142464480.0,1.3874358105517896e+16,1237382489893849.2,1539891339729561.2,1223979371114.5444,2801542494614.869,52826026629307.38,1358248584934978.8
7.681717575977592,9823551463837294.0,1.4125854844799566e+16,1255475157910394.8,1562407209419728.2,1283936350141.0579,2938779548896.5693,55413784420624.52,1424784513312496.8
7.935351927497144,9964745254689464.0,1.4379196831992586e+16,1273520087766117.2,1584863670174999.8,1345904958279.207,3080621298172.7017,58088369520602.77,1493552923584975.0
8.194058966047088,1.0105582058405258e+16,1.4634463903024462e+16,1291519393748109.0,1607263353172459.8,1409935825304.586,3227183650140.968,60851967550742.06,1564610010672456.5
8.45794014536803,1.0246076843004504e+16,1.4891735223800884e+16,1309474988807837.5,1629608639032066.0,1476080754445.63,3378585199602.7373,63706814803628.28,1638013272198805.0
8.72709894827539,1.0386243097928162e+16,1.5151089433858538e+16,1327388596930589.8,1651901673210114.5,1544392738888.7932,3534947266300.305,66655198956513.51,1713821526827979.0
9.0016409272409,1.0526092922390902e+16,1.5412604779560646e+16,1345261764427142.5,1674144380051476.2,1614925978624.6702,3696393933537.179,69699459799666.79,1792094932979303.5
9.281673745785717,1.0665637106229994e+16,1.5676359238010742e+16,1363095870266480.5,1696338475648361.2,1687735897617.2974,3863052087540.526,72841989978724.12,1872895007902039.5
9.567307220701432,1.080488520406622e+16,1.5942430632716258e+16,1380892135553749.2,1718485479635400.5,1762879161280.8215,4035051457530.238,76085235750364.6,1956284647091721.2
9.85865336511546,1.094384560349359e+16,1.6210896741908188e+16,1398651632245042.5,1740586726035022.0,1840413694249.8955,4212524656462.9365,79431697750720.88,2042328144033103.2
10.155826432417769,1.1082525587929982e+16,1.6481835400316754e+16,1416375291179939.2,1762643373253638.8,1920398698431.6655,4395607222423.727,82883931776005.92,2131091210256344.2
10.458942961066125,1.1220931394687456e+16,1.6755324595109872e+16,1434063909502975.5,1784656413317629.5,2002894671329.0217,4584437660641.894,86444549574909.56,2222640995694902.2
10.768121820287448,1.1359068268757102e+16,1.7031442556620478e+16,1451718157537523.5,1806626680427569.0,2087963424626.0903,4779157486110.136,90116219652382.11,2317046109335185.5
11.083484256693197,1.1496940512747214e+16,1.7310267844419916e+16,1469338585168004.5,1828554858900825.8,2175668103028.3723,4979911266790.011,93901668084476.72,2414376640149580.5
11.405153941827061,1.1634551533366142e+16,1.7591879429231602e+16,1486925627780532.8,1850441490564481.5,2266073203351.154,5186846667389.331,97803679343978.31,2514704178305718.0
11.733257020663602,1.177190388479755e+16,1.787635677112845e+16,1504479611806355.5,1872286981654052.5,2359244593851.0356,5400114493699.52,101825097136601.14,2618101836646309.5
12.067922161076874,1.1908999309279038e+16,1.816377989440828e+16,1522000759907934.0,1894091609267408.5,2455249533796.374,5619868737483.82,105968825247575.81,2724644272435040.5
12.409280604298411,1.2045838775162728e+16,1.8454229459502932e+16,1539489195843176.5,1915855527418188.5,2554156693273.818,5846266621909.77,110237828398506.78,2834407709365150.5
12.75746621638438,1.2182422512706424e+16,1.8747786832238056e+16,1556944949039638.0,1937578772728274.5,2656036173228.796,6079468647521.358,114635133114409.52,2947469959828503.5
13.112615540712067,1.2318750047819728e+16,1.9044534150731612e+16,1574367958907346.8,1959261269795022.8,2760959525738.9004,6319638638748.591,119163828600889.25,3063910447444125.5
13.474867851526309,1.2454820233965082e+16,1.9344554390188976e+16,1591758078915865.0,1980902836265031.8,2868999774520.2534,6566943790954.762,123827067631465.31,3183810229846003.0
13.844365208556836,1.2590631282395746e+16,1.9647931425827916e+16,1609115080458771.0,2002503187643401.0,2980231435667.5845,6821554718023.323,128628067445073.98,3307252021731225.5
14.221252512727972,1.2726180790892562e+16,1.995475009414653e+16,1626438656526275.8,2024061941864222.5,3094730538629.8467,7083645500488.753,133570110653838.66,3434320218170460.5
14.605677562982532,1.286146577114717e+16,2.0265096252724444e+16,1643728425204894.8,2045578623645819.2,3212574647423.9795,7353393734217.687,138656546161220.69,3565100918183684.5
14.997791114242183,1.2996482674923664e+16,2.0579056838734068e+16,1660983933020958.8,2067052668651664.2,3333842882090.59,7630980579648.579,143890790090711.5,3699681948585277.0
15.397746936527026,1.3131227419118872e+16,2.0896719926319e+16,1678204658143378.0,2088483427476138.8,3458615940395.7163,7916590811600.662,149276326725260.97,3838152888103333.0
15.805701875257567,1.3265695409828856e+16,2.1218174782986856e+16,1695390013459415.5,2109870169472271.0,3586976119784.25,8210412869664.072,154816709457682.3,3980605091779190.0
16.221815912762718,1.339988156552001e+16,2.1543511925148284e+16,1712539349536009.2,2131212086436998.8,3719007339591.148,8512638909186.215,160515561752294.53,4127131715654141.5
16.64625223101797,1.3533780339392692e+16,2.187282317292435e+16,1729651957477901.0,2152508296168048.5,3854795163517.513,8823464852870.396,166376578118128.84,4277827741751197.5
17.079177275638333,1.3667385741017148e+16,2.2206201704335188e+16,1746727071692750.8,2173757845905073.0,3994426822379.556,9143090443005.436,172403525094032.66,4432790003360776.5
17.5207608211511,1.3800691357314294e+16,2.254374210897122e+16,1763763872572558.8,2194959715666586.2,4137991237139.393,9471719294346.781,178600242246076.5,4592117210640234.0
17.97117603757412,1.3933690372946014e+16,2.2885540441244256e+16,1780761489099574.8,2216112821492954.2,4285579042227.1553,9809558947671.717,184970643177670.0,4755909976538138.0
18.430599558325603,1.406637559017381e+16,2.3231694273304004e+16,1797719001384307.0,2237216018604906.0,4437282609165.4375,10156820924033.19,191518716552868.1,4924270843054899.0
18.899211549492115,1.4198739448238948e+16,2.3582302747703604e+16,1814635443142334.2,2258268104485821.0,4593196070507.26,10513720779738.994,198248527133360.56,5097304307852907.0
19.37719578048196,1.4330774042311064e+16,2.3937466629888176e+16,1831509804115994.5,2279267821895519.0,4753415344100.144,10880478162085.162,205164216829692.2,5275116851229714.0
19.864739696091597,1.4462471142048386e+16,2.4297288360577092e+16,1848341032446434.8,2300213861822156.0,4918038157689.616,11257316865873.738,212270005767286.75,5457816963469245.0
20.36203449001343,1.459382220980737e+16,2.466187210810592e+16,1865128037000844.0,2321104866378443.0,5087164073876.125,11644464890748.533,219570193367903.06,5645515172586696.0
20.869275179813698,1.4724818418535914e+16,2.5031323820788652e+16,1881869689659243.5,2341939431647498.5,5260894515440.755,12042154499383.176,227069159447170.56,5838324072484028.0
21.38666068340997,1.485545066937991e+16,2.540575127935774e+16,1898564827564666.2,2362716110483120.5,5439332791055.436,12450622276558.184,234771365328905.94,6036358351533546.0
21.91439389707817,1.4985709609030398e+16,2.578526414953569e+16,1915212255340160.2,2383433415268808.5,5622584121394.667,12870109189166.646,242681354976944.94,6239734821608835.0
22.452681775019734,1.51155856468341e+16,2.616997403478896e+16,1931810747275552.8,2404089820639127.5,5810755665666.165,13300860647188.559,250803756145252.9,6448572447582061.0
23.00173541052013,1.5245068971687784e+16,2.6559994529311384e+16,1948359049486604.2,2424683766166723.0,6003956548579.648,13743126565677.35,259143281547139.12,6662992377308895.0
23.561770118730532,1.5374149568734238e+16,2.695544127128306e+16,1964855882048789.2,2445213659017762.5,6202297887772.305,14197161427803.293,267704730044403.16,6883117972122314.0
24.133005521105144,1.5502817235874466e+16,2.735643199644629e+16,1981299941107586.8,2465677876578127.0,6405892821712.004,14663224349000.34,276492987857309.22,7109074837858113.0
24.715665631527248,1.563106160010839e+16,2.7763086592039676e+16,1997689900966904.5,2486074769052425.5,6614856538098.982,15141579142265.611,285513029796305.75,7340990856435299.0
25.309978944157795,1.5758872133715374e+16,2.8175527151129736e+16,2014024416156947.2,2506402662037357.0,6829306302787.888,15632494384661.715,294769920516438.8,7578996218016183.0
25.91617852304095,1.5886238170281074e+16,2.859387802737509e+16,2030302123482498.5,2526659859070817.0,7049361489253.093,16136243485074.775,304268815795460.2,7823223453770922.0
26.53450209350177,1.6013148920578146e+16,2.901826589026017e+16,2046521644052544.5,2546844644157639.0,7275143608620.748,16653104753281.848,314014963836643.1,8073807469273298.0
27.165192135371807,1.613959348830471e+16,2.944881978083124e+16,2062681585291652.2,2566955284272766.5,7506776340291.605,17183361470384.525,324013706597368.25,8330885578554061.0
27.808495978079243,1.6265560885683296e+16,2.9885671167967628e+16,2078780542933574.0,2586990031842195.0,7744385563179.896,17727301960665.66,334270481144570.6,8594597538840130.0
28.464665897640828,1.6391040048921312e+16,3.0328954005219244e+16,2094817102997143.8,2606947127201950.5,7988099387593.814,18285219664929.273,344790821038155.25,8865085586008174.0
29.133959215593645,1.651601985353313e+16,3.0778804788240844e+16,2110789843744459.5,2626824801035005.0,8238048187783.934,18857413215383.496,355580357743554.0,9142494470781564.0
29.816638399905518,1.6640489129521916e+16,3.1235362612852236e+16,2126697337621166.0,2646621276785898.0,8494364635186.641,19444186512130.625,366644822074571.4,9426971495701406.0
30.51297116790363,1.6764436676418362e+16,3.169876923375259e+16,2142538153178462.2,2666334773052587.5,8757183732390.246,20045848801326.246,377990045667750.0,9718666552901648.0
31.223230591261704,1.6887851278172446e+16,3.216916912391664e+16,2158310856976272.8,2685963505954984.5,9026642847851.848,20662714755074.098,389621962489467.8,1.0017732162720486e+16
31.947695203086937,1.7010721717893274e+16,3.2646709534700416e+16,2174014015467061.0,2705505691479262.0,9302881751393.908,21295104553122.453,401546610377035.4,1.0324323513179256e+16
32.686649107148675,1.7133036792430928e+16,3.3131540556681424e+16,2189646196859428.0,2724959547797038.5,9586042650509.512,21943343966429.27,413770132615050.94,1.0638598500362058e+16
33.44038208929165,1.7254785326793636e+16,3.362381518126001e+16,2205205972960659.2,2744323297558383.5,9876270227506.268,22607764442666.09,426298779548334.4,1.0960717769728828e+16
34.20918973107749,1.7375956188392948e+16,3.4123689363047308e+16,2220691920997282.0,2763595170157532.0,10173711677519.055,23288703193729.03,439138910232730.3,1.12908447583956e+16
34.993373525699035,1.7496538301108092e+16,3.4631322083063804e+16,2236102625412547.0,2782773403969686.5,10478516747421.578,23986503285328.273,452296994125125.25,1.1629145738415584e+16
35.793240996213015,1.7616520659161406e+16,3.5146875412773828e+16,2251436679639725.5,2801856248557937.5,10790837775668.395,24701513728726.938,465779612814032.94,1.1975789861096304e+16
36.60910581613728,1.7735892340795006e+16,3.567051457897941e+16,2266692687850038.5,2820841966848466.0,11110829733097.842,25434089574702.152,479593461792092.5,1.2330949202386038e+16
37.44128793246003,1.785464252173913e+16,3.620240802959807e+16,2281869266673933.0,2839728837272652.5,11438650264727.604,26184592009799.945,493745352271852.5,1.2694798809366046e+16
38.29011369110923,1.7972760488461972e+16,3.674272750034729e+16,2296965046894468.0,2858515155874420.5,11774459732574.428,26953388454957.81,508242213046235.0,1.3067516747882708e+16
39.15591596493141,1.809023565119065e+16,3.729164808235972e+16,2311978675111379.0,2877199238381181.5,12118421259529.516,27740852666568.473,523091092395047.6,1.3449284151355278e+16
40.03903428423004,1.8207057556692244e+16,3.784934829075147e+16,2326908815374605.0,2895779422236647.0,12470700774321.494,28547364840057.703,538299160038945.25,1.3840285270794674e+16
40.93981496991464,1.832321590080497e+16,3.8416010134168984e+16,2341754150785714.5,2914254068593823.5,12831467057598.94,29373311716050.977,553873709142234.2,1.4240707526068642e+16
41.85861126931294,1.84387005407073e+16,3.899181918533298e+16,2356513385065985.0,2932621564266420.5,13200891789163.854,30219086689202.125,569822158365908.4,1.465074155844898e+16
42.7957834946992,1.8553501506915204e+16,3.957696465260643e+16,2371185244089698.0,2950880323636991.5,13579149596388.213,31085089919757.984,586152053972300.8,1.507058128447601e+16
