t(s),Total solute volume 1,Total retention volume 1,Total 1 volume 1,Total 2 volume 1,Total 3 volume 1,Total 4 volume 1,Total 5 volume 1,Total 6 volume 1
0.1,1198922522623410.5,1797285705327306.5,247551059597552.8,350812123106343.5,0.0,0.0,0.0,0.0
0.202,1790580335001588.8,2720096561675598.0,369715353564383.2,523934875276432.06,15697620693.270437,43877401559.01882,1115526836245.802,34690895974698.688
0.30604000000000003,2231234455657859.0,3435160332847109.0,460700712837038.75,652872998971789.2,39512165363.29725,110443266000.53204,2808103177465.7383,87394106771592.61
0.41216080000000005,2595378982441148.5,4049972865362615.0,535888527901520.4,759423940879726.8,69631746330.2265,194633005810.24753,4948855720294.65,154068293667781.94
0.5204040160000001,2911236496133607.5,4604850966439729.0,601106139516351.2,851845803829121.9,105188049230.60191,294019563821.4322,7476058039067.876,232787261308523.72
0.6308120963200001,3192976621989762.0,5119851734687238.0,659279262874905.8,934284708057602.8,145664055329.51907,407157821173.61774,10352960674674.326,322405359213792.06
0.7434283382464002,3448891551994172.0,5606620897579703.0,712120052778689.9,1009167000298816.5,190716922370.6288,533089513743.1094,13555196112936.238,422163289958972.75
0.8582969050113283,3684327621298273.5,6072619174604996.0,760732409545736.8,1078057051307038.4,240104645607.8542,671138236410.4866,17065564793319.676,531525284778609.94
0.9754628431115548,3902970867736004.0,6522965922772618.0,805877418707296.8,1142033418555642.2,293649634766.1319,820807634394.2651,20871445867639.617,650098314636882.6
1.094972099973786,4107490952657141.5,6961357800072640.0,848106306462173.4,1201877261466147.0,351218369030.72205,981724535579.4576,24963350982884.47,777586985599687.4
1.2168715419732616,4299895853107799.5,7390572197744203.0,887833675791156.0,1258176126537907.5,412709053685.6433,1153604448854.8354,29334046884418.453,913766181920386.1
1.3412089728127268,4481741738207979.5,7812763621072203.0,925380841301155.5,1311385358475844.0,478043656995.5087,1336229305979.8176,33977989389724.445,1058463420734528.5
1.4680331522689813,4654264307588621.0,8229648238314392.0,961002947716353.8,1361866530630091.0,547162523246.11475,1529432404248.9846,38890940484332.74,1211546916967499.8
1.597393815314361,4818464768715880.0,8642624101007916.0,994906722299807.5,1409912602493160.5,620020588344.4711,1733087828577.2285,44069699331113.05,1372917199751025.5
1.729341691620648,4975168244616192.0,9052852424241282.0,1027262534760709.1,1455765010161630.0,696584638375.1942,1947102788820.5618,49511907414148.336,1542501039861402.5
1.863928525453061,5125064703400817.0,9461314279188084.0,1058212848298648.5,1499625642568223.0,776831272621.3795,2171411926191.5737,55215903756266.81,1720246937965321.2
2.001207095962122,5268738406699616.0,9868851198784832.0,1087878300055840.2,1541665458275696.0,860745357472.287,2405972991784.8955,61180615028754.29,1906121700375668.8
2.1412312378813647,5406689584253917.0,1.0276194934169026e+16,1116362176442561.0,1582030827596719.0,948318831581.1168,2650763506905.4673,67405470627729.52,2100107792909613.2
2.284055862638992,5539350705131348.0,1.0683989699850162e+16,1143753772784225.8,1620848293651978.0,1039549768165.6731,2905778142154.935,73890336028008.39,2302201264344289.0
2.4297369798917723,5667098906319024.0,1.1092809098200586e+16,1170130959551812.0,1658228209053397.2,1134441629343.8643,3171026633288.942,80635459786591.5,2512410095227138.5
2.578331719489608,5790265633022629.0,1.1503169198242166e+16,1195562172871014.5,1694267556715236.2,1233002666415.975,3446532105022.001,87641430919866.5,2730752869941996.0
2.7298983538794,5909144219212141.0,1.1915538784640078e+16,1220107979737804.8,1729052167968662.8,1335245432804.903,3732329709732.711,94909144288396.16,2957257698290528.5
2.884496320956988,6023995922087015.0,1.2330347490888156e+16,1243822324002389.2,1762658488283544.5,1441186385176.0508,4028465512648.8555,102439772249411.0,3191961332367952.5
3.0421862473761276,6135054779234750.0,1.274799232762923e+16,1266753529265364.2,1795154998503092.5,1550845554447.3062,4334995572390.1265,110234741277017.33,3434908438222192.5
3.2030299723236504,6242531557575279.0,1.316884297775832e+16,1288945114247649.2,1826603370329406.0,1664246272825.4233,4651985178118.048,118295712564732.4,3686150991590314.0
3.3670905717701234,6346616993361155.0,1.3593246132655108e+16,1310436461779063.5,1857059414367526.0,1781414946223.122,4979508213536.352,126624565853664.94,3945747774133943.0
3.5344323832055258,6447484472791061.0,1.402152907480674e+16,1331263372285926.0,1886573864489559.0,1902380863784.782,5317646624620.701,135223385898398.7,4213763951853380.5
3.7051210308696363,6545292266869099.0,1.4454002662289546e+16,1351458525240183.8,1915193031768280.8,2027176038023.9358,5666489972918.174,144094451108804.03,4490270721292244.5
3.879223451487029,6640185407822802.0,1.4890963834202282e+16,1371051866598391.0,1942959353528668.2,2155835070419.5015,6026135060013.269,153240224001518.56,4775345012120471.0
4.0568079205167695,6732297274869353.0,1.5332697729230046e+16,1390070936227430.5,1969911857352894.2,2288395038346.3574,6396685611632.162,162663343167952.78,5069069236962405.0
4.237944078927105,6821750942467186.0,1.5779479489376408e+16,1408541146288756.2,1996086555587059.2,2424895400011.823,6778252012082.455,172366616522261.88,5371531081099046.0
4.422702960505647,6908660333076615.0,1.6231575805664044e+16,1426486019258038.2,2021516782646102.2,2565377914691.281,7170951081462.25,182353015636889.44,5682823326050236.0
4.61115701971576,6993131207939372.0,1.668924625096239e+16,1443927392499275.0,2046233484922005.2,2709886576045.914,7574905889442.283,192625671008118.44,6003043702128126.0
4.803380160110075,7075262022803642.0,1.7152744436124116e+16,1460885594953174.5,2070265471174224.0,2858467556694.9175,7990245600512.825,203187868121739.9,6332294765914133.0
4.9994477633122765,7155144670388005.0,1.7622319018630154e+16,1477379600439552.2,2093639629779218.5,3011169162526.2773,8417105346458.406,214043044211091.84,6670683799303319.0
5.199436718578522,7232865127341113.0,1.8098214587467816e+16,1493427161240259.5,2116381118034882.5,3168041795481.626,8855626122526.072,225194785617608.62,7018322727315965.0
5.403425452950093,7308504020257437.0,1.858067244364215e+16,1509044924968934.2,2138513527780210.0,3329137923754.9575,9305954704324.416,236646825678529.88,7375328052328960.0
5.611493962009095,7382137122758482.0,1.906993129227871e+16,1524248537207326.8,2160059030844349.0,3494512058511.803,9768243582955.934,248403043078282.3,7741820802748814.0
5.823723841249277,7453835793600934.0,1.9566227859520556e+16,1539052731964967.2,2181038507239766.5,3664220736372.8916,10242650916270.686,260467460609801.6,8117926494452485.0
6.040198318074262,7523667364117860.0,2.0069797445199508e+16,1553471411677227.5,2201471658529904.2,3838322507019.5596,10729340494444.328,272844244300137.38,8503775103572896.0
6.261002284435747,7591695481953040.0,2.058087442046083e+16,1567517718178866.0,2221377108408003.0,4016877925372.8193,11228481718349.43,285537702861375.25,8899501049415795.0
6.486222330124463,7657980416948760.0,2.1099692678052704e+16,1581204095863146.2,2240772492201727.5,4199949547876.521,11740249589407.848,298552287433531.94,9305243186468232.0
6.715946776726952,7722579334142866.0,2.162648604178591e+16,1594542348049667.2,2259674536753811.0,4387601932481.647,12264824709797.781,311892591590774.4,9721144804606508.0
6.950265712261491,7785546538083863.0,2.2161488640678704e+16,1607543687430086.5,2278099131910176.0,4579901641984.135,12802393292045.059,325563351586278.6,1.0147353636734248e+16
7.18927102650672,7846933692053256.0,2.2704935252480412e+16,1620218781332651.5,2296061394665700.0,4776917250416.545,13353147177160.535,339569446814438.4,1.0584021873186772e+16
7.433056447036854,7906790015266757.0,2.3257061620584396e+16,1632577792439939.5,2313575726866549.0,4978719352233.425,13917283860597.766,353915900471942.5,1.1031306182326394e+16
7.681717575977592,7965162460693508.0,2.381810474777059e+16,1644630415504592.8,2330655867241167.0,5185380574065.398,14495006525401.896,368607880401742.94,1.148936773683016e+16
7.935351927497144,8022095875768415.0,2.4388303169739864e+16,1656385910532855.8,2347314938425695.5,5396975588845.82,15086524082002.172,383650700105984.9,1.195837224523606e+16
8.194058966047088,8077633147964907.0,2.4967897210999424e+16,1667853132842172.2,2363565489559452.0,5613581132139.635,15692051214172.63,399049819915805.4,1.2438489988370772e+16
8.45794014536803,8131815336935589.0,2.5557129225319444e+16,1679040560345276.0,2379419534950115.5,5835276020525.918,16311808430745.645,414810848307454.3,1.29298958603297e+16
8.72709894827539,8184681794706156.0,2.6156243822690136e+16,1689956318367626.5,2394888589243228.0,6062141171904.249,16946022122717.145,430939543355534.44,1.343276941372301e+16
9.0016409272409,8236270275219420.0,2.67654880844661e+16,1700608202265801.2,2409983699475389.5,6294259627612.47,17594924625427.79,447441814315353.06,1.3947294908937128e+16
9.281673745785717,8286617034363949.0,2.73851117681713e+16,1711003698081211.8,2424715474343314.5,6531716576256.432,18258754285545.402,464323723327377.5,1.4473661367193698e+16
9.567307220701432,8335756921483080.0,2.801536750326317e+16,1721150001434705.2,2439094110979917.0,6774599379166.435,18937755532608.047,481591487237716.75,1.501206262721598e+16
9.85865336511546,8383723463240242.0,2.8656510978994824e+16,1731054034842904.2,2453129419493814.5,7022997597404.931,19632178954920.18,499251479529294.9,1.5562697405336216e+16
10.155826432417769,8430548940612894.0,2.9308801125386548e+16,1740722463615746.0,2466830845498232.5,7277003020260.55,20342281379618.53,517310232359121.56,1.6125769358900674e+16
10.458942961066125,8476264459697587.0,2.997250028819887e+16,1750161710476174.0,2480207490829010.0,7536709695171.756,21068325956752.54,535774438697647.3,1.6701487152846554e+16
10.768121820287448,8520900016931203.0,3.0647874398702908e+16,1759377969026876.0,2493268132628712.0,7802213959031.236,21810582247240.28,554650954566732.9,1.7290064529343096e+16
11.083484256693197,8564484559264718.0,3.133519313895524e+16,1768377216174860.8,2506021240953878.5,8073614470828.859,22569326314585.86,573946801373273.8,1.7891720380403072e+16
11.405153941827061,8607046039767429.0,3.2034730103212308e+16,1777165223612474.8,2518474995045141.0,8351012245596.703,23344840820254.895,593669168335913.9,1.8506678823385476e+16
11.733257020663602,8648611469087040.0,3.2746762956050316e+16,1785747568442807.0,2530637298384777.5,8634510689625.854,24137415122624.77,613825415002665.5,1.9135169279320744e+16
12.067922161076874,8689206963145587.0,3.3471573587701844e+16,1794129643027828.0,2542515792652811.5,8924215636928.53,24947345379436.793,634423073857656.9,1.9777426554001572e+16
12.409280604298411,8728857787411474.0,3.4209448267069772e+16,1802316664129572.5,2554117870681307.5,9220235386924.156,25774934653690.89,655469853015425.1,2.0433690921791372e+16
12.75746621638438,8767588398052039.0,3.4960677792834332e+16,1810313681407267.8,2565450688495833.0,9522680743331.137,26620493022933.863,676973639001568.8,2.1104208212111412e+16
13.112615540712067,8805422480240305.0,3.572555764303141e+16,1818125585326821.0,2576521176524299.0,9831665054250.854,27484337691901.973,698942499618725.9,2.1789229898575064e+16
13.474867851526309,8842382983862043.0,3.650438812344449e+16,1825757114533539.8,2587336050045019.0,10147304253431.533,28366793108487.543,721384686897148.5,2.2489013190744796e+16
13.844365208556836,8878492156844219.0,3.729747451512588e+16,1833212862733707.5,2597901818938838.5,10469716902705.049,29268191083008.06,744308640129276.1,2.3203821128494084e+16
14.221252512727972,8913771576305045.0,3.810512722133109e+16,1840497285126412.8,2608224796803840.5,10799024235589.814,30188870910762.406,767722988987957.5,2.3933922678961588e+16
14.605677562982532,8948242177705838.0,3.892766191413292e+16,1847614704422735.8,2618311109485344.5,11135350202057.285,31129179497865.754,791636556728114.8,2.467959283609103e+16
14.997791114242183,8981924282167860.0,3.976539968095428e+16,1854569316486085.0,2628166703068982.0,11478821514460.598,32089471490362.37,816058363471772.8,2.544111272275479e+16
15.397746936527026,9014837622102122.0,4.061866717124743e+16,1861365195624196.0,2637797351380154.0,11829567694626.291,33070109406618.34,840997629576609.1,2.6218769695463116e+16
15.805701875257567,9047001365286226.0,4.148779674352434e+16,1868006299560446.8,2647208663029022.5,12187721122111.666,34071463773004.285,866463779088160.1,2.7012857451665252e+16
16.221815912762718,9078434137509690.0,4.23731266129318e+16,1874496474109641.0,2656406088036732.0,12553417083632.424,35093913262880.7,892466443276109.2,2.7823676139653136e+16
16.64625223101797,9109154043898944.0,4.3275000999553336e+16,1880839457581118.0,2665394924075174.0,12926793823666.574,36137844838903.75,919015464255078.0,2.865153247108037e+16
17.079177275638333,9139178689022266.0,4.419377027760223e+16,1887038884930044.8,2674180322349872.5,13307992596241.186,37203653898674.93,946120898690468.0,2.9496739836114616e+16
17.5207608211511,9168525195867020.0,4.512979112566822e+16,1893098291675681.8,2682767293152753.5,13697157717912.14,38291744423757.72,973793021590047.0,3.035961842124111e+16
17.97117603757412,9197210223772092.0,4.60834266781637e+16,1899021117604167.0,2691160711109431.0,14094436621945.227,39402529132092.99,1002042330181994.6,3.124049532974187e+16
18.430599558325603,9225249985393414.0,4.705504667811022e+16,1904810710271419.8,2699365320143232.5,14499979913711.002,40536429633844.26,1030879547880250.0,3.2139704704874424e+16
18.899211549492115,9252660262770908.0,4.804502763140214e+16,1910470328320689.0,2707385738176696.0,14913941427304.791,41693876590708.89,1060315628338075.2,3.305758785577772e+16
19.37719578048196,9279456422562448.0,4.905375296266807e+16,1916003144627950.8,2715226461588927.5,15336478283405.375,42875309878734.87,1090361759590821.0,3.399449338613575e+16
19.864739696091597,9305653430502216.0,5.008161317285739e+16,1921412249287308.5,2722891869446328.5,15767750948386.775,44081178754681.33,1121029368288922.6,3.495077732562955e+16
20.36203449001343,9331265865138036.0,5.1129005998663896e+16,1926700652447413.0,2730386227522197.5,16207923294697.553,45311942025970.9,1152330124022293.2,3.5926803264213324e+16
20.869275179813698,9356307930896928.0,5.2196336573898584e+16,1931871287009215.0,2737713692119752.0,16657162662524.193,46568068224277.7,1184275943737263.0,3.692294248924863e+16
21.38666068340997,9380793470523794.0,5.328401759291887e+16,1936927011194301.0,2744878313711823.0,17115639922755.188,47850035782799.945,1216878996247285.8,3.793957412553618e+16
21.91439389707817,9404735976935798.0,5.4392469476217864e+16,1941870610992542.2,2751884040409472.0,17583529541263.217,49158333217268.766,1250151706838806.5,3.897708527828278e+16
22.452681775019734,9428148604529952.0,5.552212053827359e+16,1946704802496843.2,2758734721270677.0,18061009644523.76,50493459310746.67,1284106761973524.2,4.0035871179047336e+16
23.00173541052013,9451044179979886.0,5.667340715775482e+16,1951432234132470.8,2765434109459547.0,18548262086589.215,51855923302270.13,1318757114088568.5,4.111633533470546e+16
23.561770118730532,9473435212554158.0,5.784677395017941e+16,1956055488787556.5,2771985865265501.0,19045472517438.125,53246245079392.93,1354115986495942.2,4.2218889679479416e+16
24.133005521105144,9495333903986356.0,5.904267394311682e+16,1960577085851033.0,2778393558991348.0,19552830452720.04,54664955374692.336,1390196878382862.8,4.334395473007772e+16
24.715665631527248,9516752157924648.0,6.026156875402489e+16,1964999483163765.2,2784660673718243.5,20070529344916.36,56112595966295.12,1427013569914423.8,4.449195974399256e+16
25.309978944157795,9537701588986562.0,6.150392877081173e+16,1969325078888165.8,2790790607955195.0,20598766655939.855,57589719882488.63,1464580127440300.2,4.566334288100312e+16
25.91617852304095,9558193531442636.0,6.2770233335207096e+16,1973556213301196.5,2796786678179999.0,21137743931193.82,59096891610482.55,1502910908807037.2,4.685855136793466e+16
26.53450209350177,9578239047551380.0,6.406097092903141e+16,1977695170515296.5,2802652121277981.0,21687666875114.098,60634687309383.25,1542020568777715.0,4.807804166672448e+16
27.165192135371807,9597848935565184.0,6.537663936344569e+16,1981744180131494.2,2808390096884712.5,22248745428217.95,62203695027453.59,1581924064560621.8,4.932227964584804e+16
27.808495978079243,9617033737426800.0,6.671774597126905e+16,1985705418828515.2,2814003689637951.5,22821193845682.027,63804514923726.05,1622636661448796.2,5.059174075515763e+16
28.464665897640828,9635803746173642.0,6.808480780244331e+16,1989581011891640.0,2819495911344221.0,23405230777475.93,65437759494036.95,1664173938572201.2,5.188691020419011e+16
29.133959215593645,9654169013066116.0,6.947835182272956e+16,1993373034684510.5,2824869703064627.5,24001079350073.92,67104053801561.27,1706551794764390.0,5.320828314399832e+16
29.816638399905518,9672139354455420.0,7.089891511571837e+16,1997083514067206.8,2830127937124364.5,24608967249772.203,68804035711915.95,1749786454545575.5,5.455636485256416e+16
30.51297116790363,9689724358404504.0,7.234704508823509e+16,2000714429763304.2,2835273419050074.5,25229126807636.38,70538356132910.95,1793894474224055.2,5.593167092385244e+16
31.223230591261704,9706933391075696.0,7.382329967922053e+16,2004267715678828.5,2840308889438931.0,25861795086106.453,72307679259024.44,1838892748117899.0,5.733472746056407e+16
31.947695203086937,9723775602897062.0,7.53282475721707e+16,2007745261175404.8,2845237025762905.5,26507213967285.07,74112682820681.38,1884798514898982.2,5.87660712706483e+16
32.686649107148675,9740259934518774.0,7.686246841121286e+16,2011148912300165.0,2850060444111711.5,27165630242937.56,75954058338415.1,1931629364061374.2,6.022625006763948e+16
33.44038208929165,9756395122570470.0,7.842655302090325e+16,2014480472974496.2,2854781700877332.0,27837295706230.82,77832511381994.67,1979403242516147.0,6.1715822674876616e+16
34.20918973107749,9772189705229032.0,8.002110362982341e+16,2017741706143663.8,2859403294383283.0,28522467245239.668,79748761834597.81,2028138461314818.5,6.3235359233672776e+16
34.993373525699035,9787652027606506.0,8.16467340980586e+16,2020934334889325.2,2863927666461131.0,29221406938249.492,81703544162120.78,2077853702503467.0,6.47854414154977e+16
35.793240996213015,9802790246966962.0,8.330407014864011e+16,2024060043506629.0,2868357203976932.5,29934382150883.656,83697607687704.47,2128568026109804.8,6.636666263824115e+16
36.60910581613728,9817612337779438.0,8.4993749603031e+16,2027120478547633.2,2872694240309799.5,30661665635086.48,85731716871566.88,2180300877265370.2,6.797962828662191e+16
37.44128793246003,9832126096616240.0,8.671642262073771e+16,2030117249832591.8,2876941056785172.5,31403535629990.484,87806651596231.75,2233072093465215.0,6.962495593681237e+16
38.29011369110923,9846339146901970.0,8.847275194313307e+16,2033051931430623.8,2881099884064404.5,32160275964700.242,89923207457241.36,2286901911967262.5,7.130327558534681e+16
39.15591596493141,9860258943521524.0,9.026341314156586e+16,2035926062611074.0,2885172903493066.0,32932176163021.254,92082196059449.6,2341810977333753.0,7.301522988238413e+16
40.03903428423004,9873892777291972.0,9.208909486984938e+16,2038741148766946.0,2889162248409528.5,33719531550167.727,94284445318979.88,2397820349117161.0,7.476147436939437e+16
40.93981496991464,9887247779305858.0,9.395049912120382e+16,2041498662311595.2,2893070005415671.0,34522643361479.125,96530799770950.69,2454951509692895.5,7.654267772134533e+16
41.85861126931294,9900330925149500.0,9.584834148974211e+16,2044200043549819.0,2896898215611392.5,35341818853178.984,98822120883063.3,2513226372241401.0,7.835952199345368e+16
42.7957834946992,9913149039003498.0,9.778335143658208e+16,2046846701524444.0,2900648875794314.5,36177371415207.586,101159287375141.05,2572667288881945.5,8.021270287258768e+16
