t(s),Total solute volume 1,Total retention volume 1,Total 1 volume 1,Total 2 volume 1,Total 3 volume 1,Total 4 volume 1,Total 5 volume 1,Total 6 volume 1
0.1,898666397951953.1,1036126891881881.2,66325422320955.914,71135071608968.8,0.0,0.0,0.0,0.0
0.202,1166176115052313.0,1737573392958392.0,86068783377497.58,92310141337241.2,746794341446.8262,1360620166879.8125,18206886214327.812,372704052468684.0
0.30604000000000003,1301360133334691.5,2386036508440150.5,96045941962276.34,103010802984790.33,1682548949720.992,3066534151156.7295,41035332984641.18,839835214072872.6
0.41216080000000005,1383181051434178.5,3020350396075354.0,102084675576306.3,109487441058140.33,2708031424542.8687,4937201132699.478,66069618159862.29,1351882377289625.2
0.5204040160000001,1437930899737091.2,3653050831924668.5,106125448487064.19,113821234427414.86,3789434482831.098,6911167785805.561,92487531493417.25,1891985115511043.5
0.6308120963200001,1477057173624589.5,4289688640236939.5,109013134801688.33,116918324040915.17,4912203836374.435,8962027705592.477,119935817928116.34,2452889958299662.0
0.7434283382464002,1506365595134068.8,4933222826036880.0,111176221630877.16,119238269155034.89,6069221468310.384,11076913667459.656,148242389291139.5,3031054215689986.0
0.8582969050113283,1529115426068812.0,5585449277865012.0,112855256431794.92,121039060751957.77,7256738021776.167,13249094219351.803,177317262151540.25,3624616440219780.0
0.9754628431115548,1547276090309929.5,6247572706795109.0,114195591107830.9,122476591065064.14,8472706067886.32,15474940146192.064,207111967351698.84,4232564820746503.0
1.094972099973786,1562106413958420.5,6920469709054954.0,115290132407809.73,123650504063506.27,9716010723154.057,17752524224734.344,237600813982425.84,4854353309694896.0
1.2168715419732616,1574447655712834.5,7604822556279978.0,116200968820806.62,124627390641614.14,10986081763521.723,20080915363378.035,268771444671271.28,5489708099306552.0
1.3412089728127268,1584882773140366.5,8301192662904427.0,116971125107947.98,125453395541608.33,12282684213128.635,22459797604009.387,300619737742166.06,6138523149555202.0
1.4680331522689813,1593828094321767.8,9010063455237278.0,117631328061775.66,126161473738362.47,13605798899740.15,24889252889496.695,333146900677456.2,6800800606648690.0
1.597393815314361,1601588624208408.5,9731866655781756.0,118204088351880.16,126775768283908.1,14955551175924.578,27369631512735.082,366357736828852.25,7476615255420057.0
1.729341691620648,1608392751743148.0,1.046699907861936e+16,118706262058822.16,127314357593397.9,16332166743203.932,29901471909250.4,400259572390104.2,8166092496181431.0
1.863928525453061,1614414772287060.8,1.1215833745447812e+16,119150712925527.67,127791038236224.3,17735943380498.137,32485449409532.13,434861570882104.44,8869394258326880.0
2.001207095962122,1619789931507606.0,1.1978727470157288e+16,119547422660562.11,128216515753979.5,19167232346361.297,35122342610247.266,470174283402221.25,9586709741876280.0
2.1412312378813647,1624624730322176.2,1.2756026174384522e+16,119904251487024.3,128599220361270.19,20626425851053.617,37813010804354.016,506209346860795.4,1.0318249188697856e+16
2.284055862638992,1629004141963724.8,1.3548068703124974e+16,120227470792850.17,128945878221658.84,22113948442134.855,40558378545204.26,542979277686872.25,1.1064239607472542e+16
2.4297369798917723,1632996766886752.5,1.4355189623779934e+16,120522143584918.95,129261919490757.64,23630250974599.33,43359424925704.08,580497328636344.5,1.1824921789280834e+16
2.578331719489608,1636658580061953.5,1.5177721320902678e+16,120792401055415.86,129551774938063.17,25175806324692.22,46217176042151.984,618777388225153.1,1.260054819425525e+16
2.7298983538794,1640035698449565.8,1.601599559333558e+16,121041646833204.28,129819095009806.81,26751106302791.934,49132699651646.67,657833909526090.1,1.3391381437562464e+16
2.884496320956988,1643166454294536.2,1.6870344893555556e+16,121272710001870.56,130066913943251.27,28356659405119.457,52107101367612.2,697681859559161.9,1.4197693194983998e+16
3.0421862473761276,1646082968694241.0,1.774110330567416e+16,121487961235752.47,130297774324428.88,29992989161427.93,55141521951705.125,738336683365093.5,1.5019763406941512e+16
3.2030299723236504,1648812360151551.5,1.8628607329803396e+16,121689401996321.11,130513822752686.05,31660632912109.848,58237135399250.78,779814278710085.5,1.585787969788139e+16
3.3670905717701234,1651377682943195.8,1.953319652109322e+16,121878733787780.58,130716884118416.4,33360140898667.26,61395147607328.27,822130978600458.1,1.6712336953137374e+16
3.5344323832055258,1653798663041624.2,2.0455214018409276e+16,122057412471247.61,130908519855885.75,35092075585502.977,64616795476551.945,865303539614679.0,1.758343701236379e+16
3.7051210308696363,1656092280631188.8,2.1395006988305344e+16,122226691256934.31,131090074053033.1,36857011154254.51,67903346339973.195,909349134627164.5,1.8471488450242748e+16
3.879223451487029,1658273235165538.0,2.2352927003343204e+16,122387655027377.12,131262710263680.75,38655533128035.95,71256097641927.33,954285348891791.0,1.937680642322487e+16
4.0568079205167695,1660354319619565.5,2.3329330369071804e+16,122541247958826.34,131427441131915.69,40488238094300.305,74676376810332.14,1000130178729741.4,2.0299712566727144e+16
4.237944078927105,1662346723909345.5,2.4324578410526708e+16,122688295914936.8,131585152409678.81,42355733503114.29,78165541280664.81,1046902032263396.1,2.124053493124557e+16
4.422702960505647,1664260282597103.5,2.5339037726574104e+16,122829524728454.9,131736622564166.88,44258637523451.56,81724978640450.48,1094619731779833.8,2.2199607948740656e+16
4.61115701971576,1666103678428662.8,2.637308041853353e+16,122965575223149.69,131882538889093.0,46197578944339.445,85356106870812.73,1143302517410850.5,2.317727242276663e+16
4.803380160110075,1667884610600668.2,2.742708429809603e+16,123097015632656.67,132023510824093.75,48173197110800.78,89060374667306.58,1192970051892349.8,2.417387553736816e+16
4.9994477633122765,1669609934668882.2,2.850143307847625e+16,123224351926305.23,132160081029344.56,50186141886837.42,92839261826475.11,1243642426222341.8,2.5189770880916036e+16
5.199436718578522,1671285779506876.2,2.959651655191383e+16,123348036441173.88,132292734643576.42,52237073639423.06,96694279687714.77,1295340166078987.8,2.622531848191606e+16
5.403425452950093,1672917645579677.0,3.0712730756003424e+16,123468475135100.89,132421907063046.19,54326663238766.35,100626971622418.0,1348084238892058.8,2.7280884854472348e+16
5.611493962009095,1674510487916763.8,3.18504781308372e+16,123586033710450.45,132547990509371.64,56455592071098.73,104638913564176.14,1401896061485407.8,2.835684305157997e+16
5.823723841249277,1676068786487945.8,3.301016766855535e+16,123701042808151.05,132671339600222.05,58624552060982.74,108731714575211.86,1456797508226697.0,2.9453572724796172e+16
6.040198318074262,1677596606154458.2,3.4192215056594876e+16,123813802432343.62,132792276094823.8,60834245700724.47,112907017445281.6,1512810919635011.2,3.057146018913221e+16
6.261002284435747,1679097647951051.2,3.5397042815681184e+16,123924585735218.81,132911092953257.69,63085386084913.766,117166499320127.56,1569959111408157.2,3.1710898492228444e+16
6.486222330124463,1680575293125698.0,3.662508043341427e+16,124033642267335.52,133028057822477.98,65378696948469.875,121511872357206.78,1628265383840298.8,3.2872287487052724e+16
6.715946776726952,1682032641102248.5,3.787676449414104e+16,124141200779427.08,133143416041295.1,67714912706833.9,125944884406942.27,1687753531607406.5,3.4056033907496976e+16
6.950265712261491,1683472542322482.8,3.9152538805681256e+16,124247471646286.16,133257393240028.5,70094778497169.76,130467319718150.45,1748447853903583.2,3.5262551446353616e+16
7.18927102650672,1684897626756315.8,4.045285452336541e+16,124352648970937.77,133370197597269.2,72519050219595.5,135080999666618.4,1810373164915664.5,3.649226083523905e+16
7.433056447036854,1686310328733499.2,4.177817027176364e+16,124456912417326.84,133482021805463.08,74988494577603.94,139787783506076.61,1873554804627123.2,3.774558992609657e+16
7.681717575977592,1687712908640276.5,4.312895226440781e+16,124560428811624.28,133593044788339.17,77503889116931.34,144589569141012.62,1938018649945048.0,3.902297377396457e+16
7.935351927497144,1689107471935007.8,4.4505674421753736e+16,124663353545659.75,133703433206112.55,80066022262217.34,149488293920952.0,2003791126146468.0,4.0324854720737304e+16
8.194058966047088,1690495985863301.0,4.590881848758036e+16,124765831810571.39,133813342778594.86,82675693350862.38,154485935455967.2,2070899218642067.0,4.165168247967895e+16
8.45794014536803,1691880294193113.8,4.7338874143979656e+16,124867999684318.19,133922919451567.22,85333712663541.0,159584512453296.56,2139370485057090.5,4.300391422047668e+16
8.72709894827539,1693262130240318.5,4.87963391250582e+16,124969985093023.61,134032300427836.66,88040901450867.84,164786085575047.1,2209233067630463.5,4.4382014654640696e+16
9.0016409272409,1694643128414142.8,5.028171932943839e+16,125071908663077.3,134141615081129.98,90798091955745.3,170092758317032.5,2280515705934313.0,4.578645612107299e+16
9.281673745785717,1696024834477457.0,5.1795528931622936e+16,125173884478389.2,134250985768259.83,93606127430944.8,175506677908880.5,2353247749917080.0,4.721771867164189e+16
9.567307220701432,1697408714688320.8,5.333829049226294e+16,125276020755072.98,134360528552733.89,96465862151493.0,181030036235576.03,2427459173274202.0,4.8676290156605576e+16
9.85865336511546,1698796163965043.8,5.491053506735104e+16,125378420444065.06,134470353851073.06,99378161421443.72,186665070780680.6,2503180587151031.5,5.016266630973764e+16
10.155826432417769,1700188513197035.5,5.651280231634021e+16,125481181770694.62,134580567011509.06,102343901574631.55,192414065591496.12,2580443254183319.5,5.16773508330115e+16
10.458942961066125,1701587035806481.0,5.814564060917858e+16,125584398718964.38,134691268833383.14,105363969969006.42,198279352266475.34,2659279102881235.5,5.322085548070293e+16
10.768121820287448,1702992953651611.0,5.98096071322308e+16,125688161467235.6,134802556034426.1,108439264974150.12,204263310965230.22,2739720742363193.5,5.479370014277494e+16
11.083484256693197,1704407442350036.8,6.1505267993048696e+16,125792556781115.73,134914521672134.95,111570695951580.39,210368371441496.7,2821801477446377.0,5.6396412927405976e+16
11.405153941827061,1705831636090283.8,6.323319832393741e+16,125897668368566.95,135027255524633.94,114759183227449.42,216597014099459.03,2905555324101237.0,5.80295302425258e+16
11.733257020663602,1707266631990664.0,6.499398238425715e+16,126003577201612.52,135140844435708.55,118005658057237.36,222951771073838.7,2991017025277562.5,5.969359687622048e+16
12.067922161076874,1708713494057186.5,6.678821366138698e+16,126110361808445.02,135255372628097.86,121311062582044.16,229435227334201.84,3078222067110117.0,6.138916607586679e+16
12.409280604298411,1710173256785520.2,6.861649497026919e+16,126218098539268.47,135370921988612.5,124676349776073.03,236050021813922.47,3167206695512150.5,6.31167996258537e+16
12.75746621638438,1711646928446548.0,7.047943855144349e+16,126326861808785.02,135487572328207.03,128102483384902.89,242798848564292.78,3258007933165541.5,6.4877067923745176e+16
13.112615540712067,1713135494090143.5,7.237766616747086e+16,126436724317887.64,135605401619747.8,131590437854135.95,249684457934256.7,3350663596916315.0,6.6670550054738424e+16
13.474867851526309,1714639918297639.8,7.43118091976416e+16,126547757256802.69,135724486215887.69,135141198248000.84,256709657776279.5,3445212315584989.0,6.849783386426214e+16
13.844365208556836,1716161147709848.2,7.628250873084693e+16,126660030491670.2,135844901049174.92,138755760157491.95,263877314678868.84,3541693548201147.0,7.03595160285588e+16
14.221252512727972,1717700113354349.0,7.829041565649694e+16,126773612736306.08,135966719816273.38,142435129597613.44,271190355226281.53,3640147602672085.5,7.225620212309402e+16
14.605677562982532,1719257732793014.8,8.033619075334712e+16,126888571710700.5,136090015147951.1,146180322893294.72,278651767285952.97,3740615654895605.0,7.418850668862045e+16
14.997791114242183,1720834912108387.8,8.242050477610032e+16,127004974287617.8,136214858766314.42,149992366553532.5,286264601324215.5,3843139768327261.5,7.615705329473306e+16
15.397746936527026,1722432547745347.5,8.454403853963107e+16,127122886628525.14,136341321630590.11,153872297133319.06,294031971750868.56,3947762914012723.5,7.816247460072984e+16
15.805701875257567,1724051528222930.5,8.670748300068613e+16,127242374309924.77,136469474072623.33,157821161082895.25,301957058293166.2,4054528991096028.0,8.020541241360862e+16
16.221815912762718,1725692735729165.2,8.891153933689186e+16,127363502441066.44,136599385923121.06,161840014583877.1,310043107399835.5,4163482847814842.5,8.228651774299995e+16
16.64625223101797,1727357047610825.8,9.115691902290706e+16,127486335773892.62,136731126629574.45,165929923371785.03,318293433675691.4,4274670302994175.5,8.440645085285099e+16
17.079177275638333,1729045337768422.0,9.344434390353848e+16,127610938805997.83,136864765366680.5,170091962544510.03,326711421347477.2,4388138168049963.5,8.656588130965546e+16
17.5207608211511,1730758477965848.8,9.577454626364277e+16,127737375877284.72,137000371140010.72,174327216356242.47,335300525761531.4,4503934269514564.0,8.876548802702714e+16
17.97117603757412,1732497339063087.0,9.814826889461531e+16,127865711260943.6,137138012883586.05,178636777996382.5,344064274913904.0,4622107472096009.0,9.100595930640118e+16
18.430599558325603,1734262792179534.5,1.0056626515727574e+17,127996009249310.44,137277759551960.92,183021749352950.97,353006271013550.5,4742707702283630.0,9.328799287364502e+16
18.899211549492115,1736055709794695.5,1.0302929904094064e+17,128128334235103.81,137419680207352.17,187483240760015.2,362130192079236.7,4865785972512176.0,9.561229591135208e+16
19.37719578048196,1737876966792483.5,1.0553814521846638e+17,128262750788496.38,137563844102299.14,192022370728639.56,371439793570796.7,4991394405897628.0,9.797958508658613e+16
19.864739696091597,1739727441454508.5,1.080935890970513e+17,128399323730426.66,137710320758290.66,196640265660876.2,380938910055377.44,5119586261557332.0,1.0039058657383434e+17
20.36203449001343,1741608016407527.2,1.1069642686455698e+17,128538118202523.14,137859180040761.89,201338059546297.72,390631456909329.7,5250415960527977.0,1.0284603607292245e+17
20.869275179813698,1743519579529475.0,1.1334746553112152e+17,128679199733973.14,138010492230810.23,206116893640587.88,400521432056388.44,5383939112294366.0,1.053466788216358e+17
21.38666068340997,1745463024818214.2,1.1604752296581645e+17,128822634305641.98,138164328093964.61,210977916125692.12,410612917742798.7,5520212541943195.0,1.0789326960278686e+17
21.91439389707817,1747439253226796.8,1.1879742792809746e+17,128968488411716.97,138320758946300.39,215922281751055.53,420910082350031.3,5659294317954999.0,1.1048657274545627e+17
22.452681775019734,1749449173468559.2,1.2159802009378832e+17,129116829119127.11,138479856718168.1,220951151455442.25,431417182245760.44,5801243780648758.0,1.1312736212013262e+17
23.00173541052013,1751493702795202.5,1.2445015007533656e+17,129267724124970.67,138641694015783.16,226065691968874.28,442138563673728.6,5946121571293005.0,1.1581642112746493e+17
23.561770118730532,1753573767750674.8,1.2735467943605701e+17,129421241812151.67,138806344180900.34,231267075394212.66,453078664683175.4,6093989661897891.0,1.1855454268033813e+17
24.133005521105144,1755690304903405.0,1.3031248069809114e+17,129577451303424.7,138973881348775.36,236556478767900.78,464242017098446.2,6244911385702502.0,1.2134252917896669e+17
24.715665631527248,1757844261559308.2,1.3332443734378507e+17,129736422514017.23,139144380504602.58,241935083599435.25,475633248529450.75,6398951468372358.0,1.2418119247870597e+17
25.309978944157795,1760036596457680.5,1.3639144381019354e+17,129898226202988.08,139317917538600.42,247404075389094.28,487257084423572.75,6556176059921337.0,1.2707135385026038e+17
25.91617852304095,1762268280451990.2,1.3951440547640261e+17,130062934023473.92,139494569299899.78,252964643123505.34,499118350159673.2,6716652767373225.0,1.3001384393197091e+17
26.53450209350177,1764540297177386.0,1.4269423864335933e+17,130230618571954.33,139674413649380.94,258617978748622.94,511221973184794.8,6880450688177624.0,1.330095026738495e+17
27.165192135371807,1766853643706577.5,1.4593187050588794e+17,130401353436658.8,139857529511592.8,264365276619715.94,523572985194152.5,7047640444395019.0,1.3605917927302418e+17
27.808495978079243,1769209331195702.2,1.492282391165679e+17,130575213245233.34,140043996925874.08,270207732927975.75,536176524355010.1,7218294217666320.0,1.3916373210025178e+17
28.464665897640828,1771608385521495.5,1.525842933411373e+17,130752273711767.08,140233897096791.88,276146545103388.0,549037837574996.06,7392485784981523.0,1.4232402861714752e+17
29.133959215593645,1774051847911178.0,1.560009928050812e+17,130932611683280.77,140427312444000.05,282182911193512.44,562162282815404.7,7570290555262601.0,1.455409452837715e+17
29.816638399905518,1776540775566202.2,1.5947930783105795e+17,131116305185761.62,140624326651612.97,288318029217869.2,575555331449997.2,7751785606775617.0,1.4881536745621117e+17
30.51297116790363,1779076242281029.5,1.6302021936680768e+17,131303433469832.67,140825024717185.38,294553096497633.0,589222570669804.8,7937049725386632.0,1.521481892737856e+17
31.223230591261704,1781659339057945.2,1.6662471890318304e+17,131494077056125.94,141029493000379.12,300889308960386.75,603169705934389.0,8126163443676407.0,1.5554031353549696e+17
31.947695203086937,1784291174718853.5,1.7029380838193734e+17,131688317780440.16,141237819271390.44,307327860419701.6,617402563469999.5,8319209080928083.0,1.5899265156534877e+17
32.686649107148675,1786972876515022.8,1.740285000928948e+17,131886238838737.31,141450092759215.16,313869941829368.3,631927092814989.9,8516270784002477.0,1.6250612306613488e+17
33.44038208929165,1789705590735482.0,1.778298165601247e+17,132087924832049.28,141666404199807.03,320516740512129.1,646749369412898.0,8717434569114800.0,1.660816559613175e+17
34.20918973107749,1792490483314950.8,1.8169879041674288e+17,132293461811343.45,141886845884198.94,327269439362808.3,661875597253430.8,8922788364526702.0,1.6972018622458938e+17
34.993373525699035,1795328740441915.0,1.8563646426794365e+17,132502937322401.23,142111511706636.53,334129216025787.8,677312111561670.0,9132422054166836.0,1.7342265769671843e+17
35.793240996213015,1798221569167561.0,1.8964389054188013e+17,132716440450761.77,142340497212779.16,341097242046833.4,693065381535636.6,9346427522193082.0,1.7719002188927366e+17
36.60910581613728,1801170198016147.8,1.937221313279944e+17,132934061866767.22,142573899648013.0,348174681999297.94,709142013132403.6,9564898698508740.0,1.810232377748228e+17
37.44128793246003,1804175877597364.2,1.978722582023967e+17,133155893870759.67,142811818005925.47,355362692584852.6,725548751902799.2,9787931605244488.0,1.8492327156319014e+17
38.29011369110923,1807239881221193.0,2.0209535203990067e+17,133382030438460.03,143054353076973.9,362662421708878.3,742292485874703.1,1.0015624404217534e+16,1.8889109646336336e+17
39.15591596493141,1810363505515781.5,2.0639250281230845e+17,133612567266569.42,143301607497394.25,370075007530786.56,759380248484864.8,1.0248077445378282e+16,1.9292769243063498e+17
40.03903428423004,1813548071048679.5,2.10764809372542e+17,133847601818618.88,143553685798376.53,377601577489566.75,776819221559063.0,1.0485393316254208e+16,1.9703404589857382e+17
40.93981496991464,1816794922951920.5,2.1521337922422294e+17,134087233371103.98,143810694455543.1,385243247304964.25,794616738340347.2,1.072767689239969e+16,2.012111494953993e+17
41.85861126931294,1820105431551235.8,2.197393282762942e+17,134331563059922.22,144072741938754.72,393001119954739.5,812780286565019.5,1.0975035388859534e+16,2.0546000174436496e+17
