t(s),Total solute volume 1,Total retention volume 1,Total 1 volume 1,Total 2 volume 1,Total 3 volume 1,Total 4 volume 1,Total 5 volume 1,Total 6 volume 1
0.1,1171626138357391.5,1690659390667246.5,218249522949102.88,300783729360751.56,0.0,0.0,0.0,0.0
0.202,1565771993753063.0,2772014861630805.0,291670682299770.3,401970177956159.25,259235233974.92776,694211497173.8081,16555574234857.633,495092986655804.8
0.30604000000000003,1780735383635182.8,3748041932263343.5,331713881501996.25,457156297119728.44,595522667486.1832,1594797727589.3606,38035627992002.71,1138210421619356.0
0.41216080000000005,1917581844171530.5,4690230759617505.0,357205524897638.75,492287977327581.6,971541271302.2618,2601823049510.125,62055110747995.195,1857526938151948.8
0.5204040160000001,2012445722469388.2,5622536896814880.0,374876688266442.44,516641749040406.1,1373097060694.805,3677281986015.791,87707285732163.33,2625815072259767.5
0.6308120963200001,2081989938215282.8,6555797692777618.0,387831326239951.6,534495372557345.2,1793537592328.086,4803363721276.058,114567232113319.53,3430316922338118.0
0.7434283382464002,2135064035740686.8,7495852012034273.0,397717924472317.1,548120732384717.25,2229372237769.2295,5970724177123.249,142412021708980.6,4264337201312678.0
0.8582969050113283,2176825210497621.2,8446247559807836.0,405497160982761.3,558841800922816.7,2678640307228.369,7174116237519.645,171116468358475.78,5124114162501413.0
0.9754628431115548,2210486914206420.8,9409346819117990.0,411767634848051.06,567483546207826.6,3140196911995.2236,8410477463551.6875,200607507032693.0,6007450542447451.0
1.094972099973786,2238156381294417.5,1.0386844371815396e+16,416921879920873.75,574586944488238.1,3613364687415.9146,9677997495976.504,230841945005152.12,6913045858923321.0
1.2168715419732616,2261272593046559.0,1.1380033770708416e+16,421227948422234.5,580521415839691.1,4097749855558.8506,10975625520378.127,261794711374713.2,7840143726649294.0
1.3412089728127268,2280851244935845.0,1.2389955870964404e+16,424875043249071.2,585547712993654.2,4593138887514.767,12302793559222.32,293452255494416.9,8788333681844684.0
1.4680331522689813,2297629312207464.5,1.3417486286702302e+16,428000447529284.3,589855034695582.9,5099437490143.887,13659253099093.08,325808649230612.9,9757434152450120.0
1.597393815314361,2312154196430601.0,1.446338949557613e+16,430706130766209.7,593583911704633.9,5616633076855.268,15044974603008.924,358863189489924.94,1.074742045950489e+16
1.729341691620648,2324840757840030.0,1.5528353680107076e+16,433069372775112.1,596840848326444.6,6144770876721.363,16460083543395.92,392618872044548.56,1.1758378974700826e+16
1.863928525453061,2336008963427133.0,1.661301394322325e+16,435149776737828.94,599707987556524.8,6683938275146.503,17904818477639.55,427081391251429.1,1.2790477067497544e+16
2.001207095962122,2345909420429958.5,1.7717968241427958e+16,436994025559769.4,602249666122959.6,7234254289788.002,19379502875051.613,462258467859731.9,1.3843942904290706e+16
2.1412312378813647,2354741107343091.0,1.8843788608321316e+16,438639184787498.4,604516966450405.0,7795862343533.09,20884525772992.92,498159387472571.25,1.4919051574151242e+16
2.284055862638992,2362663945754901.5,1.9991029246744304e+16,440115044479971.94,606550944144074.2,8368925208497.217,22420328246899.043,534794677724800.06,1.6016115381185144e+16
2.4297369798917723,2369807880675726.5,2.1160232487779296e+16,441445810684429.8,608384959121907.0,8953621411994.049,23987393795543.793,572175878877654.4,1.7135476943212038e+16
2.578331719489608,2376279548609132.0,2.235193326517183e+16,442651347559087.5,610046387464071.1,9550142646952.156,25586241416402.086,610315378599925.4,1.8277504218876244e+16
2.7298983538794,2382167247842760.5,2.3566662536715196e+16,443748103234732.25,611557897402637.2,10158691885035.547,27217420563124.918,649226291657785.8,1.944258688412917e+16
2.884496320956988,2387544693677617.0,2.480494994592143e+16,444749809335667.9,612938413376564.9,10779481989518.16,28881507441683.953,688922371547016.8,2.0631133668553396e+16
3.0421862473761276,2392473890783241.5,2.6067325927207972e+16,445668016039624.06,614203853432344.0,11412734688962.057,30579102273122.773,729417945190323.4,2.1843570384800396e+16
3.2030299723236504,2397007355124443.0,2.7354323397873784e+16,446512505976393.4,615367699644424.8,12058679815018.908,32310827264040.383,770727864522932.4,2.308033846552653e+16
3.3670905717701234,2401189850606651.5,2.8666479139473132e+16,447291617728667.0,616441443952642.4,12717554736084.64,34077325102011.496,812867470604958.4,2.4341893876742092e+16
3.5344323832055258,2405059759422109.0,3.0004334943142204e+16,448012501098968.4,617434939962048.9,13389603937943.855,35879257845115.48,855852567138867.9,2.562870631373717e+16
3.7051210308696363,2408650172925757.0,3.136843857377172e+16,448681320317098.1,618356682996233.4,14075078715993.29,37717306110770.49,899699401129949.9,2.694125861157589e+16
3.879223451487029,2411989767161238.0,3.2759344593937668e+16,449303417132381.75,619214034865286.8,14774236953086.748,39592168494382.805,944424649031719.8,2.8280046320299548e+16
4.0568079205167695,2415103510910096.0,3.417761507843243e+16,449883442708475.8,620013405638552.5,15487342963770.709,41504561166337.51,990045407148016.1,2.964557740789719e+16
4.237944078927105,2418013242373231.5,3.5623820242890308e+16,450425465047104.75,620760401692224.6,16214667390524.273,43455217608826.586,1036579185373027.5,3.103837206340532e+16
4.422702960505647,2420738141980373.0,3.709853900458187e+16,450933057062612.56,621459947090575.2,16956487141140.703,45444888463451.53,1084043903575805.1,3.2458962579267948e+16
4.61115701971576,2423295122451206.5,3.860235948941385e+16,451409369242224.9,622116383723757.1,17713085358981.605,47474341467478.65,1132457890101399.5,3.390789329706876e+16
4.803380160110075,2425699152471695.0,4.013587949612406e+16,451857189940195.8,622733554403067.1,18484751419757.64,49544361461780.8,1181839881983799.8,3.5385720604443764e+16
4.9994477633122765,2427963526760724.5,4.169970692635589e+16,452278995685599.75,623314872193365.0,19271780949931.137,51655750457357.07,1232209026557872.8,3.689301297375105e+16
5.199436718578522,2430100092574295.0,4.329446018751859e+16,452676993375341.9,623863378561984.4,20074475862924.29,53809327750235.88,1283584884227163.5,3.843035103516662e+16
5.403425452950093,2432119440603531.0,4.4920768573976184e+16,453053155834475.06,624381792386707.9,20893144410144.414,56005930076792.01,1335987432197270.0,3.999832767846727e+16
5.611493962009095,2434031066608213.5,4.657927263104005e+16,453409251925162.6,624872551450873.1,21728101244474.312,58246411803201.25,1389437069025234.5,4.1597548178982824e+16
5.823723841249277,2435843508871907.5,4.827062450540269e+16,453746872151703.2,625337847731313.0,22579667494364.4,60531645144081.98,1443954619866692.5,4.322863034414263e+16
6.040198318074262,2437564465581389.5,4.999548828499632e+16,454067450525869.2,625779657532393.9,23448170847046.64,62862520406384.586,1499561342326952.8,4.4892204677776216e+16
6.261002284435747,2439200895458376.5,5.1754540330729944e+16,454372283312505.2,626199767320531.8,24333945639687.727,65239946255400.234,1556278932841312.0,4.658891455990211e+16
6.486222330124463,2440759104357143.5,5.354846960214428e+16,454662545160854.25,626599795955818.1,25237332957533.453,67664850000381.75,1614129533524905.0,4.831941644018771e+16
6.715946776726952,2442244820051833.0,5.5377977978685736e+16,454939303035878.94,626981213891676.0,26158680738283.516,70138177897776.92,1673135739444328.5,5.008438004362593e+16
6.950265712261491,2443663257044493.0,5.724378057802946e+16,455203528290647.06,627345359812596.1,27098343882082.39,72660895470464.45,1733320606272784.8,5.188448858725636e+16
7.18927102650672,2445019172908348.0,5.914660607266094e+16,455456107161907.7,627693455098761.2,28056684366631.56,75233987841708.16,1794707658298055.2,5.3720439006985544e+16
7.433056447036854,2446316917424333.5,6.10871970057458e+16,455697849923205.4,628026616440554.0,29034071367023.043,77858460082796.42,1857320896758833.8,5.5592942193749016e+16
7.681717575977592,2447560475560353.0,6.3066310107168696e+16,455929498891019.9,628345866872330.1,30030881379971.24,80535337573545.9,1921184808489721.2,5.750272323840181e+16
7.935351927497144,2448753505172032.0,6.508471661050422e+16,456151735447627.2,628652145451076.9,31047498352182.33,83265666375011.2,1986324374859482.5,5.945052168484687e+16
8.194058966047088,2449899370163656.0,6.7143202571578216e+16,456365186218300.3,628946315769614.6,32084313812652.008,86050513613890.95,2052765080990188.2,6.143709179100989e+16
8.45794014536803,2451001169732601.0,6.924256918919805e+16,456570428518923.9,629229173464309.9,33141727008723.33,88890967878219.6,2120532925247820.2,6.346320279734751e+16
8.72709894827539,2452061764224694.0,7.1383633128561096e+16,456767995172323.9,629501452852766.2,34220145045771.758,91788139624043.89,2189654428996966.5,6.55296392026446e+16
9.0016409272409,2453083798048849.5,7.356722684779005e+16,456958378776771.44,629763832816525.0,35319983030410.76,94743161592846.67,2260156646614206.0,6.763720104691045e+16
9.281673745785717,2454069720032585.5,7.579419892800014e+16,457142035497806.44,630016942026825.1,36441664217138.18,97757189239555.16,2332067175756326.5,6.9786704201230056e+16
9.567307220701432,2455021801545092.5,7.806541440725861e+16,457319388444176.4,630261363597201.6,37585620158359.8,100831401171022.36,2405414167880746.0,7.197898066446201e+16
9.85865336511546,2455942152667452.0,8.038175511876432e+16,457490830680016.06,630497639234765.2,38752290857744.09,103966999594912.69,2480226339016717.5,7.421487886671269e+16
10.155826432417769,2456832736650677.5,8.27441200335487e+16,457656727918077.94,630726272951919.9,39942124926877.67,107165210778968.03,2556532980786735.5,7.649526397953541e+16
10.458942961066125,2457695382868923.0,8.515342560797118e+16,457817420932646.75,630947734391750.9,41155579745198.47,110427285520659.12,2634363971678392.0,7.882101823283362e+16
10.768121820287448,2458531798447136.5,8.761060613626397e+16,457973227725525.25,631162461813115.2,42393121623197.83,113754499627256.1,2713749788567657.5,8.119304123845989e+16
11.083484256693197,2459343578718466.0,9.011661410836382e+16,458124445474036.25,631370864775305.6,43655225968887.35,117148154406379.92,2794721518495050.0,8.361225032052578e+16
11.405153941827061,2460132216646396.0,9.267242057325376e+16,458271352286166.25,631573326556930.8,44942377457535.57,120609577167112.89,2877310870696799.5,8.607958085244296e+16
11.733257020663602,2460899111329138.0,9.527901550802294e+16,458414208784755.75,631770206339186.5,46255070204684.45,124140121731768.38,2961550188893467.5,8.859598660073965e+16
12.067922161076874,2461645575688767.5,9.793740819284474e+16,458553259539829.06,631961841179846.5,47593807942461.79,127741168958436.11,3047472463838853.5,9.116244007569645e+16
12.409280604298411,2462372843434911.0,1.0064862759206637e+17,458688734365781.44,632148547800995.0,48959104199207.45,131414127274433.84,3135111346132577.5,9.37799328888586e+16
12.75746621638438,2463082075381602.0,1.0341372274158675e+17,458820849498078.06,632330624210715.4,50351482482439.664,135160433220806.42,3224501159299737.0,9.644947611749338e+16
13.112615540712067,2463774365186368.5,1.0623376314270389e+17,458949808662325.7,632508351176446.1,51771476465185.48,138981552008031.1,3315676913141603.0,9.917210067606394e+16
13.474867851526309,2464450744572406.5,1.0910983916260138e+17,459075804047059.0,632681993565639.2,53219630175707.234,142878978083092.78,3408674317361402.0,1.019488576947961e+17
13.844365208556836,2465112188087497.5,1.1204306244163926e+17,459199017190217.2,632851801567474.1,54696498190654.36,146854235708106.06,3503529795469588.5,1.047808189054258e+17
14.221252512727972,2465759617446965.5,1.1503456630761248e+17,459319619788162.1,633018011807813.4,56202645831678.266,150908879550668.88,3600280498973116.0,1.0766907703421418e+17
14.605677562982532,2466393905502815.5,1.1808550619713582e+17,459437774435030.9,633180848368156.6,57738649365541.83,155044495286143.06,3698964321853587.5,1.1061474620232445e+17
14.997791114242183,2467015879876067.5,1.2119706008431214e+17,459553635299375.1,633340523718157.8,59305096207764.336,159262700212057.97,3799619915339165.0,1.136189623336595e+17
15.397746936527026,2467626326285523.0,1.2437042891683808e+17,459667348744234.4,633497239570188.1,60902585129838.91,163565143874854.78,3902286702975470.0,1.1668288357025792e+17
15.805701875257567,2468225991602266.0,1.2760683705969941e+17,459779053896126.7,633651187663507.6,62531726470063.12,167953508709181.8,4007004896000840.0,1.1980769069535742e+17
16.221815912762718,2468815586656209.0,1.3090753274660747e+17,459888883167853.9,633802550484755.9,64193142348022.445,172429510689961.78,4113815509031383.5,1.229945875642291e+17
16.64625223101797,2469395788818039.5,1.3427378853932646e+17,459996962739457.75,633951501930817.5,65887466882770.08,176994899997469.53,4222760376061607.5,1.2624480154289632e+17
17.079177275638333,2469967244377548.5,1.3770690179504062e+17,460103413001260.0,634098207919378.5,67615346414743.7,181651461695648.53,4333882166786401.5,1.2955958395484552e+17
17.5207608211511,2470530570737091.0,1.4120819514190934e+17,460208348962453.44,634242826952048.6,69377439731464.016,186401016423912.44,4447224403250441.0,1.3294021053585195e+17
17.97117603757412,2471086358436984.0,1.4477901696295824e+17,460311880628391.06,634385510634321.5,71174418297055.84,191245421102679.16,4562831476831090.0,1.3638798189702784e+17
18.430599558325603,2471635173027934.0,1.4842074188845462e+17,460414113349388.44,634526404156279.0,73006966485639.48,196186569652893.03,4680748665561256.0,1.3990422399622133e+17
18.899211549492115,2472177556804165.0,1.5213477129691235e+17,460515148143555.2,634665646737512.4,74875781818632.33,201226393729795.4,4801022151798528.0,1.4349028861788045e+17
19.37719578048196,2472714030409359.0,1.559225338248754e+17,460615081995959.8,634803372039420.9,76781575206006.7,206366863471212.38,4923699040247284.0,1.4714755386150637e+17
19.864739696091597,2473245094326550.5,1.5978548588562717e+17,460714008136164.5,634939708547689.6,78725071191550.23,211609988260626.53,5048827376340609.0,1.5087742463882432e+17
20.36203449001343,2473771230261928.5,1.6372511219697184e+17,460812016295992.2,635074779927546.5,80707008202168.8,216957817505323.44,5176456164988764.0,1.5468133317979e+17
20.869275179813698,2474292902431491.0,1.677429263182356e+17,460909192949209.4,635208705354087.5,82728138801279.53,222412441429877.7,5306635389701516.0,1.5856073954756803e+17
21.38666068340997,2474810558758810.5,1.7184047119663603e+17,461005621534644.25,635341599819752.6,84789229946336.84,227975991885294.22,5439416032091405.0,1.6251713216259955e+17
21.91439389707817,2475324631991241.0,1.760193197231683e+17,461101382664109.4,635473574420895.6,86891063250536.06,233650643174078.4,5574850091765319.0,1.6655202833590214e+17
22.452681775019734,2475835540741294.5,1.8028107529815392e+17,461196554316393.94,635604736625126.8,89034435248734.33,239438612891550.6,5712990606612126.0,1.7066697481171843e+17
23.00173541052013,2476343690459306.0,1.846273724066002e+17,461291212018444.8,635735190521018.9,91220157667638.73,245342162783709.22,5853891673493737.0,1.748635483196564e+17
23.561770118730532,2476849474342920.5,1.890598772035261e+17,461385429014791.1,635865037051590.5,93449057700296.75,251363599621958.0,5997608469347718.0,1.791433561364466e+17
24.133005521105144,2477353274188484.0,1.9358028810939133e+17,461479276426132.9,635994374232879.5,95721978284936.47,257505276095017.53,6144197272709421.0,1.835080366574541e+17
24.715665631527248,2477855461188853.0,1.9819033641578966e+17,461572823397965.1,636123297358760.0,98039778388193.56,263769591718347.06,6293715485661640.0,1.879592599780755e+17
25.309978944157795,2478356396681963.5,2.0289178690154813e+17,461666137240014.44,636251899193121.0,100403333292770.14,270158993761410.6,6446221656220359.0,1.924987284851584e+17
25.91617852304095,2478856432853908.5,2.0768643845938557e+17,461759283557210.56,636380270150357.9,102813534889559.08,276675978193126.0,6601775501164957.0,1.9712817745857622e+17
26.53450209350177,2479355913400061.5,2.1257612473327597e+17,461852326372840.6,636508498465099.4,105271291974279.19,283323090645843.8,6760437929321608.0,2.018493756830963e+17
27.165192135371807,2479855174147475.5,2.1756271476667302e+17,461945328244483.9,636636670351988.0,107777530548654.14,290102927398207.4,6922271065308646.0,2.06664126070674e+17
27.808495978079243,2480354543641468.0,2.2264811366173866e+17,462038350373286.25,636764870156283.6,110333194126171.83,297018136377247.2,7087338273753020.0,2.1157426629331123e+17
28.464665897640828,2480854343699158.5,2.2783426324972736e+17,462131452707071.5,636893180495954.0,112939244042463.39,304071418180093.0,7255704183986929.0,2.1658166942661552e+17
29.133959215593645,2481354889932395.5,2.3312314277267885e+17,462224694037748.25,637021682395927.9,115596659770331.17,311265527115641.6,7427434715234110.0,2.2168824460419286e+17
29.816638399905518,2481856492242355.5,2.3851676957656397e+17,462318132093447.25,637150455415075.9,118306439239460.67,318603272266604.44,7602597102295211.0,2.2689593768301168e+17
30.51297116790363,2482359455287943.0,2.4401719981603402e+17,462411823625775.2,637279577766450.5,121069599160848.05,326087518572273.5,7781259921742085.0,2.3220673191987853e+17
31.223230591261704,2482864078929923.0,2.4962652917092253e+17,462505824492539.8,637409126431311.4,123887175355968.98,333721187932434.1,7963493118630907.0,2.3762264865914963e+17
31.947695203086937,2483370658652514.5,2.5534689357464752e+17,462600189736294.9,637539177267356.0,126760223090721.55,341507260332807.94,8149368033744207.0,2.4314574803182358e+17
32.686649107148675,2483879485964198.5,2.6118046995465904e+17,462694973658994.44,637669805111617.1,129689817414163.88,349448774992426.75,8338957431372062.0,2.4877812966614547e+17
33.44038208929165,2484390848779148.0,2.671294769850804e+17,462790229893048.6,637801083878381.5,132677053502073.88,357548831533371.44,8532335527643152.0,2.5452193340985142e+17
34.20918973107749,2484905031780740.0,2.7319617585169053e+17,462886011469037.06,637933086652522.4,135723047005348.61,365810591173271.25,8729578019416109.0,2.6037934006419363e+17
34.993373525699035,2485422316768489.0,2.79382871029384e+17,462982370880336.7,638065885778548.5,138828934403266.38,374237277941016.25,8930762113742280.0,2.6635257212987018e+17
35.793240996213015,2485942982989490.0,2.8569191107226195e+17,463079360144861.5,638199552945709.6,141995873361626.44,382832179916102.1,9135966557910902.0,2.7244389456499312e+17
36.60910581613728,2486467307455637.0,2.921256894164868e+17,463177030864151.3,638334159269424.1,145225043095778.6,391598650492056.06,9345271670088028.0,2.7865561555522218e+17
37.44128793246003,2486995565247488.0,2.986866451960483e+17,463275434279984.9,638469775369293.6,148517644738555.75,400540109664394.75,9558759370560722.0,2.8499008729618848e+17
38.29011369110923,2487528029805945.5,3.053772640715725e+17,463374621328700.6,638606471443977.4,151874901713119.16,409660045343578.4,9776513213598276.0,2.9144970678833837e+17
39.15591596493141,2488064973212396.5,3.122000790723099e+17,463474642693391.44,638744317343118.4,155298060110717.3,418962014693410.8,9998618419942456.0,2.9803691664431366e+17
40.03903428423004,2488606666458367.5,3.1915767145145075e+17,463575548854129.5,638883382636566.0,158788389073364.1,428449645495388.8,1.0225161909938786e+16,3.047542059089937e+17
40.93981496991464,2489153379705359.5,3.262526715548768e+17,463677390136371.0,639023736681079.1,162347181181435.1,438126637539452.06,1.0456232337321638e+16,3.1160411089231123e+17
41.85861126931294,2489705382535568.5,3.334877597034998e+17,463780216757661.25,639165448684702.1,165975752846169.47,447996764041646.3,1.0691920123665184e+16,3.185892160149687e+17
42.7957834946992,2490262944194249.5,3.408656670892963e+17,463884078872780.5,639308587768974.9,169675444707082.34,458063873089185.5,1.0932317493513754e+16,3.257121546671495e+17
