t(s),Total solute volume 1,Total retention volume 1,Total 1 volume 1,Total 2 volume 1,Total 3 volume 1,Total 4 volume 1,Total 5 volume 1,Total 6 volume 1
0.1,1252217186918146.0,2056959543180943.2,321479351742078.75,483263004520719.3,0.0,0.0,0.0,0.0
0.202,1883391599765262.5,3094806866847550.0,483519574011453.75,726849597461175.5,339492542.35067016,1039061550.27692,30230422273.89352,1014486633290.0663
0.30604000000000003,2364538772271017.5,3886776888839222.5,607043581336960.1,912536760184903.4,860959849.9613713,2635091304.0946264,76677877727.1207,2577601117458.0024
0.41216080000000005,2771396657497894.0,4557168836687919.0,711495439494126.6,1069553759006285.1,1528823185.721543,4679190573.265149,136167689707.34013,4580604986150.544
0.5204040160000001,3132540418540450.0,5152872478572833.0,804211196588543.5,1208928492142704.2,2327227864.170006,7122833007.972034,207286804346.69373,6975634435921.756
0.6308120963200001,3462229861751800.0,5697285226681711.0,888851745908615.1,1336164188866517.2,3247634370.052612,9939881883.955284,289274279660.28284,9736968358864.047
0.7434283382464002,3768758271316656.5,6204014828164784.0,967546206698040.1,1454461442580522.0,4285128321.3695717,13115295878.442787,381692229762.5798,12849814915600.004
0.8582969050113283,4057439977965343.0,6681782181569981.0,1041658917079022.4,1565871191260721.8,5436903080.199725,16640484796.188038,484290577453.73975,16305727299576.393
0.9754628431115548,4331916995621206.5,7136565364195003.0,1112124884426142.8,1671798982462430.2,6701511721.956374,20511020081.439507,596940393473.6437,20100348759950.27
1.094972099973786,4594811650192599.0,7572670388736606.0,1179617333529415.2,1773256839702651.5,8078452561.8690815,24725366247.105103,719596964249.7626,24232164528884.246
1.2168715419732616,4848085030273224.0,7993319240643080.0,1244639730968279.2,1871001597880813.0,9567919948.308208,29284118133.90812,852277587253.3278,28701751895440.504
1.3412089728127268,5093248470749307.0,8400996779059053.0,1307580078900015.8,1965616520285527.0,11170645140.64436,34189513889.55952,995047393539.1965,33511301571630.684
1.4680331522689813,5331495512207848.0,8797667170760674.0,1368744792750174.2,2057562225150624.0,12887789955.728025,39445109455.64652,1148009872112.8345,38664297880498.49
1.597393815314361,5563788034567624.0,9184915149632468.0,1428380814137442.8,2147209926855699.2,14720873118.745207,45055553151.978485,1311300308241.9382,44165297337193.42
1.729341691620648,5790914602596670.0,9564041695667762.0,1486690589808459.2,2234863952973274.2,16671717828.082035,51026425190.07399,1485081111876.6284,50019771034468.45
1.863928525453061,6013531235142695.0,9936130886508004.0,1543842538245509.0,2320777478171203.5,18742413609.26055,57364120920.801346,1669538419160.102,56233989994913.15
2.001207095962122,6232190655309261.0,1.030209785795763e+16,1599978559009161.5,2405163812613623.0,20935288104.48982,64075764491.66385,1864879579142.78,62814940393828.125
2.1412312378813647,6447363758914155.0,1.0662724003831672e+16,1655219544295123.8,2488204687195180.5,23252885962.017406,71169144234.22841,2071331273037.8997,69770260123976.98
2.284055862638992,6659455686407425.0,1.1018683327255658e+16,1709669505047489.0,2570056456110714.0,25697952921.221664,78652663953.99878,2289138096375.5605,77108190976779.73
2.4297369798917723,6868818065722238.0,1.1370562514164964e+16,1763418714042743.5,2650854821688495.5,28273423781.1282,86535306106.16487,2518561487135.533,84837542494467.22
2.578331719489608,7075758482921423.0,1.1718876462196944e+16,1816546137271018.8,2730718489358136.5,30982413327.03533,94826604025.14323,2759878917419.5044,92967664711586.12
2.7298983538794,7280547909554113.0,1.2064080460266634e+16,1869121340747370.0,2809752034059927.0,33828209549.620594,103536621170.64497,3013383289360.4805,101508427785124.14
2.884496320956988,7483426599690346.0,1.240657985994479e+16,1921206004446324.5,2888048176063235.5,36814268669.16425,112675935898.60757,3279382491849.265,110470207048478.5
3.0421862473761276,7684608824209238.0,1.2746737841314962e+16,1972855137726805.8,2965689608051003.5,39944211602.39159,122255630647.51111,3558199085782.874,119863872399876.12
3.2030299723236504,7884286710055813.0,1.308488171222482e+16,2024118064977269.2,3042750476788375.0,43221821598.50324,132287284703.18816,3850170093474.604,129700781203576.56
3.3670905717701234,8082633382345304.0,1.3421308065332324e+16,2075039232282229.5,3119297595742160.0,46651042835.534294,142782969902.89334,4155646873618.871,139992774076279.7
3.5344323832055258,8279805557551829.0,1.3756287035948064e+16,2125658873166695.5,3195391445859518.0,50235979815.70445,153755248784.81747,4474995067437.151,150752173073979.25
3.7051210308696363,8475945700200171.0,1.409006584494901e+16,2176013562279598.2,3271087007891200.5,53980897433.86177,165217174797.72714,4808594604788.949,161991781901009.7
3.879223451487029,8671183829281665.0,1.4422871768088162e+16,2226136679151524.0,3346434459534197.5,57890221619.88438,177182294267.3032,5156839761416.222,173724887843460.6
4.0568079205167695,8865639041210980.0,1.4754914641212992e+16,2276058799180536.0,3421479763180259.0,61968540476.34673,189664649878.32748,5520139260310.447,185965265190562.5
4.237944078927105,9059420801602768.0,1.508638898707424e+16,2325808025267585.5,3496265164445930.5,66220605848.53401,202678785480.14966,5898916411597.262,198727179955040.8
4.422702960505647,9252630047136800.0,1.5417475831358082e+16,2375410270696229.0,3570829617410886.0,70651335276.17995,216239752060.49316,6293609286428.9,212025395740389.16
4.61115701971576,9445360130358872.0,1.5748344261771818e+16,2424889501689604.0,3645209149241009.5,75265814285.97586,230363114762.2541,6704670921235.97,225875180632053.3
4.803380160110075,9637697633763616.0,1.6079152773357934e+16,2474267946408407.0,3719437174364134.5,80069298991.56517,245064960841.42242,7132569549373.393,240292315012571.4
4.9994477633122765,9829723074444428.0,1.6410050434915594e+16,2523566275854265.0,3793544766412603.5,85067218973.8649,260361908483.00012,7577788857741.083,255293100219103.72
5.199436718578522,1.0021511516620928e+16,1.6741177904897222e+16,2572803761122856.0,3867560894613562.0,90265180419.4927,276271116406.9077,8040828266399.874,270894367976646.12
5.403425452950093,1.0213133106213712e+16,1.7072668319998532e+16,2621998410644163.0,3941512630095176.5,95668969499.08188,292810294208.11035,8522203229559.584,287113490552211.3
5.611493962009095,1.0404653539131842e+16,1.7404648075558946e+16,2671167090405148.5,4015425326610882.5,101284555970.52486,309997713385.20056,9022445556607.07,303968391585095.1
5.823723841249277,1.0596134472932594e+16,1.7737237513600962e+16,2720325629634301.5,4089322779409546.5,107118096994.87498,327852219019.86,9542103752080.941,321477557556392.6
6.040198318074262,1.0787633889892932e+16,1.8070551531684004e+16,2769488914012344.0,4163227365354225.0,113175941154.85147,346393242076.436,10081743373696.988,339660049867587.4
6.261002284435747,1.09792064182183e+16,1.8404700123594876e+16,2818670968135530.5,4237160166884864.0,119464632667.72176,365640812296.46326,10641947407692.502,358535517503558.25
6.486222330124463,1.1170903617041086e+16,1.8739788861138876e+16,2867885028682798.5,4311141082006644.5,125990915785.88866,385615571667.69366,11223316660894.092,378124210259977.1
6.715946776726952,1.1362774229980836e+16,1.9075919324853756e+16,2917143609511736.0,4385188922145400.0,132761739379.77943,406338788451.1129,11826470169028.627,398446992518915.94
6.950265712261491,1.1554864411311718e+16,1.9413189490279664e+16,2966458559722240.5,4459321499431573.5,139784261698.73465,427832371752.7749,12452045620893.78,419525357559782.2
7.18927102650672,1.1747217928182164e+16,1.975169407543141e+16,3015841115571858.0,4533555704741908.0,147065855306.51035,450118886630.0674,13100699798086.4,441381442395435.7
7.433056447036854,1.193987634182869e+16,2.0091524854299584e+16,3065301946998584.0,4607907577634643.0,154614112188.77655,473221569724.45294,13773109030056.592,464038043125692.6
7.681717575977592,1.213287917030928e+16,2.043277094052196e+16,3114851199398987.0,4682392369152461.0,162436849030.69095,497164345414.7397,14469969664315.057,487518630802445.8
7.935351927497144,1.2326264034927942e+16,2.0775519044788364e+16,3164498531219611.5,4757024598331667.0,170542112663.162,521971842486.687,15191998551671.82,511847367802332.8
8.194058966047088,1.2520066792227416e+16,2.11198537090597e+16,3214253147843144.0,4831818103141378.0,178938185676.93607,547669411316.2943,15939933546428.605,537049124704362.5
8.45794014536803,1.2714321653174808e+16,2.1465857520268544e+16,3264123832186753.0,4906786086480528.0,187633592204.0499,574283141565.3479,16714534021484.209,563149497671180.0
8.72709894827539,1.290906129095299e+16,2.1813611305821756e+16,3314118972375158.0,4981941157777288.0,196637103866.56573,601839880388.9957,17516581398345.752,590174826333768.6
9.0016409272409,1.3104316938588408e+16,2.2163194312928452e+16,3364246586804443.0,5057295370666160.0,205957745892.8096,630367251156.008,18346879692065.844,618152212180303.9
9.281673745785717,1.3300118477491608e+16,2.2514684373520508e+16,3414514346872866.0,5132860257158060.0,215604803401.62552,659893672683.3187,19206256071151.13,647109537450746.2
9.567307220701432,1.3496494517852648e+16,2.2868158056319116e+16,3464929597620686.5,5208646858667037.0,225587827855.3787,690448378987.0708,20095561432507.727,677075484539436.4
9.85865336511546,1.3693472471720794e+16,2.3223690807409396e+16,3515499376491713.0,5284665754213544.0,235916643682.6677,722061439553.1039,21015670991509.777,708079555908613.6
10.155826432417769,1.3891078619497358e+16,2.358135708052589e+16,3566230430403910.5,5360927086085852.0,246601355071.86346,754763780130.3241,21967484887290.098,740152094516297.4
10.458942961066125,1.4089338170486548e+16,2.3941230458111932e+16,3617129231294514.5,5437440583208069.0,257652352936.76935,788587204050.9211,22951928803369.152,773324304762461.6
10.768121820287448,1.4288275318074482e+16,2.430338376409346e+16,3668201990286016.5,5514215582435222.0,269080322055.82602,823564414081.7532,23969954603748.664,807628273957828.9
11.083484256693197,1.4487913290042238e+16,2.4667889169203384e+16,3719454670602985.0,5591261047970388.0,280896248386.3905,859729034811.628,25022540984607.266,843096994319984.1
11.405153941827061,1.468827439446291e+16,2.5034818289601056e+16,3770892999355033.0,5668585589077511.0,293111426555.74316,897115635579.5283,26110694141744.63,879764385501772.8
11.733257020663602,1.4889380061583078e+16,2.5404242279449296e+16,3822522478289069.0,5746197476244504.0,305737467530.53644,935759753949.008,27235448453927.918,917665317657269.9
12.067922161076874,1.5091250882046494e+16,2.577623191804304e+16,3874348393602347.0,5824104655934914.0,318786306466.4961,975697919734.3335,28397867182301.44,956835635050770.0
12.409280604298411,1.5293906641780432e+16,2.615085769202128e+16,3926375824898763.0,5902314764051303.0,332270210740.23,1016967679584.0272,29599043186025.305,997312180214484.9
12.75746621638438,1.5497366353830762e+16,2.652818987313931e+16,3978609653361864.5,5980835138221322.0,346201788165.0562,1059607622127.6981,30840099654314.12,1039132818660734.6
13.112615540712067,1.5701648287404384e+16,2.69082985920298e+16,4031054569210776.5,6059672829005894.0,360593995392.8053,1103657403692.078,32122190855048.785,1082336464154587.9
13.474867851526309,1.5906769994349788e+16,2.729125390834141e+16,4083715078498603.0,6138834610118751.0,375460146503.57996,1149157774592.4211,33446502900139.746,1126963104552992.5
13.844365208556836,1.6112748333285498e+16,2.767712587760271e+16,4136595509306785.5,6218326987738327.0,390813921785.4707,1196150606005.3315,34814254527819.29,1173053828216489.0
14.221252512727972,1.6319599491565098e+16,2.806598461512954e+16,4189700017384214.0,6298156208984425.0,406669376706.2596,1244678917429.231,36226697902044.12,1220650850999653.0
14.605677562982532,1.652733900524898e+16,2.845790035726098e+16,4243032591274502.5,6378328269626024.0,423040951079.1244,1294786904738.696,37685119429189.25,1269797543826467.0
14.997791114242183,1.673598177723851e+16,2.885294352018596e+16,4296597056971526.0,6458848921079673.0,439943478424.3892,1346519968838.8333,39190840592211.586,1320538460856760.2
15.397746936527026,1.6945542093712722e+16,2.9251184756597484e+16,4350397082139211.0,6539723676752702.0,457392195529.3187,1399924744925.8984,40745218802468.414,1372919368249892.5
15.805701875257567,1.7156033638995382e+16,2.9652695010390484e+16,4404436179928335.5,6620957817781040.0,475402752207.97894,1455049132360.2961,42349648269363.96,1426987273531820.2
16.221815912762718,1.7367469508969512e+16,3.005754556960195e+16,4458717712420373.5,6702556398206080.0,493991221263.15204,1511942325158.055,44005560888006.48,1482790455571565.5
16.64625223101797,1.757986222314549e+16,3.046580811777323e+16,4513244893725766.0,6784524249632085.0,513174108652.2477,1570654843106.7527,45714427145047.164,1540378495173100.0
17.079177275638333,1.7793223735480234e+16,3.0877554783901976e+16,4568020792761409.0,6866865985401566.0,532968363859.1625,1631238563511.8472,47477757042874.71,1599802306288552.0
17.5207608211511,1.8007565444036954e+16,3.12928581911359e+16,4623048335730776.0,6949586004323339.0,553391390473.9622,1693746753579.1353,49297101042335.086,1661114167858449.5
17.97117603757412,1.822289819956731e+16,3.1711791504348104e+16,4678330308326977.0,7032688493984504.0,574461056982.2502,1758234103439.097,51174051024139.734,1724367756284769.0
18.430599558325603,1.8439232313091744e+16,3.2134428476725536e+16,4733869357679018.0,7116177433675900.0,596195707765.9999,1824756759818.5312,53110241269124.64,1789618178542201.5
18.899211549492115,1.8656577562547544e+16,3.2560843495489064e+16,4789667994058420.0,7200056596957844.0,618614174317.6294,1893372360364.8994,55107349457514.83,1856922005933040.5
19.37719578048196,1.8874943198568852e+16,3.2991111626856108e+16,4845728592363175.0,7284329553890660.0,641735786668.9677,1964140068628.5576,57167097687345.99,1926337308490862.2
19.864739696091597,1.9094337949458384e+16,3.3425308660350984e+16,4902053393394170.0,7368999672953536.0,665580385036.7777,2037120609707.7793,59291253512188.1,1997923690037984.8
20.36203449001343,1.9314770025406748e+16,3.386351115255579e+16,4958644504938275.0,7454070122672715.0,690168331686.3632,2112376306561.422,61481630998310.09,2071742323901507.8
20.869275179813698,1.953624712200977e+16,3.430579647039405e+16,5015503902671421.0,7539543872979041.0,715520523014.7301,2189971116993.6802,63740091801417.586,2147855989292451.8
21.38666068340997,1.9758776423132664e+16,3.475224283402865e+16,5072633430893997.0,7625423696313347.0,741658401854.7538,2269970671315.321,66068546263088.24,2226329108352401.2
21.91439389707817,1.9982364603166556e+16,3.520292935945296e+16,5130034803109948.0,7711712168497109.0,768603970001.613,2352442310685.359,68468954527025.41,2307227783871674.0
22.452681775019734,2.0207017828717724e+16,3.565793610084816e+16,5187709602460667.0,7798411669384565.0,796379800962.7638,2437455126136.98,70943327675237.58,2390619837682865.5
23.00173541052013,2.0432741759771296e+16,3.611734409277527e+16,5245659282023577.0,7885524383311719.0,825009052932.5715,2525079998291.2397,73493728884246.56,2476574849733302.5
23.561770118730532,2.0659541550364816e+16,3.658123539226735e+16,5303885164985253.0,7973052299356400.0,854515481992.6565,2615389637761.6533,76122274601418.17,2565164197839694.5
24.133005521105144,2.088742184880895e+16,3.70496931208812e+16,5362388444697823.0,8060997211423234.0,884923455538.8834,2708458626252.687,78831135741498.12,2656461098127859.5
24.715665631527248,2.1116386797486936e+16,3.75228015067692e+16,5421170184627738.0,8149360718166452.0,916257965935.8447,2804363458354.528,81622538903432.0,2750540646160345.5
25.309978944157795,2.134644003226571e+16,3.800064592682253e+16,5480231318204403.0,8238144222762482.0,948544644399.5586,2903182584036.6333,84498767607531.02,2847479858753993.0
25.91617852304095,2.1577584681548824e+16,3.848331294894022e+16,5539572648577153.0,8327348932544563.0,981809775109.001,3004996451841.726,87462163553040.55,2947357716489710.0
26.53450209350177,2.1809823365000176e+16,3.897089037447229e+16,5599194848287511.0,8416975858510096.0,1016080309546.9818,3109887552781.85,90515127896155.92,3050255206915914.5
27.165192135371807,2.2043158191966144e+16,3.9463467280883576e+16,5659098458864180.0,8507025814711756.0,1051383881070.7408,3217940464937.7944,93660122548523.95,3156255368446972.5
27.808495978079243,2.227759075962318e+16,3.996113406468553e+16,5719283890347447.0,8597499417542632.0,1087748819712.5105,3329241898762.46,96899671496246.28,3265443334957583.5
28.464665897640828,2.251312215087673e+16,4.046398248467504e+16,5779751420749724.0,8688397084925297.0,1125204167210.2322,3443880743088.7837,100236362139407.92,3377906381073641.0
29.133959215593645,2.274975293203602e+16,4.0972105705525144e+16,5840501195458765.0,8779719035414465.0,1163779692268.382,3561948111842.1943,103672846652120.55,3493733968159664.0
29.816638399905518,2.298748315028967e+16,4.148559834176521e+16,5901533226589354.0,8871465287222814.0,1203505906048.801,3683537391457.268,107211843363082.11,3613017791002708.0
30.51297116790363,2.322631233100518e+16,4.20045565021896e+16,5962847392290155.0,8963635657178689.0,1244414077891.3164,3808744288997.7505,110856138156622.8,3735851825192003.0
31.223230591261704,2.3466239474875144e+16,4.252907783473108e+16,6024443436011069.0,9056229759624916.0,1286536251263.7495,3937666880978.914,114608585894207.77,3862332375193424.5
31.947695203086937,2.3707263054933736e+16,4.305926157183468e+16,6086320965737237.0,9149247005267244.0,1329905259940.7458,4070405662890.621,118472111856351.23,3992558123117224.5
32.686649107148675,2.3949381013464228e+16,4.35952085763663e+16,6148479453195110.0,9242686599980790.0,1374554744410.9019,4207063599419.0894,122449713204883.77,4126630178177406.5
33.44038208929165,2.419259075882004e+16,4.4137021388089576e+16,6210918233036337.0,9336547543583540.0,1420519168511.2651,4347746175364.977,126544460465503.92,4264652126840299.0
34.20918973107749,2.443688916218052e+16,4.468480427074326e+16,6273636502004870.0,9430828628583970.0,1467833836288.4097,4492561447255.1455,130759499030534.12,4406730083659849.0
34.993373525699035,2.468227255426244e+16,4.5238663259750456e+16,6336633318092774.0,9525528438912108.0,1516534909084.9417,4641620095644.614,135098050681787.72,4552972742796532.0
35.793240996213015,2.492873672200799e+16,4.579870621058987e+16,6399907599689835.0,9620645348641248.0,1566659422850.3477,4795035478105.41,139563415133438.72,4703491430216489.0
36.60910581613728,2.5176276905269828e+16,4.6365042847861464e+16,6463458124732628.0,9716177520708706.0,1618245305674.7656,4952923682897.999,144158971594786.44,4858400156566906.0
37.44128793246003,2.542488779351424e+16,4.693778481507108e+16,6527283529858026.0,9812122905643520.0,1671331395544.354,5115403583321.207,148888180352777.25,5017815670723689.0
38.29011369110923,2.5674563522561484e+16,4.751704572516789e+16,6591382309566427.0,9908479240308306.0,1725957458316.5828,5282596892735.533,153754584374151.22,5181857514006506.0
39.15591596493141,2.592529767138491e+16,4.810294121185871e+16,6655752815399965.0,1.0005244046664046e+16,1782164205913.831,5454628220255.082,158761810927060.75,5350648075056484.0
40.03903428423004,2.617708325898749e+16,4.8695588981727704e+16,6720393255140647.0,1.0102414630564732e+16,1839993314733.4885,5631625127102.1,163913573222005.16,5524312645370996.0
40.93981496991464,2.6429912741377064e+16,4.9295108867190664e+16,6785301692033821.0,1.019998808058985e+16,1899487444272.5337,5813718183618.716,169213672071899.53,5702979475490056.0
41.85861126931294,2.6683778008659096e+16,4.990162288030569e+16,6850476044041731.0,1.0297961266922658e+16,1960690255964.7305,6001041026929.525,174665997571115.8,5886779831828163.0
42.7957834946992,2.693867038226758e+16,5.051525526747153e+16,6915914083132717.0,1.0396330840281232e+16,2023646432228.163,6193730419248.196,180274530793287.06,6075848054145280.0
