t(s),Total solute volume 1,Total retention volume 1,Total 1 volume 1,Total 2 volume 1,Total 3 volume 1,Total 4 volume 1,Total 5 volume 1,Total 6 volume 1
0.1,1386011386779396.2,8520484941412214.0,2082602288778356.8,5051871265854462.0,0.0,0.0,0.0,0.00819856729667888
0.202,1973164656706407.5,1.2615747293797756e+16,2964852856869727.5,7192021255315326.0,227889837280.61362,1443373048198.167,63946679358453.484,420090582662363.5
0.30604000000000003,2383544237756456.0,1.5953503418070918e+16,3581484386465849.5,8687825264102358.0,556092888965.8024,3524512698232.055,162462337709520.25,1134106586449534.8
0.41216080000000005,2693583330739445.5,1.8909636114062884e+16,4047345403904574.0,9817893978877088.0,952104016000.506,6036034029625.079,283255593064377.44,2060569669431764.5
0.5204040160000001,2938683184847970.5,2.164401727812708e+16,4415629463912399.5,1.0711263440229052e+16,1398929141329.4465,8869952255990.258,420170507922610.44,3148001799817734.5
0.6308120963200001,3138478999268969.0,2.4239175297442096e+16,4715840203641009.0,1.1439502876949578e+16,1886407348968.8577,11961745593769.35,569678757608597.4,4361826307031206.0
0.7434283382464002,3305092239592421.5,2.6743651023539596e+16,4966191202868779.0,1.2046794314971586e+16,2408008273119.5923,15269971562347.266,729619454342611.0,5678275831928730.0
0.8582969050113283,3446494055342516.5,2.918871433760578e+16,5178659821062760.0,1.256219209632026e+16,2959303125182.577,18766541495640.293,898607515947889.6,7081035004311532.0
0.9754628431115548,3568158271732700.5,3.1595886110044264e+16,5361470965192859.0,1.300564795042589e+16,3537143549199.771,22431497851276.35,1075711033466552.9,8558929247825772.0
1.094972099973786,3673945123670521.5,3.3980746595739532e+16,5520424978920070.0,1.3391232157570076e+16,4139162763427.426,26249841433166.453,1260258553376449.2,1.010449677800583e+16
1.2168715419732616,3766698066607778.5,3.635503438761906e+16,5659794404347525.0,1.3729308896551724e+16,4763552373465.324,30210113650728.598,1451746657847056.2,1.1712512696240776e+16
1.3412089728127268,3848559730676282.0,3.872788865353333e+16,5782798731327432.0,1.402768788125971e+16,5408887344172.945,34303284695542.33,1649781021439564.0,1.337934911679063e+16
1.4680331522689813,3921191930459967.0,4.1106624693159176e+16,5891934981813942.0,1.429242628537782e+16,6074035618304.35,38522180450674.79,1854046373853469.2,1.510242890558501e+16
1.597393815314361,3985916082877600.0,4.34972396333683e+16,5989188700260909.0,1.4528340558120014e+16,6758098912453.939,42861107499643.34,2064289761639575.0,1.6879885324058096e+16
1.729341691620648,4043804887978769.0,4.590475428051073e+16,6076171712170803.0,1.4739340595343206e+16,7460370602448.53,47315586539781.84,2280309783858110.5,1.8710351344017596e+16
1.863928525453061,4095743826808468.5,4.833345134909158e+16,6154214530083633.0,1.492865389524067e+16,8180303670361.931,51882149507406.04,2501948656472894.0,2.059282798730815e+16
2.001207095962122,4142473692064805.5,5.078704585438335e+16,6224430259642940.0,1.5098980579527978e+16,8917485234989.678,56558178342108.695,2729085817305942.0,2.2526599842264588e+16
2.1412312378813647,4184620949667419.5,5.326880976367079e+16,6287760220522282.0,1.5252604059001564e+16,9671615862802.51,61341773980613.484,2961632585552720.0,2.451117855908338e+16
2.284055862638992,4222720079791726.0,5.578166500492706e+16,6345007515788654.0,1.5391472464774232e+16,10442492609746.508,66231648953421.98,3199527682814851.5,2.654626312019441e+16
2.4297369798917723,4257230459785538.5,5.832825409507603e+16,6396862399962594.0,1.5517260185065266e+16,11229995068690.426,71227039007109.42,3442733495520130.5,2.863171052066669e+16
2.578331719489608,4288549404505755.0,6.0910994629301336e+16,6443921873263924.0,1.563141539608341e+16,12034073846611.537,76327630112339.69,3691232962285040.0,3.0767513289204256e+16
2.7298983538794,4317022415386538.5,6.353212192967222e+16,6486705081731582.0,1.5735197418961404e+16,12854740992360.094,81533497824702.17,3945026970180590.0,3.2953781804595076e+16
2.884496320956988,4342951350120664.5,6.619372286834507e+16,6525665592882422.0,1.5829706497498546e+16,13692061984594.139,86845056525358.31,4204132157746354.5,3.519073015158712e+16
3.0421862473761276,4366601014196713.0,6.889776301543208e+16,6561201300070299.0,1.5915907823702382e+16,14546148974773.143,92263016608755.17,4468579044980211.0,3.747866466689896e+16
3.2030299723236504,4388204538017451.5,7.1646108668623736e+16,6593662502074757.0,1.5994651136880168e+16,15417155054180.098,97788348154612.23,4738410432468187.0,3.981797455597442e+16
3.3670905717701234,4407967808574598.0,7.44405449095969e+16,6623358562078087.0,1.6066686876673348e+16,16305269371179.736,103422249984451.16,5013680028099368.0,4.2209124114815896e+16
3.5344323832055258,4426073156761175.5,7.728279054196203e+16,6650563448172981.0,1.6132679622959418e+16,17210712965310.326,109166123258800.33,5294451269740348.0,4.465264620810395e+16
3.7051210308696363,4442682451817513.0,8.01745105577967e+16,6675520383036892.0,1.619321937481174e+16,18133735212017.367,115021548943239.03,5580796317619501.0,4.7149136746355816e+16
3.879223451487029,4457939718016257.0,8.311732662859054e+16,6698445775728863.0,1.6248831088065798e+16,19074610790380.57,120990268588469.95,5872795193230715.0,4.969924997417005e+16
4.0568079205167695,4471973361986842.5,8.611282600439387e+16,6719532568438338.0,1.6299982793703576e+16,20033637099677.473,127074167954703.7,6170535043900778.0,5.230369443130993e+16
4.237944078927105,4484898079446692.0,8.916256912070413e+16,6738953101514614.0,1.634709254770609e+16,21011132061320.555,133275263078163.48,6474109514519954.0,5.496322948237728e+16
4.422702960505647,4496816495569925.0,9.226809614851851e+16,6756861578263574.0,1.6390534410040286e+16,22007432251739.64,139595688434686.22,6783618210447058.0,5.767866233351122e+16
4.61115701971576,4507820582328852.0,9.543093267385024e+16,6773396194626554.0,1.6430643610732944e+16,23022891319630.305,146037686905147.28,7099166238120539.0,6.045084546981661e+16
4.803380160110075,4517992887849211.0,9.865259465517528e+16,6788680986393510.0,1.6467721030752734e+16,24057878647822.133,152603601290807.75,7420863812235916.0,6.32806744580053e+16
4.9994477633122765,4527407606402297.0,1.0193459277805043e+17,6802827436959294.0,1.6502037102029088e+16,25112778225918.004,159295867164127.56,7748825920352389.0,6.616908606691734e+16
5.199436718578522,4536131512616083.0,1.0527843630348302e+17,6815935881057172.0,1.6533835212562436e+16,26187987704893.473,166117006872570.7,8083172037419147.0,6.911705666525068e+16
5.403425452950093,4544224779475932.0,1.086856364889638e+17,6828096733875985.0,1.6563334687958624e+16,27283917609115.71,173069624540022.62,8424025883985868.0,7.212560086151827e+16
5.611493962009095,4551741696458367.0,1.1215770964719768e+17,6839391570118698.0,1.6590733408958216e+16,28400990684845.246,180156401933277.12,8771515222840258.0,7.5195770356204e+16
5.823723841249277,4558731301522172.0,1.1569617989655643e+17,6849894073624056.0,1.66162101149842e+16,29539641367317.383,187380095080270.6,9125771689566438.0,7.832865298041197e+16
6.040198318074262,4565237938538283.0,1.1930258164844909e+17,6859670874953455.0,1.663992643592129e+16,30700315351055.85,194743531542899.12,9486930653105146.0,8.1525371899037e+16
6.261002284435747,4571301749975298.0,1.22978461869644e+17,6868782291693875.0,1.6662028687908426e+16,31883469250219.48,202249608260849.12,9855131102869122.0,8.478708495968626e+16
6.486222330124463,4576959113195807.0,1.2672538215170378e+17,6877282984031164.0,1.6682649463598284e+16,33089570337595.918,209901289894330.25,1.023051555936182e+16,8.811498417128475e+16
6.715946776726952,4582243027501630.0,1.3054492061484288e+17,6885222536319160.0,1.6701909042901216e+16,34319096352385.125,217701607603261.84,1.0613230005587398e+16,9.15102952985778e+16
6.950265712261491,4587183458047900.0,1.3443867366947245e+17,6892645973840682.0,1.6719916646520586e+16,35572535368210.66,225653658208659.44,1.1003423836840108e+16,9.49742775606463e+16
7.18927102650672,4591807641891309.0,1.3840825765531584e+17,6899594222671627.0,1.6736771551470594e+16,36850385713899.9,233760603688940.53,1.1401249826730596e+16,9.850822342314888e+16
7.433056447036854,4596140360717321.0,1.4245531037513848e+17,6906104519477441.0,1.6752564085142196e+16,38153155940517.516,242025670969842.9,1.1806864107550154e+16,1.0211345847534104e+17
7.681717575977592,4600204184182113.0,1.4658149253774723e+17,6912210777155667.0,1.6767376512262756e+16,39481364828952.836,250452151971813.72,1.2220426163294004e+16,1.0579134138405194e+17
7.935351927497144,4604019687288587.0,1.507884891229002e+17,6917943911462316.0,1.6781283827211994e+16,40835541433069.34,259043403883216.22,1.26420988338644e+16,1.095432639177566e+17
8.194058966047088,4607605644775859.0,1.5507801067907152e+17,6923332133099116.0,1.6794354462554526e+16,42216225154048.234,267802849631647.66,1.3072048329153872e+16,1.133706510347025e+17
8.45794014536803,4610979205126515.0,1.594517945635787e+17,6928401209174573.0,1.6806650923280974e+16,43623965842105.3,276733978529140.56,1.3510444251870508e+16,1.1727496102975488e+17
8.72709894827539,4614156046473956.0,1.6391160613336493e+17,6933174697468417.0,1.6818230355076586e+16,45059323922249.914,285840347070114.0,1.3957459628111372e+16,1.2125768573524224e+17
9.0016409272409,4617150516415455.0,1.6845923989369872e+17,6937674156512943.0,1.6829145053927718e+16,46522870541186.86,295125579863691.4,1.4413270944819266e+16,1.2532035077161846e+17
9.281673745785717,4619975757497419.0,1.7309652061117258e+17,6941919334145602.0,1.6839442923504798e+16,48015187732850.516,304593370684460.75,1.4878058193371852e+16,1.294645158442356e+17
9.567307220701432,4622643819932122.0,1.7782530439663286e+17,6945928336875742.0,1.6849167886005184e+16,49536868600404.24,314247483627930.94,1.5352004918653456e+16,1.336917750829379e+17
9.85865336511546,4625165762924747.0,1.826474797630283e+17,6949717782137380.0,1.6858360251481628e+16,51088517512845.43,324091754358893.4,1.583529827304928e+16,1.3800375742156342e+17
10.155826432417769,4627551745832007.0,1.8756496866261037e+17,6953302935262985.0,1.6867057050107748e+16,52670750314627.164,334130091442610.94,1.6328129074879702e+16,1.424021270147707e+17
10.458942961066125,4629811110235565.0,1.9257972750743805e+17,6956697832806037.0,1.6875292331328892e+16,54284194546948.67,344366477750281.2,1.683069187086152e+16,1.4688858368990883e+17
10.768121820287448,4631952453892255.0,1.976937481767219e+17,6959915393657660.0,1.6883097433404468e+16,55929489679575.8,354804971931559.44,1.7343185002243222e+16,1.5146486343191325e+17
11.083484256693197,4633983697415949.0,2.0290905901418074e+17,6962967519242023.0,1.6890501226457942e+16,57607287352238.57,365449709948089.6,1.7865810674313744e+16,1.561327388994508e+17
11.405153941827061,4635912144451924.0,2.08227725818266e+17,6965865183933557.0,1.6897530331807414e+16,59318251624812.12,376304906663014.5,1.8398775029030164e+16,1.6089401997075507e+17
11.733257020663602,4637744536020745.0,2.1365185282782826e+17,6968618516713455.0,1.6904209320044758e+16,61063059235626.88,387374857482312.44,1.894228822054993e+16,1.6575055431778128e+17
12.067922161076874,4639487099635085.0,2.191835837055606e+17,6971236874971996.0,1.6910560890062566e+16,62842399867374.055,398663940044579.25,1.949656449348751e+16,1.7070422800749146e+17
12.409280604298411,4641145593727222.0,2.2482510252133232e+17,6973728911264745.0,1.6916606030988674e+16,64656976420174.77,410176615956509.56,2.006182226374576e+16,1.7575696612922922e+17
12.75746621638438,4642725347866783.0,2.3057863473734106e+17,6976102633743250.0,1.6922364168776824e+16,66507505291470.67,421917432571918.75,2.0638284201798692e+16,1.8091073344729206e+17
13.112615540712067,4644231299196770.0,2.3644644819684397e+17,6978365460903402.0,1.6927853299013052e+16,68394716662469.05,433891024812601.75,2.122617731832439e+16,1.8616753507793107e+17
13.474867851526309,4645668025469999.0,2.4243085411807763e+17,6980524271225552.0,1.6933090107331006e+16,70319354790939.09,446102117029750.44,2.182573305210752e+16,1.915294171901228e+17
13.844365208556836,4647039775027262.0,2.4853420809485142e+17,6982585448219372.0,1.693809007868002e+16,72282178310212.84,458555524904995.2,2.243718736014696e+16,1.969984677295626e+17
14.221252512727972,4648350494022337.0,2.5475891110517904e+17,6984554921331818.0,1.6942867596558292e+16,74283960534288.84,471256157390430.56,2.306078080991971e+16,2.0257681716542208e+17
14.605677562982532,4649603851166744.0,2.6110741052921565e+17,6986438203128278.0,1.6947436033205466e+16,76325489768978.73,484209018687246.0,2.369675867376497e+16,2.0826663925949395e+17
14.997791114242183,4650803260238297.0,2.6758220117767744e+17,6988240423113701.0,1.695180783164485e+16,78407569629067.75,497419210262788.94,2.434537102536329e+16,2.140701518574256e+17
15.397746936527026,4651951900572230.0,2.7418582633184093e+17,6989966358522281.0,1.6955994580371918e+16,80531019361494.23,510891932906080.0,2.5006872838295916e+16,2.1998961770181098e+17
15.805701875257567,4653052735730660.0,2.8092087879615082e+17,6991620462370003.0,1.6960007081403222e+16,82696674174570.02,524632488821950.1,2.5681524086677796e+16,2.2602734526697267e+17
16.221815912762718,4654108530526136.0,2.8779000196440845e+17,6993206889033987.0,1.6963855412325854e+16,84905385573294.42,538646283764110.9,2.6369589847865068e+16,2.321856896153199e+17
16.64625223101797,4655121866556699.0,2.947958909004501e+17,6994729517595337.0,1.6967548982921804e+16,87158021700823.62,552938829207581.44,2.7071340407244996e+16,2.3846705327522256e+17
17.079177275638333,4656095156394089.0,3.0194129343418906e+17,6996191973158134.0,1.6971096586882834e+16,89455467686179.31,567515744560992.1,2.778705136512142e+16,2.448738871403853e+17
17.5207608211511,4657030656552095.0,3.092290112738481e+17,6997597646335542.0,1.697450644907927e+16,91798625998289.78,582382759419381.6,2.8517003745714188e+16,2.5140869139074934e+17
17.97117603757412,4657930479349380.0,3.166619011351729e+17,6998949711074739.0,1.697778626879904e+16,94188416806471.3,597545715858162.0,2.9261484108295936e+16,2.5807401643498912e+17
18.430599558325603,4658796603769529.0,3.2424287588838925e+17,7000251140975131.0,1.6980943259332038e+16,96625778347466.67,613010570769014.4,3.00207846604927e+16,2.648724638747032e+17
18.899211549492115,4659630885411056.0,3.319749057236421e+17,7001504724239088.0,1.6983984184236942e+16,99111667299164.73,628783398238510.2,3.0795203373779164e+16,2.7180668749043814e+17
19.37719578048196,4660435065610596.0,3.3986101933562394e+17,7002713077380335.0,1.698691539059483e+16,101647059161137.28,644870391970325.2,3.1585044101202324e+16,2.7887939424970445e+17
19.864739696091597,4661210779814640.0,3.4790430512808794e+17,7003878657803260.0,1.6989742839523472e+16,104232948642131.38,661277867751945.5,3.239061669736984e+16,2.8609334533718262e+17
20.36203449001343,4661959565267601.0,3.561079124389218e+17,7005003775354912.0,1.6992472134199906e+16,106870350054665.55,678012265966807.1,3.3212237140742652e+16,2.934513572073351e+17
20.869275179813698,4662682868077591.0,3.6447505278644397e+17,7006090602941912.0,1.6995108545614602e+16,109560297716881.58,695080154152855.1,3.4050227658272812e+16,3.009563026596674e+17
21.38666068340997,4663382049715130.0,3.730090011375724e+17,7007141186295389.0,1.699765703625895e+16,112303846361808.95,712488229608522.9,3.4904916852430524e+16,3.086111119369021e+17
21.91439389707817,4664058392995048.0,3.8171309719850765e+17,7008157452959271.0,1.7000122281928842e+16,115102071554205.58,730243322047190.6,3.577663983066588e+16,3.1641877384635706e+17
22.452681775019734,4664713107586749.0,3.9059074672856454e+17,7009141220570003.0,1.7002508691809228e+16,117956070115139.03,748352396301176.2,3.666573833735253e+16,3.243823369048298e+17
23.00173541052013,4665347335093951.0,3.996454228777784e+17,7010094204489266.0,1.70048204269895e+16,120866960554481.12,766822555076369.5,3.7572560888262344e+16,3.3250491050731245e+17
23.561770118730532,4665962153741052.0,4.0888066754891104e+17,7011018024845655.0,1.7007061417544898e+16,123835883511487.2,785661041758621.5,3.84974629076216e+16,3.407896661198876e+17
24.133005521105144,4666558582699859.0,4.183000927844769e+17,7011914213035978.0,1.7009235378307216e+16,126864002203641.14,804875243273040.4,3.944080686780135e+16,3.4923983849715565e+17
24.715665631527248,4667137586087221.0,4.2790738217941114e+17,7012784217732098.0,1.7011345823435998e+16,129952502883945.12,824472692997360.0,4.040296243169446e+16,3.5785872692458003e+17
25.309978944157795,4667700076661445.0,4.377062923199946e+17,7013629410435046.0,1.7013396079891576e+16,133102595306838.14,844461073730560.6,4.138430659783501e+16,3.666496964861341e+17
25.91617852304095,4668246919242635.0,4.477006542496598e+17,7014451090614431.0,1.7015389299902162e+16,136315513202933.72,864848220717977.8,4.238522384831616e+16,3.7561617935766336e+17
26.53450209350177,4668778933879956.0,4.5789437496229786e+17,7015250490467566.0,1.7017328472508226e+16,139592514762765.05,885642124734098.1,4.3406106299563416e+16,3.8476167612638195e+17
27.165192135371807,4669296898786722.0,4.682914389236932e+17,7016028779329628.0,1.701921643426075e+16,142934883129733.47,906850935224327.1,4.444735385602242e+16,3.940897571369395e+17
27.808495978079243,4669801553062276.0,4.7889590962171e+17,7016787067763582.0,1.7021055879142368e+16,146343926902456.62,928482963506976.1,4.550937436682097e+16,4.036040638645113e+17
28.464665897640828,4670293599218040.0,4.8971193114586886e+17,7017526411355753.0,1.7022849367774556e+16,149820980646717.56,950546686036786.6,4.659258378546679e+16,4.133083103153704e+17
29.133959215593645,4670773705523474.0,5.0074372979694726e+17,7018247814240870.0,1.7024599335968564e+16,153367405417216.88,973050747731289.5,4.769740633264254e+16,4.232062844554234e+17
29.816638399905518,4671242508186400.0,5.119956157272462e+17,7018952232378193.0,1.7026308102672664e+16,156984589289337.94,996003965361352.8,4.882427466216233e+16,4.333018496671962e+17
30.51297116790363,4671700613380821.0,5.23471984612179e+17,7019640576598476.0,1.7027977877363278e+16,160673947901131.1,1019415331007262.9,4.99736300301544e+16,4.4359894623577344e+17
31.223230591261704,4672148599134282.0,5.3517731935382886e+17,7020313715439899.0,1.7029610766924396e+16,164436925005733.88,1043294015581736.5,5.1145922467535176e+16,4.541015928642077e+17
31.947695203086937,4672587017085717.0,5.471161918171516e+17,7020972477789398.0,1.703120878205479e+16,168274993034442.38,1067649372421252.4,5.234161095584275e+16,4.64813888218923e+17
32.686649107148675,4673016394123871.0,5.5929326459948154e+17,7021617655344544.0,1.703277384324e+16,172189653670654.7,1092490940947143.1,5.356116360649768e+16,4.7574001250565754e+17
33.44038208929165,4673437233915494.0,5.717132928340349e+17,7022250004909746.0,1.7034307786322448e+16,176182438434909.03,1117828450397888.9,5.480505784356054e+16,4.868842290764939e+17
34.20918973107749,4673850018331699.0,5.843811260280872e+17,7022870250539558.0,1.7035812367700546e+16,180254909281246.44,1143671823634099.2,5.607378059005764e+16,4.982508860685421e+17
34.993373525699035,4674255208780263.0,5.973017099365324e+17,7023479085540533.0,1.7037289269184754e+16,184408659205125.9,1170031181017667.0,5.7367828457946344e+16,5.098444180748579e+17
35.793240996213015,4674653247450941.0,6.104800884715299e+17,7024077174342383.0,1.7038740102536714e+16,188645312863130.16,1196916844366636.0,5.8687707941794184e+16,5.216693478481758e+17
36.60910581613728,4675044558480226.0,6.239214056489507e+17,7024665154248243.0,1.7040166413714778e+16,192966527204697.34,1224339340987319.5,6.003393561624607e+16,5.337302880380693e+17
37.44128793246003,4675429549041669.0,6.376309075723622e+17,7025243637072847.0,1.704156968684812e+16,197373992116124.66,1252309407785261.2,6.140703833735543e+16,5.4603194296214304e+17
38.29011369110923,4675808610367113.0,6.516139444552858e+17,7025813210677118.0,1.7042951347959076e+16,201869431077087.9,1280837995456627.5,6.280755344785763e+16,5.5857911041189146e+17
