t(s),Total solute volume 1,Total retention volume 1,Total 1 volume 1,Total 2 volume 1,Total 3 volume 1,Total 4 volume 1,Total 5 volume 1,Total 6 volume 1
0.1,1388605447609674.5,1.2965503955258198e+16,3123970752525701.5,8452927755122823.0,0.0,0.0,0.0,-0.03849354864423057
0.202,1973089227797068.2,1.8436338057639424e+16,4438901885429283.5,1.2011061748702106e+16,14641211191.552876,107604729333.48538,2616058174778.6543,10546891595667.598
0.30604000000000003,2441690957728409.5,2.2835337431191016e+16,5493126512199864.0,1.4863672493855814e+16,36602387434.51979,269636388186.27203,7060272075964.836,29480956555337.617
0.41216080000000005,2843505491411691.0,2.6619466292765564e+16,6397098100483485.0,1.7309710071324092e+16,64582262943.7764,476192294614.6717,12966938507487.012,55644916481248.62
0.5204040160000001,3201812134476243.0,3.0005316009483652e+16,7203188865879569.0,1.949089189188791e+16,97937754853.08237,722491980195.5865,20154975096916.97,88447712407974.12
0.6308120963200001,3529367424627673.0,3.3111568507246316e+16,7940097551517662.0,2.148487455950752e+16,136310299778.51561,1005875306226.664,28523393848403.727,127563392139047.31
0.7434283382464002,3833901615714344.0,3.60101525836356e+16,8625215112626473.0,2.333871634915629e+16,179487437316.94058,1324766762716.2788,38011365149107.06,172803886789344.7
0.8582969050113283,4120473585316137.5,3.8748157995456504e+16,9269922633817626.0,2.5083213285898284e+16,227342311971.70438,1678225426860.9377,48581128230638.016,224061794454965.62
0.9754628431115548,4392593132190899.5,4.135827744406922e+16,9882116195826744.0,2.6739731293514304e+16,279803319417.8284,2065719622937.193,60209553232903.38,281281746362023.56
1.094972099973786,4652807322333911.0,4.3864260553769176e+16,1.0467525994773542e+16,2.832377562972599e+16,336837167974.381,2487001307276.7275,72883487023427.81,344444281437047.9
1.2168715419732616,4903031085999939.0,4.628398799920203e+16,1.1030460095159674e+16,2.9847003415242136e+16,398438645460.84283,2942030229553.344,86596965757131.66,413555968168154.06
1.3412089728127268,5144745583821387.0,4.8631315481209576e+16,1.1574250699280094e+16,3.1318431195234464e+16,464624056728.58,3430925319454.359,101349441097663.1,488643012399773.25
1.4680331522689813,5379123451297163.0,5.0917237577709224e+16,1.210153591293042e+16,3.2745197368279412e+16,535426818485.5742,3953932064730.5454,117144598961804.66,569746887357227.0
1.597393815314361,5607111268734960.0,5.315065385400388e+16,1.2614445280095336e+16,3.413306422334393e+16,610894394564.0692,4511399821326.821,133989544280604.36,656921243333174.1
1.729341691620648,5829485804512132.0,5.533889118379744e+16,1.311472631479881e+16,3.548676032103306e+16,691086102317.3711,5103765576128.182,151894222351061.7,750229669423916.4
1.863928525453061,6046893528633337.0,5.748807060384532e+16,1.3603833395718912e+16,3.681022103241846e+16,776071506645.9906,5731542061327.658,170870998898300.6,849744034608330.6
2.001207095962122,6259879087231837.0,5.960337162166246e+16,1.408299182596259e+16,3.810676187746557e+16,865929222916.2871,6395308896198.952,190934349915027.53,955543242968300.5
2.1412312378813647,6468906277625957.0,6.168922688607655e+16,1.4553245021154518e+16,3.937920621053659e+16,960746012029.8672,7095705891571.532,212100629484613.9,1067712295371310.4
2.284055862638992,6674373798067129.0,6.374946835759139e+16,1.50154899420219e+16,4.062998109681778e+16,1060616089080.9344,7833427935213.552,234387894268526.75,1186341582391788.2
2.4297369798917723,6876627274773889.0,6.578743894219651e+16,1.5470504151899102e+16,4.186119052673132e+16,1165640591290.414,8609221055979.085,257815769955705.56,1311526357189213.5
2.578331719489608,7075968584030964.0,6.780607904499216e+16,1.5918966788874982e+16,4.3074672164070344e+16,1275927166789.2656,9423879382214.854,282405349303357.6,1443366352163510.8
2.7298983538794,7272663174159763.0,6.9807994589978216e+16,1.63614750382028e+16,4.427204191836638e+16,1391589656505.729,10278242789028.168,308179114290830.94,1581965512512881.0
2.884496320956988,7466945885105290.0,7.179551112771772e+16,1.6798557224761914e+16,4.5454729371512504e+16,1512747848748.11,11173195083339.766,335160876878954.4,1727431826526981.2
3.0421862473761276,7659025623439350.0,7.377071735187813e+16,1.7230683330522146e+16,4.662400623674663e+16,1639527291221.6145,12109662613748.88,363375734248229.1,1879877237016803.2
3.2030299723236504,7849089154152143.0,7.573550044932802e+16,1.7658273525026154e+16,4.778100944109677e+16,1772059148898.802,13088613219487.123,392850035374284.2,2039417621310243.0
3.3670905717701234,8037304202974662.0,7.769157507984016e+16,1.8081705144756344e+16,4.892676001069259e+16,1910480098840.017,14111055452552.734,423611356513022.94,2206172829352126.0
3.5344323832055258,8223822014785971.0,7.96405073334539e+16,1.8501318448843292e+16,5.0062178645002824e+16,2054932255040.4429,15178038021775.146,455688483698766.7,2380266770846207.0
3.7051210308696363,8408779478815855.0,8.158373468958365e+16,1.891742140018338e+16,5.1188098653947096e+16,2205563117867.7188,16290649418570.33,489111400761431.5,2561827543339407.5
3.879223451487029,8592300905814651.0,8.352258276452571e+16,1.9330293663578884e+16,5.230527677636482e+16,2362525543787.2856,17450017692537.807,523911281680001.3,2750987593851017.5
4.0568079205167695,8774499523416901.0,8.545827945784016e+16,1.9740189969891932e+16,5.3414402282994024e+16,2525977731950.1313,18657310351548.703,560120486336488.7,2947883907117301.5
4.237944078927105,8955478741703384.0,8.739196697586563e+16,2.0147342963208524e+16,5.451610468053834e+16,2696083224906.1284,19913734366074.254,597772558934424.2,3152658213890023.0
4.422702960505647,9135333230167836.0,8.932471211034848e+16,2.05519656237152e+16,5.561096026766415e+16,2873010921251.3438,21220536261544.766,636902228509949.4,3365457213108565.5
4.61115701971576,9314149839013574.0,9.125751507336144e+16,2.095425334036101e+16,5.669949774336001e+16,3056935098455.28,22579002285772.66,677545411100851.6,3586432802141679.0
4.803380160110075,9492008391291872.0,9.31913171303264e+16,2.135438569294927e+16,5.778220302904845e+16,3248035444468.244,23990458641100.42,719739213254782.0,3815742309696404.5
4.9994477633122765,9668982367373358.0,9.512700722668104e+16,2.175252799200838e+16,5.88595234352788e+16,3446497096995.8755,25456271773062.04,763521936654955.8,4053548726495415.0
5.199436718578522,9845139499277736.0,9.706542776736757e+16,2.214883261586896e+16,5.993187127968534e+16,3652510689559.7847,26977848709067.625,808933083722502.1,4300020929414368.0
5.403425452950093,1.0020542289228224e+16,9.900737967954082e+16,2.2543440177267292e+16,6.099962704366587e+16,3866272403651.555,28556637442018.12,856013364121252.5,4555333895412559.0
5.611493962009095,1.0195248464256954e+16,1.0095362686594354e+17,2.2936480546081636e+16,6.206314213977372e+16,4087984026437.179,30194127354867.96,904804702143141.5,4819668902306848.0
5.823723841249277,1.036931137662755e+16,1.0290490013798402e+17,2.3328073750171736e+16,6.312274134927396e+16,4317853013585.7964,31891849683019.566,955350244991223.2,5093213714222899.0
6.040198318074262,1.0542780358160602e+16,1.0486190070268e+17,2.3718330772513036e+16,6.417872497908571e+16,4556092556885.746,33651378012092.746,1007694372004029.2,5376162750347633.0
6.261002284435747,1.0715701035170416e+16,1.0682530326555787e+17,2.4107354259717044e+16,6.523137077894792e+16,4802921656377.015,35474328809100.336,1061882704880430.1,5668717236376568.0
6.486222330124463,1.088811560958399e+16,1.0879575880172608e+17,2.449523915447097e+16,6.6280935652721256e+16,5058565196774.102,37362361985390.34,1117962118968802.0,5971085338798838.0
6.715946776726952,1.1060063110872912e+16,1.1077389703924629e+17,2.4882073262314984e+16,6.7327657192015624e+16,5323254027981.581,39317181489921.61,1175980755680105.5,6283482282844791.0
6.950265712261491,1.1231579622653634e+16,1.1276032869223963e+17,2.5267937761429904e+16,6.8371755055612776e+16,5597225049520.677,41340535931553.45,1235988036073860.0,6606130455488397.0
7.18927102650672,1.1402698487170492e+16,1.1475564747561971e+17,2.5652907662667396e+16,6.941343221425148e+16,5880721298691.256,43434219229069.8,1298034675650039.0,6939259495352537.0
7.433056447036854,1.1573450490346788e+16,1.1676043192873475e+17,2.6037052225863876e+16,7.045287607712281e+16,6173992042292.29,45600071287643.82,1362172700360420.5,7283106371710916.0
7.681717575977592,1.1743864029656156e+16,1.1877524707133238e+17,2.6420435337504636e+16,7.14902595137837e+16,6477292871718.646,47839978700406.54,1428455463832575.8,7637915454983188.0
7.935351927497144,1.1913965266714606e+16,1.2080064591202262e+17,2.6803115854013828e+16,7.252574178305962e+16,6790885801247.229,50155875473738.78,1496937665780524.5,8003938581179102.0
8.194058966047088,1.2083778266207422e+16,1.228371708266768e+17,2.718514791430144e+16,7.355946937876035e+16,7115039369318.733,52549743774858.836,1567675371558241.5,8381435112705159.0
8.45794014536803,1.225332512253231e+16,1.2488535482188664e+17,2.7566581224675772e+16,7.459157680062064e+16,7450028742617.629,55023614700239.664,1640726032797218.0,8770671997817891.0
8.72709894827539,1.242262607535574e+16,1.2694572269664234e+17,2.7947461318813144e+16,7.562218725774814e+16,7796135822751.298,57579569063381.47,1716148509058767.0,9171923830780390.0
9.0016409272409,1.2591699615130898e+16,1.2901879211371078e+17,2.832782979514433e+16,7.665141331096517e+16,8153649355332.259,60219738200483.82,1794003090425622.8,9585472914488958.0
9.281673745785717,1.2760562579504826e+16,1.3110507459076398e+17,2.8707724533743884e+16,7.76793574596867e+16,8522865041272.128,62946304792593.4,1874351520954111.0,1.0011609327040578e+16
9.567307220701432,1.292923024144236e+16,1.3320507642007802e+17,2.908717989458493e+16,7.870611267837635e+16,8904085650102.08,65761503702853.41,1957257022908244.2,1.0450630993413198e+16
9.85865336511546,1.3097716389815002e+16,1.3531929952456576e+17,2.946622689884178e+16,7.973176290713106e+16,9297621135145.184,68667622827555.3,2042784321701384.2,1.0902843763113914e+16
10.155826432417769,1.326603340313545e+16,1.3744824225699277e+17,2.9844893394772468e+16,8.075638350054107e+16,9703788750377.79,71667003959785.33,2130999671477378.2,1.1368561494356198e+16
10.458942961066125,1.3434192317057884e+16,1.3959240014843824e+17,3.022320420957578e+16,8.178004163859888e+16,10122913168827.764,74762043664535.03,2221970881269350.8,1.1848106145102914e+16
10.768121820287448,1.3602202886209574e+16,1.4175226661137754e+17,3.0601181288495292e+16,8.280279670309933e+16,10555326602366.945,77955194164219.31,2315767341681169.5,1.2341807871125518e+16
11.083484256693197,1.3770073640874088e+16,1.4392833360216528e+17,3.097884382234092e+16,8.382470062269962e+16,11001368922767.416,81248964233637.42,2412460052045730.0,1.28500051310484e+16
11.405153941827061,1.3937811939004984e+16,1.4612109224718157e+17,3.1356208364505772e+16,8.484579818955325e+16,11461387783902.66,84645920103496.33,2512121648022317.0,1.337304479820788e+16
11.733257020663602,1.4105424014005228e+16,1.483310334364484e+17,3.1733288938456284e+16,8.586612735016731e+16,11935738744980.646,88148686371663.12,2614826429600320.5,1.3911282279102516e+16
12.067922161076874,1.427291501866758e+16,1.5055864838812496e+17,3.2110097136586188e+16,8.688571947289123e+16,12424785394700.592,91759946921349.66,2720650389480992.0,1.4465081638183056e+16
12.409280604298411,1.4440289065639474e+16,1.5280442918694413e+17,3.2486642211251292e+16,8.790459959424538e+16,12928899476233.51,95482445845491.33,2829671241815703.0,1.503481572867062e+16
12.75746621638438,1.4607549264746426e+16,1.5506886929934266e+17,3.2862931158736984e+16,8.892278664612928e+16,13448461012933.402,99318988376637.83,2941968451284271.5,1.562086632905618e+16
13.112615540712067,1.477469775747346e+16,1.5735246406777e+17,3.323896879683176e+16,8.994029366572677e+16,13983858434685.973,103272441821669.95,3057623262497103.0,1.6223624284984502e+16
13.474867851526309,1.4941735748872448e+16,1.5965571118641766e+17,3.361475783661021e+16,9.095712798974243e+16,14535488704799.865,107345736500645.69,3176718729704375.0,1.684348965628275e+16
13.844365208556836,1.5108663537143206e+16,1.6197911116040582e+17,3.3990298948982084e+16,9.197329143447666e+16,15103757447350.97,111541866689116.64,3299339746800424.5,1.7480871868867008e+16
14.221252512727972,1.5275480541118326e+16,1.6432316775026912e+17,3.4365590826525772e+16,9.298878046313957e+16,15689079074896.781,115863891563309.5,3425573077615550.5,1.8136189871231692e+16
14.605677562982532,1.5442185325855826e+16,1.66688388403423e+17,3.474063024106461e+16,9.400358634164675e+16,16291876916473.936,120314936147531.58,3555507386484024.0,1.880987229530772e+16
14.997791114242183,1.560877562651781e+16,1.69075284674142e+17,3.5115412097387308e+16,9.501769528398024e+16,16912583345784.182,124898192263108.58,3689233269072151.0,1.9502357621575664e+16
15.397746936527026,1.5775248370702118e+16,1.7148437263345018e+17,3.5489929483488104e+16,9.603108858813291e+16,17551639909479.41,129616919478191.86,3826843283455007.0,2.021409434828447e+16
15.805701875257567,1.5941599699389962e+16,1.7391617327020342e+17,3.5864173717693012e+16,9.70437427636266e+16,18209497455467.62,134474446057870.25,3968431981438079.0,2.0945541164542424e+16
16.221815912762718,1.6107824986653454e+16,1.7637121288454294e+17,3.623813439299645e+16,9.805562965148214e+16,18886616261158.06,139474169913983.02,4114095940114994.0,2.1697167127120732e+16
16.64625223101797,1.627391885824175e+16,1.7885002347480365e+17,3.6611799418874856e+16,9.906671653736202e+16,19583466161548.57,144619559553918.25,4263933793641621.0,2.246945184096801e+16
17.079177275638333,1.6439875209157028e+16,1.8135314311887424e+17,3.6985155060827784e+16,1.0007696625856398e+17,20300526677059.44,149914155027698.88,4418046265210456.5,2.326288564341031e+16
17.5207608211511,1.6605687220341024e+16,1.8388111635093315e+17,3.735818597791815e+16,1.010863373056004e+17,21038287141042.57,155361568872827.06,4576536199224923.0,2.4077969791834652e+16
17.97117603757412,1.677134737458434e+16,1.8643449453441645e+17,3.773087525856357e+16,1.0209478391904565e+17,21797246826896.363,160965487056384.47,4739508593671466.0,2.4915216654668096e+16
18.430599558325603,1.69368474717396e+16,1.890138362320127e+17,3.810320445476186e+16,1.0310225618214566e+17,22577915074691.723,166729669913687.94,4907070632666568.0,2.5775149905710596e+16
18.899211549492115,1.7102178643307278e+16,1.916197075734218e+17,3.847515361490506e+16,1.0410870010960907e+17,23380811417203.91,172657953082723.0,5079331719151606.0,2.665830472194889e+16
19.37719578048196,1.7267331366483868e+16,1.9425268262157053e+17,3.884670131538405e+16,1.0511405773312483e+17,24206465705281.316,178754248433846.9,5256403507735328.0,2.7565227984703396e+16
19.864739696091597,1.743229547777229e+16,1.9691334373792784e+17,3.9217824691207976e+16,1.0611826718421486e+17,25055418232507.848,185022544994453.8,5438399937696848.0,2.8496478483808944e+16
20.36203449001343,1.7597060186220358e+16,1.9960228194752554e+17,3.958849946578735e+16,1.071212627748227e+17,25928219859084.387,191466909868047.34,5625437266131415.0,2.945262712483659e+16
20.869275179813698,1.7761614086320112e+16,2.0232009730425197e+17,3.995869997995378e+16,1.0812297507583808e+17,26825432134811.777,198091489146849.66,5817634101194084.0,3.0434257139664372e+16
21.38666068340997,1.792594517062328e+16,2.0506739925695376e+17,4.032839922034141e+16,1.091233309938914e+17,27747627421094.402,204900508817345.6,6015111435427239.0,3.144196430043192e+16
21.91439389707817,1.8090040842168656e+16,2.0784480701684854e+17,4.069756884734497e+16,1.1012225384700605e+17,28695389011955.195,211898275658702.94,6217992679205188.0,3.247635713645294e+16
22.452681775019734,1.8253887926797772e+16,2.1065294992672944e+17,4.106617922282647e+16,1.1111966343956826e+17,29669311254041.492,219089178133927.3,6426403694306246.0,3.353805715384267e+16
23.00173541052013,1.8417472685370476e+16,2.1349246783240912e+17,4.143419943759716e+16,1.1211547613668877e+17,30669999665512.785,226477687272929.7,6640472827553427.0,3.4627699058260868e+16
23.561770118730532,1.858078082588716e+16,2.1636401145683606e+17,4.1801597338689016e+16,1.1310960493799573e+17,31698071053689.613,234068357546604.97,6860330944468587.0,3.5745930981195292e+16
24.133005521105144,1.874379751559497e+16,2.192682427772915e+17,4.216833955659007e+16,1.1410195955132976e+17,32754153631463.92,241865827731930.2,7086111462976032.0,3.6893414709437144e+16
24.715665631527248,1.890650739318548e+16,2.2220583540605427e+17,4.253439153268619e+16,1.1509244646699691e+17,33838887132546.656,249874821768656.5,7317950387225733.0,3.807082591705883e+16
25.309978944157795,1.9068894581114336e+16,2.2517747497491232e+17,4.289971754697649e+16,1.1608096903276168e+17,34952922925519.055,258100149607341.4,7555986341504557.0,3.927885440002241e+16
25.91617852304095,1.9230942697997588e+16,2.2818385952386778e+17,4.326428074596186e+16,1.1706742752930994e+17,36096924126523.39,266546708047480.12,7800360604117978.0,4.051820431430645e+16
26.53450209350177,1.9392634871100092e+16,2.312256998943887e+17,4.362804317074002e+16,1.1805171924626912e+17,37271565710526.336,275219481565230.34,8051217141217370.0,4.1789594417786456e+16
27.165192135371807,1.9553953749040864e+16,2.3430372012752742e+17,4.399096578558943e+16,1.190337385595514e+17,38477534621311.85,284123543131904.44,8308702640700856.0,4.309375831489152e+16
27.808495978079243,1.971488151481896e+16,2.37418657867225e+17,4.435300850727354e+16,1.2001337701064624e+17,39715529880358.13,293264055024402.56,8572966546270337.0,4.443144470331128e+16
28.464665897640828,1.9875399899114972e+16,2.4057126476910954e+17,4.471413023496539e+16,1.2099052338759178e+17,40986262694495.56,302646269626773.44,8844161091516229.0,4.5803417623599864e+16
29.133959215593645,2.003549019377935e+16,2.4376230691507418e+17,4.507428888059291e+16,1.2196506380708317e+17,42290456562131.21,312275530221289.6,9122441333858318.0,4.721045671297698e+16
29.816638399905518,2.0195133265568536e+16,2.4699256523392845e+17,4.54334413997408e+16,1.229368817980888e+17,43628847378123.875,322157271769646.0,9407965188415972.0,4.865335746296655e+16
30.51297116790363,2.0354309570313428e+16,2.5026283592839043e+17,4.579154382352616e+16,1.2390585838809926e+17,45002183537693.13,332297021687159.06,9700893462059426.0,5.013293147916746e+16
31.223230591261704,2.0512999167588156e+16,2.5357393090869005e+17,4.61485512915984e+16,1.2487187219242014e+17,46411226039561.84,342700400611455.2,1.0001389887684164e+16,5.165000674274817e+16
31.947695203086937,2.067118173573868e+16,2.5692667823303834e+17,4.6504418085950184e+16,1.2583479950565776e+17,47856748588090.95,353373123163787.2,1.0309621158425294e+16,5.320542787551457e+16
32.686649107148675,2.082883658715935e+16,2.6032192255521715e+17,4.685909766528463e+16,1.2679451439471158e+17,49339537694183.02,364320998701262.4,1.0625756961616842e+16,5.480005641004924e+16
33.44038208929165,2.0985942683956624e+16,2.637605255795261e+17,4.721254270025468e+16,1.2775088879412475e+17,50860392775305.15,375549932062607.0,1.0949970012749838e+16,5.643477106360226e+16
34.20918973107749,2.114247865424214e+16,2.6724336652332944e+17,4.756470511011775e+16,1.2870379260526597e+17,52420126255304.39,387065924312504.8,1.1282436089822744e+16,5.8110468013312984e+16
34.993373525699035,2.1298422809057924e+16,2.707713425874256e+17,4.79155361008127e+16,1.296530937993579e+17,54019563664205.66,398875073485901.25,1.1623334068016874e+16,5.982806117303011e+16
35.793240996213015,2.1453753159686216e+16,2.7434536943446778e+17,4.826498620390192e+16,1.3059865852284878e+17,55659543737555.305,410983575328919.1,1.1972845954205254e+16,6.158848247475916e+16
36.60910581613728,2.160844743522588e+16,2.7796638167564758e+17,4.8613005316113736e+16,1.3154035120440578e+17,57340918515121.92,423397724034909.8,1.2331156921118058e+16,6.3392682156234104e+16
37.44128793246003,2.1762483100673652e+16,2.8163533336585482e+17,4.8959542740019336e+16,1.324780346649801e+17,59064553439692.82,436123912981177.3,1.2698455341681406e+16,6.5241629052079544e+16
