t(s),Total solute volume 1,Total retention volume 1,Total 1 volume 1,Total 2 volume 1,Total 3 volume 1,Total 4 volume 1,Total 5 volume 1,Total 6 volume 1
0.1,1090211262672958.4,1436790320131653.8,152346489675587.4,194232567783107.2,0.0,0.0,0.0,0.0
0.202,1641776359279933.2,2163725753247647.2,229422383629459.88,292499679798148.1,20809784.92005103,49435224.15299622,985542248.1789002,26274752847.375458
0.30604000000000003,2062042459996394.5,2717636816856851.5,288150510814597.25,367374494828627.1,52795382.71846193,125419527.9067507,2500417929.68107,66672584390.1676
0.41216080000000005,2417552983139364.5,3186218271164018.0,337829671608966.3,430712424023745.9,93776578.46519613,222773601.20375302,4441346805.731665,118434494955.49033
0.5204040160000001,2733280048813264.0,3602379621907727.5,381949478578294.0,486962512829937.9,142785491.5487016,339198161.8034312,6762485419.515969,180337217156.74094
0.6308120963200001,3021670904841403.0,3982524425184959.5,422249314356928.5,538342369088009.94,199303076.3782823,473460174.03391504,9439249858.719503,251724885510.52267
0.7434283382464002,3289961311510911.5,4336188305687717.5,459740306539367.6,586141119419606.0,263032731.79427943,624855037.5665475,12457592096.253578,332222737964.9654
0.8582969050113283,3542787037616482.5,4669480527239356.0,495070259026882.7,631184674674325.1,333807274.7864311,792985595.544748,15809593784.071236,421619535008.9337
0.9754628431115548,3783324968888994.5,4986587800301249.0,528683110906964.6,674039030375156.8,411543105.61836964,977653250.0100563,19491295326.211155,519809638458.4678
1.094972099973786,4013862755164049.5,5290524987091720.0,560898539141895.44,715111755340077.9,496214825.6162411,1178797664.363785,23501493687.7548,626760939514.6611
1.2168715419732616,4236111571211856.0,5583547269301266.0,591955663873119.2,754707713305900.2,587839986.4713031,1396460534.0852451,27841020073.076385,742495589800.7566
1.3412089728127268,4451390594501469.5,5867393258706324.0,622038827406524.5,793061929577639.1,686469361.445866,1630762475.1877735,32512279141.180492,867077709718.2354
1.4680331522689813,4660742089877440.0,6143436658825751.0,651293676184127.9,830360094571162.5,792180451.0374454,1881887596.3960228,37518941415.588165,1000605183543.2931
1.597393815314361,4865006515978253.0,6412785241832169.0,679837656180412.6,866751944809601.0,905072993.3972284,2150072833.7810993,42865730645.54395,1143203987432.2422
1.729341691620648,5064873394074778.0,6676347884446040.0,707767121331040.1,902360325740612.6,1025265775.3979094,2435600375.1943936,48558272769.770996,1295024160685.898
1.863928525453061,5260916848874105.0,6934881404151447.0,735162300016804.2,937287523703448.6,1152894320.080069,2738792166.609944,54602986387.966805,1456236884218.309
2.001207095962122,5453621105142248.0,7189024158978775.0,762090857970311.4,971619808419764.4,1288109183.8053463,3060005866.874805,61007002109.66118,1627032329306.6755
2.1412312378813647,5643399199819893.0,7439320706552910.0,788610513113377.6,1005430766753353.4,1431074689.4477692,3399631838.3034716,67778102554.98628,1807618057207.8926
2.284055862638992,5830606989694423.0,7686240263570849.0,814770992993848.8,1038783798323855.6,1581967979.0495543,3758090896.1860228,74924677486.10352,1998217822363.9475
2.4297369798917723,6015553821431007.0,7930190766914034.0,840615525819357.6,1071734016484736.1,1740978305.625556,4135832626.4132214,82455690265.31001,2199070677727.622
2.578331719489608,6198510785429696.0,8171529750722608.0,866181993854105.9,1104329718834515.9,1908306507.5122967,4533334136.75117,90380652958.90479,2410430310697.6685
2.7298983538794,6379717188980665.0,8410572876867909.0,891503837979774.9,1136613540477284.8,2084164624.568836,4951099145.096348,98709608159.50392,2632564558254.5664
2.884496320956988,6559385695887572.0,8647600708109073.0,916610775908223.9,1168623369700506.0,2268775626.4590526,5389657333.989293,107453116116.79388,2865755063686.958
3.0421862473761276,6737706452960547.0,8882864146162869.0,941529378819018.6,1200393083153051.5,2462373230.8964286,5849563918.841311,116622246129.1246,3110297046965.6685
3.2030299723236504,6914850436717888.0,9116588842182060.0,966283539028655.4,1231953142095197.2,2665201795.1907125,6331399390.296021,126228571406.84962,3366499167717.683
3.3670905717701234,7090972192755233.0,9348978806909382.0,990894852790951.5,1263331080445989.5,2877516268.3943768,6835769400.550399,136284166805.80537,3634683464753.3115
3.5344323832055258,7266212096967042.0,9580219390747198.0,1015382936280878.2,1294551907643566.5,3099582194.260171,7363304770.381838,146801608967.32782,3915185359780.78
3.7051210308696363,7440698236585117.0,9810479762840130.0,1039765688451538.8,1325638443771916.8,3331675757.395723,7914661598.793382,157793978504.17178,4208353715689.3506
3.879223451487029,7614547986164407.0,1.0039914988177734e+16,1064059511262936.4,1356611600339247.0,3574083866.6438627,8490521461.091622,169274863949.526,4514550941857.331
4.0568079205167695,7787869336735704.0,1.0268667779438184e+16,1088279495418245.1,1387490617080522.2,3827104270.973216,9091591684.19552,181258367245.78497,4834153140528.324
4.237944078927105,7960762023674677.0,1.0496869983597926e+16,1112439577972600.1,1418293262899141.8,4091045704.1342783,9718605690.27987,193759110595.7201,5167550289524.711
4.422702960505647,8133318489242055.0,1.0724643850687942e+16,1136552676838781.8,1449036007353574.2,4366228055.093533,10372323401.65688,206792244534.5482,5515146457524.445
4.61115701971576,8305624708411535.0,1.095210312240774e+16,1160630806188692.8,1479734167787252.0,4652982561.855029,11053531701.216415,220373457109.6906,5877360048881.545
4.803380160110075,8477760900937217.0,1.1179353970842608e+16,1184685175957909.8,1510402036190879.0,4951652026.753798,11763044943.874434,234518984077.4731,6254624075569.714
4.9994477633122765,8649802148202443.0,1.1406495811718182e+16,1208726278044341.5,1541052989100498.5,5262591051.685402,12501705515.381634,249245620044.05588,6647386454309.687
5.199436718578522,8821818929929658.0,1.1633622012064424e+16,1232763961308232.8,1571699583217987.2,5586166292.044534,13270384435.576784,264570730492.45532,7056110327329.711
5.403425452950093,8993877593093361.0,1.1860820508553366e+16,1256807497098252.2,1602353638952836.5,5922756728.395682,14069982003.764029,280512264649.3957,7481274405525.095
5.611493962009095,9166040763198004.0,1.2088174349901834e+16,1280865636723564.8,1633026313695611.0,6272753955.105152,14901428484.38375,297088769155.48895,7923373333043.505
5.823723841249277,9338367706333928.0,1.2315762174426e+16,1304946662047692.2,1663728166321997.0,6636562485.334518,15765684831.551203,314319402510.3318,8382918072537.635
6.040198318074262,9510914649014158.0,1.254365863197609e+16,1329058430182573.2,1694469214175096.8,7014600071.937567,16663743451.37499,332223950270.80707,8860436310506.926
6.261002284435747,9683735061649378.0,1.2771934757970716e+16,1353208413101487.0,1725258983569500.5,7407298043.922068,17596629001.25197,350822840986.597,9356472882300.834
6.486222330124463,9856879910584998.0,1.3000658306018274e+16,1377403732858789.5,1756106554694262.5,7815101658.239878,18565399225.575092,370137162861.65015,9871590216484.303
6.715946776726952,1.0030397882855586e+16,1.322989404460389e+16,1401651192997155.2,1787020601655328.2,8238470466.753964,19571145827.495796,390188681134.483,10406368798374.7
6.950265712261491,1.0204335587181026e+16,1.3459704022483806e+16,1425957306634856.5,1818009428285059.0,8677878698.30641,20614995376.56025,410999856173.67847,10961407652653.541
7.18927102650672,1.0378737734203766e+16,1.369014780674263e+16,1450328321652204.0,1849081000253432.2,9133815655.875196,21698110252.1902,432593862288.0349,11537324845038.793
7.433056447036854,1.0553647298530852e+16,1.3921282696889782e+16,1474770243335320.0,1880242973937498.2,9606786128.864014,22821689623.113518,454994607253.4397,12134758003072.115
7.681717575977592,1.0729105664778582e+16,1.4153163917893832e+16,1499288854784481.5,1911502722440765.8,10097310820.619373,23986970462.969063,478226752560.9443,12754364856141.309
7.935351927497144,1.0905152759512342e+16,1.438584479464817e+16,1523889735351446.0,1942867359099692.8,10605926791.312729,25195228602.412086,502315734392.5548,13396823794911.23
8.194058966047088,1.108182717071576e+16,1.4619376910021682e+16,1548578277334096.2,1974343758768353.0,11133187916.36546,26447779818.143238,527287785333.1757,14062834450388.441
8.45794014536803,1.125916625620441e+16,1.4853810248360156e+16,1573359701126218.5,2005938577133479.8,11679665360.630306,27745980959.368813,553169956828.8011,14753118292888.365
8.72709894827539,1.143720624221444e+16,1.5089193326060582e+16,1598239068994300.8,2037658268279048.5,12245948068.57498,29091231112.27524,579990142402.6135,15468419251216.678
9.0016409272409,1.1615982313237858e+16,1.5325573310630572e+16,1623221297631168.2,2069509100691402.8,12832643270.744526,30484972803.175663,607777101642.0826,16209504352413.158
9.281673745785717,1.1795528694041916e+16,1.5562996129468782e+16,1648311169617365.5,2101497171871848.8,13440377006.806288,31928693241.049507,636560484971.4315,16977164382442.219
9.567307220701432,1.197587872469297e+16,1.5801506569448702e+16,1673513343905044.8,2133628421702944.5,14069794665.507607,33423925600.260525,666370859225.1575,17772214568247.492
9.85865336511546,1.2157064929306862e+16,1.6041148368256656e+16,1698832365425161.5,2165908644697109.5,14721561541.901016,34972250344.29483,697239734039.3593,18595495281617.906
10.155826432417769,1.2339119079160622e+16,1.6281964298322376e+16,1724272673906701.8,2198343501240630.5,15396363412.215319,36575296591.41905,729199589078.8209,19447872765343.965
10.458942961066125,1.2522072250726858e+16,1.652399624408136e+16,1749838611986472.5,2230938527933085.5,16094907126.773033,38234743523.20844,762283902118.8058,20330239882169.055
10.768121820287448,1.2705954879126846e+16,1.6767285273224182e+16,1775534432678606.5,2263699147110601.5,16817921221.376358,39952321836.949554,796527178001.5684,21243516887070.69
11.083484256693197,1.289079680744291e+16,1.7011871702513552e+16,1801364306265537.0,2296630675631372.5,17566156547.605114,41729815242.97038,831964978488.5732,22188652223429.945
11.405153941827061,1.3076627332281156e+16,1.7257795158684748e+16,1827332326664899.8,2329738332993071.5,18340386922.490078,43569062007.997284,868633953030.3855,23166623343675.746
11.733257020663602,1.3263475245932858e+16,1.7505094634890356e+16,1853442517321221.5,2363027248844439.5,19141409798.045837,45471956545.69128,906571870477.1511,24178437555015.67
12.067922161076874,1.3451368875445922e+16,1.775380854309853e+16,1879698836665755.5,2396502469946211.0,19970046951.166656,47440451055.55885,945817651753.4884,25225132890887.605
12.409280604298411,1.3640336118883796e+16,1.8003974762812888e+16,1906105183183330.5,2430168966631043.5,20827145194.40807,49476557211.477516,986411403522.638,26307779008795.285
12.75746621638438,1.3830404479021494e+16,1.8255630686442356e+16,1932665400121017.8,2464031638806792.0,21713577108.197952,51582347901.13135,1028394452865.5013,27427478115211.72
13.112615540712067,1.4021601094701508e+16,1.8508813261616456e+16,1959383279869870.0,2498095321542976.5,22630241795.038624,53759959017.686104,1071809383001.2474,28585365918261.633
13.474867851526309,1.421395277005128e+16,1.8763559030710972e+16,1986262568047707.0,2532364790276052.0,23578065656.281723,56011591305.0893,1116700070077.0247,29782612608917.477
13.844365208556836,1.4407486001742094e+16,1.9019904167824388e+16,2013306967308345.2,2566844765665979.0,24558003192.076702,58339512258.423454,1163111721055.2498,31020423871468.156
14.221252512727972,1.4602227004453436e+16,1.927788451341891e+16,2040520140899949.0,2601539918132880.5,25571037825.116062,60746058080.78508,1211090912727.8752,32300041924045.35
14.605677562982532,1.4798201734689168e+16,1.9537535606822972e+16,2067905715993168.8,2636454872100223.5,26618182748.814037,63233635698.216,1260685631888.0322,33622746590016.484
14.997791114242183,1.4995435913079916e+16,1.979889271677009e+16,2095467286797620.5,2671594209968177.0,27700481800.583736,65804724834.25215,1311945316690.2637,34989856401079.66
15.397746936527026,1.5193955045291144e+16,2.006199087013599e+16,2123208417483626.8,2706962475838582.5,28819010360.891388,68461880145.71046,1364920899231.665,36402729732919.39
15.805701875257567,1.5393784441647324e+16,2.032686487901652e+16,2151132644924481.8,2742564179011259.0,29974876278.78955,71207733421.38057,1419664849387.1838,37862765974311.3
16.221815912762718,1.5594949235571334e+16,2.059354936628083e+16,2179243481273211.2,2778403797269149.0,31169220824.652233,74044995845.33601,1476231219933.1755,39371406730587.43
16.64625223101797,1.579747440092946e+16,2.0862078789719724e+16,2207544416386345.2,2814485779968528.5,32403219670.85543,76976460326.6328,1534675692994.6082,40930137062400.25
17.079177275638333,1.6001384768364982e+16,2.1132487464896652e+16,2236038920106353.0,2850814550948946.5,33678083901.167446,80005003897.21211,1595055627851.9639,42540486760754.24
17.5207608211511,1.6206705040694506e+16,2.140480958680468e+16,2264730444413198.5,2887394511276337.5,34995061049.6363,83133590179.87479,1657430110145.2634,44204031659296.3
17.97117603757412,1.6413459807436776e+16,2.1679079250418252e+16,2293622425454563.0,2924230041831416.0,36355436169.78354,86365271928.25378,1721860002513.3948,45922394984889.7
18.430599558325603,1.662167355853592e+16,2.195533047022488e+16,2322718285463501.0,2961325505754644.5,37760532934.93539,89703193640.75562,1788407996708.2637,47697248747518.6
18.899211549492115,1.6831370697337022e+16,2.2233597198813516e+16,2352021434571708.0,2998685250757916.0,39211714770.54725,93150594250.50313,1857138667224.1616,49530315170607.195
19.37719578048196,1.7042575552865894e+16,2.2513913344589064e+16,2381535272525506.5,3036313611312419.5,40710386019.39678,96710809893.3682,1928118526483.9487,51423368162858.71
19.864739696091597,1.725531239146229e+16,2.279631278867913e+16,2411263190311410.5,3074214910721147.0,42257993140.552635,100387276756.23332,2001416081624.8552,53378234832756.59
20.36203449001343,1.7469605427810166e+16,2.30808294010915e+16,2441208571697543.0,3112393463084041.5,43856025943.03978,104183534007.68515,2077101892927.6533,55396797046896.61
20.869275179813698,1.7685478835405392e+16,2.3367497056177684e+16,2471374794696391.5,3150853575162993.5,45506018855.157455,108103226813.40146,2155248633934.4082,57480993033352.734
21.38666068340997,1.7902956756499252e+16,2.3656349647453212e+16,2501765232954339.0,3189599548153328.0,47209552230.42271,112150109438.54759,2235931153300.9385,59632819031309.5
21.91439389707817,1.8122063311551456e+16,2.3947421101820772e+16,2532383257072566.5,3228635679367977.0,48968253691.14528,116328048439.57047,2319226538431.528,61854330988228.086
22.452681775019734,1.834282260822433e+16,2.4240745393240456e+16,2563232235863975.0,3267966263839888.0,50783799510.660065,120641025947.82652,2405214180944.674,64147646305845.27
23.00173541052013,1.8565258749948176e+16,2.4536356555885668e+16,2594315537550054.0,3307595595847993.0,52657916035.275116,125093143047.56119,2493975844019.733,66514945636339.56
23.561770118730532,1.878939584408377e+16,2.4834288696822908e+16,2625636530901559.5,3347527970371532.0,54592381147.01691,129688623250.80258,2585595731675.9263,68958474730031.92
24.133005521105144,1.9015258009707864e+16,2.5134576008249264e+16,2657198586326459.5,3387767684477043.5,56589025768.28493,134431816071.82047,2680160560036.27,71480546336025.11
24.715665631527248,1.9242869385044452e+16,2.5437252779319136e+16,2689005076908315.0,3428319038642355.5,58649735409.5551,139327200703.84875,2777759630630.362,74083542157221.88
25.309978944157795,1.9472254134562612e+16,2.5742353407590492e+16,2721059379398223.5,3469186338021112.0,60776451761.301094,144379389800.85483,2878484905791.485,76769914861195.48
25.91617852304095,1.9703436455761228e+16,2.604991241011797e+16,2753364875162851.0,3510373893651585.5,62971174331.33098,149593133367.19858,2982431086204.6875,79542190148432.05
26.53450209350177,1.993644058565885e+16,2.6359964434218164e+16,2785924951091390.5,3551886023612888.5,65235962128.770386,154973322758.10068,3089695690664.1577,82402968879487.53
27.165192135371807,2.0171290807005228e+16,2.667254426793138e+16,2818743000463501.5,3593727054131653.5,67572935395.94777,160524994793.91873,3200379138099.403,85354929262659.03
27.808495978079243,2.0408011454230748e+16,2.698768685020238e+16,2851822423780706.0,3635901320641872.0,69984277389.47743,166253335991.2853,3314584831931.46,88400829103794.5
28.464665897640828,2.0646626919147236e+16,2.730542728080091e+16,2885166629563048.0,3678413168800754.5,72472236211.85893,172163686914.26297,3432419246821.7954,91543508119910.06
29.133959215593645,2.0887161656415468e+16,2.7625800830000772e+16,2918779035113104.5,3721266955462631.0,75039126694.95047,178261546648.7317,3553992017878.0444,94785890318333.66
29.816638399905518,2.112964018878985e+16,2.79488429480375e+16,2952663067248876.0,3764467049613467.5,77687332336.70592,184552577403.3024,3679416032382.3857,98130986443116.61
30.51297116790363,2.1374087112153612e+16,2.8274589274360056e+16,2986822163007388.5,3808017833267859.5,80419307292.59499,191042609240.14703,3808807524109.884,101581896490517.39
31.223230591261704,2.1620527100353824e+16,2.8603075646693788e+16,3021259770320397.0,3851923702330520.0,83237578423.16513,197737644939.1948,3942286170305.846,105141812295389.27
31.947695203086937,2.18689848710782e+16,2.8934338111069548e+16,3055979343258279.0,3896189060581992.0,86144747266.10977,204643865051.02487,4079975403893.44,108814072134838.14
32.686649107148675,2.211948534510158e+16,2.926841292707246e+16,3090984364233921.5,3940818347789701.0,89143492728.96289,211767632831.855,4222001671944.717,112601957149743.48
33.44038208929165,2.2372053418791956e+16,2.9605336579981404e+16,3126278312286500.0,3985815999567641.5,92236572527.56035,219115499838.20386,4368495798335.874,116509001464588.95
34.20918973107749,2.262671412255766e+16,2.9945145787995748e+16,3161864685173729.5,4031186475345628.5,95426825994.17091,226694211156.2453,4519592259660.449,120538791622026.58
34.993373525699035,2.2883492586283812e+16,3.0287877510567996e+16,3197746994554276.0,4076934252276347.0,98717176299.54529,234510711038.4914,4675429503284.098,124695020062903.52
35.793240996213015,2.3142414043157124e+16,3.0633568956621796e+16,3233928766522166.5,4123063825916652.0,102110632869.91406,242572148645.6302,4836150061820.252,128981488182540.39
36.60910581613728,2.3403503833348464e+16,3.098225759267103e+16,3270413542121464.5,4169579710883846.0,105610293871.3408,250885883948.37457,5001900670794.445,133402109468658.94
37.44128793246003,2.3666787407559692e+16,3.1333981150847628e+16,3307204877841849.5,4216486441487443.0,109219348763.17914,259459493793.476,5172832389581.053,137960912726538.44
38.29011369110923,2.393229033043772e+16,3.16887776368493e+16,3344306346095725.0,4263788572337438.5,112941080922.42186,268300778138.15543,5349100725697.538,142662045393648.44
39.15591596493141,2.4200038283862004e+16,3.2046685337815064e+16,3381721535677619.5,4311490678930067.0,116778870340.77806,277417766457.2973,5530865762542.936,147509776946056.1
40.03903428423004,2.4470057070109396e+16,3.2407742830137756e+16,3419454052206428.5,4359597358211604.5,120736196396.34268,286818724327.86005,5718292290668.774,152508502398960.34
40.93981496991464,2.474237261490011e+16,3.2771988987219556e+16,3457507518551053.5,4408113229121042.0,124816640701.7762,296512160195.0386,5911549942673.234,157662745903736.03
41.85861126931294,2.5017010970328e+16,3.3139462987178132e+16,3495885575239896.5,4457042933112158.5,129023890030.93877,306506832324.8095,6110813331810.628,162977164443945.47
42.7957834946992,2.529399831767783e+16,3.3510204320510256e+16,3534591880854527.5,4506391134655429.0,133361739325.97661,316811755947.5928,6316262194410.473,168456551632793.8
43.751699164593184,2.5573361027408508e+16,3.3884252796090136e+16,3573630120398469.5,4556162531854202.0,137834095066.6209,327436210718.0995,6528081225856.072,174105764897294.28
