t(s),Total solute volume 1,Total retention volume 1,Total 1 volume 1,Total 2 volume 1,Total 3 volume 1,Total 4 volume 1,Total 5 volume 1,Total 6 volume 1
0.1,1301436301972856.8,2401541677724917.5,422763850992510.6,677341524759550.8,0.0,0.0,0.0,-2.162416271574588e-76
0.202,1952676970114990.8,3614828108715690.5,634315529798803.8,1016284374264308.0,2773526029.9925303,9362737502.181154,314599019748.5441,11224499254304.508
0.30604000000000003,2446916312978080.0,4544664586630154.0,794866250439367.2,1273514711546021.0,7020507342.172384,23699683193.15938,796634484772.573,28539956991377.668
0.41216080000000005,2862720427052109.5,5334728634127296.0,929937751265396.0,1489922877171343.5,12443743675.953358,42007469319.85369,1412242057859.685,50680885367593.84
0.5204040160000001,3229866263430619.5,6039390291750559.0,1049202898929972.8,1681006499567444.2,18907796819.133526,63828872848.34735,2146029601230.7908,77085863551623.67
0.6308120963200001,3563236135566572.0,6685792405623011.0,1157496124857072.2,1854511184316875.2,26337261262.752415,88909336618.84871,2989431494679.644,107444282789927.69
0.7434283382464002,3871492095829650.0,7289725781874143.0,1257631245439101.2,2014945157658760.8,34686407701.76912,117094486606.67651,3937254195241.6567,141568247857077.16
0.8582969050113283,4160186395704282.5,7861315452095935.0,1351411876662209.8,2165198127921150.8,43926672454.51909,148287897451.2546,4986254117461.184,179340583120929.47
0.9754628431115548,4433123530707098.0,8407507775334553.0,1440073886340319.8,2307250171505590.5,54040475082.75189,182430221540.86893,6134435158510.272,220689280926421.78
1.094972099973786,4693041189806856.0,8933312428559725.0,1524506596502464.2,2442526137836966.0,65017782554.941,219487590125.74133,7380658385436.079,265573340655326.28
1.2168715419732616,4941984568721513.0,9442484349551904.0,1605374376849998.8,2572090463361547.0,76854035427.93121,259444612427.88144,8724406479453.402,313974235491526.6
1.3412089728127268,5181527378374885.0,9937925936806196.0,1683188438044124.2,2696762196954854.0,89548816955.26991,302299882765.79675,10165632579333.334,365890442153287.0
1.4680331522689813,5412909845043335.0,1.0421937917909872e+16,1758351660235618.8,2817186823068609.5,103104957577.85304,348062957464.54596,11704658580089.838,421333763067174.9
1.597393815314361,5637128847977446.0,1.089638303895497e+16,1831187873736902.5,2933883174489039.0,117527909296.38405,396752242844.7836,13342104085205.889,480326758514248.94
1.729341691620648,5854999017316729.0,1.1362796906903806e+16,1901961706317410.8,3047275231175490.0,132825295068.5957,448393474067.458,15078835237222.482,542900898087831.44
1.863928525453061,6067195454122995.0,1.182246541701947e+16,1970892460553147.0,3157714354201451.5,149006576015.6677,503018591683.1991,16915926927846.443,609095196046323.9
2.001207095962122,6274284399769607.0,1.2276480288754348e+16,2038164076595895.2,3265495247853200.0,166082800437.55344,560664894355.1136,18854634298711.22,678955182542127.5
2.1412312378813647,6476745760437916.0,1.2725779818164216e+16,2103932449122374.2,3370867682661882.0,184066411165.63434,621374388518.7046,20896370867041.867,752532114275327.6
2.284055862638992,6674989980505032.0,1.3171179381975576e+16,2168330908554138.8,3474045277276326.5,202971095477.80206,685193281725.433,23042691484679.54,829882359778188.9
2.4297369798917723,6869370904384376.0,1.3613394672819146e+16,2231474399150243.2,3575212192498104.5,222811666691.9976,752171582927.4656,25295278894419.4,911066914642399.2
2.578331719489608,7060195732759558.0,1.4053059673979856e+16,2293462713230750.0,3674528313073159.0,243603969754.7655,822362783765.5823,27655933011107.246,996151015151757.9
2.7298983538794,7247732836291972.0,1.4490740758411634e+16,2354383029413312.0,3772133314390624.5,265364805290.2427,895823602176.4362,30126562298985.32,1085203827609275.1
2.884496320956988,7432217964033412.0,1.4926947886241964e+16,2414311929379201.0,3868149893694653.0,288111868050.8782,972613774617.7224,32709176784389.082,1178298196707640.5
3.0421862473761276,7613859231661013.0,1.5362143598660914e+16,2473317018271811.0,3962686366246179.0,311863696745.56946,1052795886701.6387,35405882360362.72,1275510440538085.2
3.2030299723236504,7792841170135422.0,1.5796750316343114e+16,2531458239879262.0,4055838772475389.5,336639632959.07623,1136435234519.0671,38218876123591.8,1376920182861980.5
3.3670905717701234,7969328042266769.0,1.623115631788955e+16,2588788954001238.0,4147692604111766.0,362459787412.0572,1223599710744.5903,41150442544860.96,1482610215466745.8
3.5344323832055258,8143466582680942.0,1.666572067949717e+16,2645356826510687.5,4238324230218605.0,389345012205.33984,1314359710943.3713,44202950319013.32,1592666385044785.5
3.7051210308696363,8315388279151046.0,1.7100777389059162e+16,2701204570430890.0,4327802084528007.5,417316877986.207,1408788056494.0898,47378849773797.414,1707177500240921.8
3.879223451487029,8485211285803036.0,1.7536638798168088e+16,2756370567428921.5,4416187661182096.0,446397655196.795,1506959931292.5295,50680670742228.66,1826235255425304.0
4.0568079205167695,8653042038360521.0,1.7973598538673672e+16,2810889392518376.0,4503536355398504.0,476610298734.5206,1608952829973.8025,54111020822378.38,1949934168445187.8
4.237944078927105,8818976626347241.0,1.8411934002862584e+16,2864792259811153.5,4589898177642718.0,507978435485.65936,1714846515833.9888,57672583963400.91,2078371530146772.5
4.422702960505647,8983101965614166.0,1.8851908465445292e+16,2918107403406000.0,4675318363878047.0,540526354295.4504,1824722986977.2793,61368119328219.92,2211647363877608.2
4.61115701971576,9145496805720982.0,1.929377290956539e+16,2970860404630342.0,4759837899864280.0,574278998018.6221,1938666449486.4873,65200460392439.36,2349864393509852.5
4.803380160110075,9306232599876300.0,1.9737767606722812e+16,3023074474635250.0,4843493973924322.0,609261957358.0841,2056763296630.2979,69172514246293.96,2493128018786652.5
4.9994477633122765,9465374259825982.0,2.018412349090818e+16,3074770699616413.5,4926320369830873.0,645501466250.6438,2179102093293.242,73287261072256.36,2641546297003081.0
5.199436718578522,9622980813903940.0,2.063306335971686e+16,3125968254578028.5,5008347809293723.0,683024398599.7833,2305773564953.3623,77547753775597.56,2795229930202013.0
5.403425452950093,9779105983158466.0,2.108480292925912e+16,3176684590484048.5,5089604251808742.0,721858266188.9463,2436870590645.3276,81957117748987.88,2954292257202082.5
5.611493962009095,9933798687835540.0,2.1539551764941676e+16,3226935598786269.5,5170115158260509.0,762031217636.1372,2572488199439.0728,86518550755329.16,3118849249886977.5
5.823723841249277,1.0087103494389934e+16,2.1997514106396704e+16,3276735756633207.5,5249903723572548.0,803572038273.0315,2712723570039.751,91235322915562.44,3289019513277102.0
6.040198318074262,1.023906101149155e+16,2.245888960176876e+16,3326098255510452.5,5328991082811447.0,846510150850.4475,2857676033177.5625,96110776790298.48,3464924288981006.5
6.261002284435747,1.038970824211092e+16,2.2923873964083284e+16,3375035115613516.0,5407396494432286.0,890875616987.4625,3007447076508.3555,101148327545882.92,3646687461687167.0
6.486222330124463,1.0539078897638594e+16,2.3392659560388416e+16,3423557287887690.0,5485137503764300.0,936699139294.3959,3162140351789.3374,106351463196971.62,3834435568409781.5
6.715946776726952,1.0687203679065122e+16,2.3865435942699748e+16,3471674745367675.5,5562230089352894.0,984012064110.8011,3321861684131.335,111723744918930.1,4028297810246916.5
6.950265712261491,1.083411052948399e+16,2.4342390328401644e+16,3519396565201642.5,5638688794376559.0,1032846384808.8107,3486719083159.843,117268807424420.97,4228406066447037.0
7.18927102650672,1.097982486154472e+16,2.4823708036622184e+16,3566731002538040.0,5714526845026490.0,1083234745619.9796,3656822755943.7373,122990359399425.75,4434894910611959.5
7.433056447036854,1.1124369762955414e+16,2.5309572886153204e+16,3613685557281927.5,5789756257461812.0,1135210445950.5374,3832285121573.052,128892183994712.89,4647901628891805.0
7.681717575977592,1.1267766182692308e+16,2.5800167559692764e+16,3660267034583928.5,5864387934723587.0,1188807445155.6106,4013220827286.6274,134978139369415.23,4867566240051088.0
7.935351927497144,1.141003310020157e+16,2.6295673938526004e+16,3706481599804531.0,5938431754797105.0,1244060367748.009,4199746766067.08,141252159283937.94,5094031517305068.0
8.194058966047088,1.15511876795667e+16,2.6796273411198664e+16,3752334828594422.0,6011896650849379.0,1301004509021.4177,4391982095635.193,147718253739911.06,5327443011843622.0
8.45794014536803,1.1691245410348996e+16,2.730214715926483e+16,3797831752645666.0,6084790684530542.0,1359675841071.5527,4590048258788.138,154380509665320.44,5567949077974437.0
8.72709894827539,1.1830220236583502e+16,2.781347642278861e+16,3842976901595276.5,6157121113110754.0,1420111019202.1426,4794069005037.238,161243091643320.7,5815700899831501.0
9.0016409272409,1.1968124675221064e+16,2.8330442747937116e+16,3887774341500438.0,6228894451124080.0,1482347388705.3757,5004170413510.487,168310242683558.84,6070852519605761.0
9.281673745785717,1.2104969925142624e+16,2.885322821870977e+16,3932227710251120.0,6300116527105801.0,1546422992009.0825,5220480917093.2705,175586285035125.53,6333560867265988.0
9.567307220701432,1.2240765967730876e+16,2.938201567459722e+16,3976340250240191.0,6370792535935720.0,1612376576185.0046,5443131327788.768,183075621040492.7,6603985791745996.0
9.85865336511546,1.2375521659863354e+16,2.9916988915749524e+16,4020114838571702.5,6440927087236857.0,1680247600814.5227,5672254863285.602,190782734030031.5,6882290093583458.0
10.155826432417769,1.2509244820086056e+16,3.0458332897045024e+16,4063554015053851.0,6510524250225345.0,1750076246210.012,5907987174726.371,198712189256895.8,7168639559001910.0
10.458942961066125,1.2641942308636026e+16,3.100623391229265e+16,4106660008193810.5,6579587595358569.0,1821903421991.4697,6150466375676.282,206868634872230.0,7463202995434325.0
10.768121820287448,1.277362010190265e+16,3.156087976965943e+16,4149434759386122.5,6648120233089153.0,1895770776019.4082,6399833072294.946,215256802940824.22,7766152268492352.0
11.083484256693197,1.2904283361849254e+16,3.2122459959295016e+16,4191879945463806.5,6716124849995878.0,1971720703686.4124,6656230394719.549,223881510497475.44,8077662340390170.0
11.405153941827061,1.3033936500855952e+16,3.269116581401832e+16,4233996999762222.5,6783603742531637.0,2049796357570.6643,6919804029670.614,232747660644444.5,8397911309836850.0
11.733257020663602,1.3162583242393628e+16,3.3267190663840972e+16,4275787131828653.5,6850558848601601.0,2130041657455.8484,7190702254295.334,241860243690496.62,8727080453414835.0
12.067922161076874,1.329022667789232e+16,3.385072998501893e+16,4317251345895644.0,6916991777160765.0,2212501300722.741,7469075971266.1875,251224338332138.88,9065354268466038.0
12.409280604298411,1.341686932012731e+16,3.444198154425629e+16,4358390458223160.5,6982903835999145.0,2297220773118.535,7755078745155.479,260845112877740.2,9412920517510650.0
12.75746621638438,1.3542513153411e+16,3.5041145538619696e+16,4399205113403134.5,7048296057864409.0,2384246359910.69,8048866840108.73,270727826515297.16,9769970274225852.0
13.112615540712067,1.3667159680847198e+16,3.5648424731669492e+16,4439695799709712.0,7113169225055815.0,2473625157432.7095,8350599258842.017,280877830624705.56,1.0136697971015744e+16
13.474867851526309,1.3790809968877554e+16,3.626402458626387e+16,4479862863569931.5,7177523892608627.0,2565405085029.9253,8660437782990.124,291300570135436.2,1.051330144820429e+16
13.844365208556836,1.391346468932435e+16,3.6888153394451176e+16,4519706523221062.0,7241360410175620.0,2659634897413.6978,8978547014834.676,302001584930582.44,1.0899982004887294e+16
14.221252512727972,1.4035124159113946e+16,3.752102240482571e+16,4559226881614545.0,7304678942701468.0,2756364197433.0586,9305094420442.14,312986511298312.6,1.1296944451479582e+16
14.605677562982532,1.4155788377844626e+16,3.816284594769081e+16,4598423938619613.0,7367479489975057.0,2855643449273.1567,9640250374243.52,324261083431766.7,1.1704397163996284e+16
14.997791114242183,1.427545706334608e+16,3.881384155834159e+16,4637297602574675.0,7429761905136808.0,2957523992090.131,9984188205088.346,335831134978525.9,1.212255214010832e+16
15.397746936527026,1.4394129685363412e+16,3.947423009875448e+16,4675847701229309.0,7491525912209673.0,3062058054092.5737,10337084243807.22,347702600640783.3,1.2551625057013448e+16
15.805701875257567,1.4511805497483936e+16,4.014423587794703e+16,4714073992115516.0,7552771122715699.0,3169298767079.6626,10699117872317.264,359881517827384.1,1.299183533116509e+16
16.221815912762718,1.4628483567414018e+16,4.0824086771248744e+16,4751976172382971.0,7613497051433825.0,3279300181446.7266,11070471574305.975,372374028358931.5,1.3443406179903282e+16
16.64625223101797,1.4744162805702246e+16,4.151401433870818e+16,4789553888129530.0,7673703131349028.0,3392117281668.625,11451330987530.012,385186380227182.75,1.3906564685030982e+16
17.079177275638333,1.4858841992995618e+16,4.22142539428407e+16,4826806743255329.0,7733388727838011.0,3507806002272.054,11841884957765.059,398324929409954.9,1.4381541858381746e+16
17.5207608211511,1.4972519805907358e+16,4.292504486591066e+16,4863734307865696.0,7792553152132322.0,3626423244307.5947,12242325594444.125,411796141742802.56,1.486857270942369e+16
17.97117603757412,1.508519484156718e+16,4.3646630426924584e+16,4900336126246265.0,7851195674095672.0,3748026892332.5776,12652848328021.617,425606594848711.6,1.536789631494634e+16
18.430599558325603,1.5196865640918142e+16,4.43792580985019e+16,4936611724430670.0,7909315534348949.0,3872675831915.9473,13073651969100.81,439762980127101.4,1.587975589087604e+16
18.899211549492115,1.5307530710818474e+16,4.512317962377965e+16,4972560617380340.0,7966911955773281.0,4000429967676.258,13504938769362.322,454272104803367.9,1.6404398866267276e+16
19.37719578048196,1.5417188545001046e+16,4.5878651133494904e+16,5008182315793013.0,8023984154418582.0,4131350241863.8896,13946914484331.387,469140894040283.94,1.6942076959515814e+16
19.864739696091597,1.5525837643939182e+16,4.664593326338315e+16,5043476332555979.0,8080531349842804.0,4265498653498.8535,14399788438022.09,484376393112491.25,1.7493046256841234e+16
20.36203449001343,1.5633476533662422e+16,4.742529127202284e+16,5078442188858317.0,8136552774904680.0,4402938278075.118,14863773589495.617,499985769645383.56,1.805756729308454e+16
20.869275179813698,1.574010378356252e+16,4.821699515924592e+16,5113079419975041.0,8192047685031139.0,4543733287842.763,15339086601370.572,515976315919623.75,1.863590513486837e+16
21.38666068340997,1.5845718023227298e+16,4.90213197852322e+16,5147387580735567.0,8247015366978473.0,4687948972678.718,15825947910322.412,532355451242574.25,1.9228329466165292e+16
21.91439389707817,1.5950317958335746e+16,4.983854499039773e+16,5181366250686959.0,8301455147105127.0,4835651761557.475,16324581799609.26,549130724387869.94,1.983511467632091e+16
22.452681775019734,1.6053902385646522e+16,5.066895571618162e+16,5215015038963071.0,8355366399172495.0,4986909244632.109,16835216473660.723,566309816104386.1,2.0456539950576868e+16
23.00173541052013,1.6156470207108956e+16,5.151284212683249e+16,5248333588868206.0,8408748551689161.0,5141790195936.984,17358084134766.275,583900541695828.6,2.109288936313965e+16
23.561770118730532,1.6258020443123642e+16,5.237049973229179e+16,5281321582184966.0,8461601094812508.0,5300364596722.151,17893421061898.984,601910853672153.9,2.174445197283981e+16
24.133005521105144,1.6358552244979126e+16,5.324222951226575e+16,5313978743214054.0,8513923586821335.0,5462703659430.554,18441467691710.848,620348844474037.4,2.241152192142607e+16
24.715665631527248,1.645806490648779e+16,5.412833804157784e+16,5346304842554170.0,8565715660172019.0,5628879852328.098,19002468701734.055,639222749271547.5,2.30943985345383e+16
25.309978944157795,1.6556557874844544e+16,5.50291376168858e+16,5378299700629511.0,8616977027149839.0,5798966924796.995,19576673095824.01,658540948838246.8,2.3793386425403036e+16
25.91617852304095,1.6654030760729936e+16,5.59449463848493e+16,5409963190971482.0,8667707485127292.0,5973039933302.471,20164334291877.242,678311972501819.8,2.450879560129362e+16
26.53450209350177,1.6750483347678196e+16,5.687608847183101e+16,5441295243262103.0,8717906921439805.0,6151175268042.841,20765710211859.367,698544501172422.8,2.5240941572798576e+16
27.165192135371807,1.6845915600730774e+16,5.782289411520813e+16,5472295846144852.0,8767575317889439.0,6333450680292.877,21381063374174.97,719247370449823.8,2.59901454659387e+16
27.808495978079243,1.694032767439429e+16,5.8785699796375e+16,5502965049809856.0,8816712754886667.0,6519945310450.017,22010660988413.97,740429573810515.9,2.6756734137174816e+16
28.464665897640828,1.7033719919921748e+16,5.976484837551288e+16,5533302968359132.0,8865319415240076.0,6710739716793.243,22654775052505.15,762100265875826.6,2.754104029134681e+16
29.133959215593645,1.7126092891935842e+16,6.076068922819988e+16,5563309781958183.0,8913395587603313.0,6905915904963.756,23313682452310.61,784268765762135.9,2.834340260258316e+16
29.816638399905518,1.721744735441153e+16,6.177357838393811e+16,5592985738779288.0,8960941669588909.0,7105557358177.059,23987665063690.895,806944560514271.1,2.9164165838222292e+16
30.51297116790363,1.7307784286036344e+16,6.280387866666777e+16,5622331156742833.0,9007958170558026.0,7309749068175.404,24677009857073.445,830137308623117.6,3.000368098578218e+16
31.223230591261704,1.739710488496537e+16,6.385195983734207e+16,5651346425062022.0,9054445714095346.0,7518577566929.739,25382009004554.027,853856843628480.5,3.0862305383019336e+16
31.947695203086937,1.7485410572988684e+16,6.491819873863308e+16,5680032005596425.0,9100405040177730.0,7732130959100.235,26102959989561.977,878113177808226.2,3.1740402851113292e+16
32.686649107148675,1.757270299912767e+16,6.600297944183855e+16,5708388434020484.0,9145837007046348.0,7950498955263.857,26840165719119.246,902916505954712.2,3.263834383101494e+16
33.44038208929165,1.7658984042678458e+16,6.710669339606131e+16,5736416320811950.0,9190742592790434.0,8173772905918.356,27593934638722.605,928277209239505.1,3.355650552299627e+16
34.20918973107749,1.7744255815718518e+16,6.822973957972735e+16,5764116352066211.0,9235122896651816.0,8402045836270.617,28364580849878.816,954205859167397.5,3.4495272029437284e+16
34.993373525699035,1.782852066509386e+16,6.93725246545158e+16,5791489290141861.0,9278979140059418.0,8635412481818.622,29152424230321.824,980713221620675.6,3.5455034500887924e+16
35.793240996213015,1.79117811739042e+16,7.053546312176548e+16,5818535974143079.0,9322312667401936.0,8873969324735.086,29957790556940.81,1007810260994638.5,3.643619128543985e+16
36.60910581613728,1.799404016250273e+16,7.171897748142909e+16,5845257320244440.0,9365124946548380.0,9117814631061.596,30781011631448.242,1035508144425354.1,3.7439148081445704e+16
37.44128793246003,1.8075300689027464e+16,7.292349839364352e+16,5871654321863572.0,9407417569124524.0,9367048488721.697,31622425408816.426,1063818246110586.2,3.8464318093619816e+16
38.29011369110923,1.8155566049482276e+16,7.414946484298298e+16,5897728049687286.0,9449192250555132.0,9621772846360.92,32482376128511.652,1092752151724894.4,3.951212219255822e+16
39.15591596493141,1.8234839777383324e+16,7.539732430546448e+16,5923479651556972.0,9490450829879914.0,9882091553023.05,33361214448554.184,1122321662929852.9,4.058298907771276e+16
40.03903428423004,1.8313125642989016e+16,7.666753291837552e+16,5948910352218294.0,9531195269352824.0,10148110398670.227,34259297582433.062,1152538801980393.2,4.16773554438538e+16
40.93981496991464,1.8390427652131276e+16,7.796055565298946e+16,5974021452941553.0,9571427653833586.0,10419937155556.182,35176989438905.25,1183415816428187.5,4.279566615106019e+16
41.85861126931294,1.8466750044663124e+16,7.92768664902391e+16,5998814331017505.0,9611150189980106.0,10697681620460.385,36114660764707.08,1214965183923136.2,4.393837439826988e+16
