t(s),Total solute volume 1,Total retention volume 1,Total 1 volume 1,Total 2 volume 1,Total 3 volume 1,Total 4 volume 1,Total 5 volume 1,Total 6 volume 1
0.1,988500314890707.8,1201179625827040.0,98333854761724.14,114345456174609.27,0.0,0.0,0.0,0.0
0.202,1489073104495933.2,1809454581562606.5,148129744232835.5,172249561020203.78,2691096.417936608,5548848.00173676,89471349.57299982,2074102338.163231
0.30604000000000003,1870377980076156.8,2272801878636780.0,186061121546188.03,216357266400177.0,6827880.135991604,14078603.331633406,227009175.29801527,5262698599.96757
0.41216080000000005,2192917316110536.8,2664740963071077.5,218146631145379.53,253667227231442.88,12128226.956840977,25007544.248550504,403232907.1667833,9348215041.916023
0.5204040160000001,2479361343412411.0,3012819544457655.0,246641458159954.97,286801838227741.0,18466939.802690558,38077522.992256254,613979953.7275283,14234133130.945671
0.6308120963200001,2741006334743783.5,3330764274133820.5,272669331168045.28,317067803573832.2,25776888.34033779,53150121.476873994,857018360.8093966,19868702785.469467
0.7434283382464002,2984418091155971.0,3626553577343717.5,296883401737646.3,345224626854229.2,34019717.54466307,70146254.31231259,1131072900.483413,26222356997.127575
0.8582969050113283,3213802852570704.5,3905298663850276.5,319702097441640.5,371758867783846.4,43173813.334323704,89021354.7702112,1435424947.7494478,33278433962.573578
0.9754628431115548,3432043027129933.0,4170502093307377.0,341412153954824.2,397003950919379.9,53228373.540581,109753149.53175889,1769715351.1663973,41028606362.97406
1.094972099973786,3641214162042758.5,4424685971550153.0,362220042186273.7,421199966620436.5,64180124.69915755,132334888.9406139,2133835272.6259093,49470350393.98829
1.2168715419732616,3842868758044811.5,4669736827139654.0,382280201522749.06,444526501483742.4,76031349.42758794,156771279.5924212,2527860601.6637845,58605425129.74422
1.3412089728127268,4038203663327688.0,4907109019668388.0,401711691811689.4,467122001751859.2,88788628.08060144,183075889.71603197,2952010118.1215243,68438902513.11208
1.4680331522689813,4228164495921126.5,5137951628306532.0,420608581072022.9,489095852444528.25,102461998.78636715,211269417.22693318,3406617565.127685,78978519864.68889
1.597393815314361,4413513789330701.5,5363191258744270.0,439046724473572.2,510536260152482.4,117064376.79684566,241378492.46829244,3892112343.738759,90234232288.03384
1.729341691620648,4594877145636208.0,5583588125958383.0,457088355546605.6,531515591829040.25,132611142.0754763,273434827.84563875,4409005801.118686,102217894762.20686
1.863928525453061,4772775480804371.0,5799775236975903.0,474785293875217.06,552094104788972.0,149119840.24316475,307474601.1984404,4957881287.641388,114943031617.07306
2.001207095962122,4947648156735520.0,6012286499683978.0,492181246222864.9,572322622523995.1,166609962.38929573,343538001.7858545,5539386836.086681,128424666801.7829
2.1412312378813647,5119869957747114.0,6221577351731324.0,509313495315927.6,592244498469262.8,185102781.28449926,381668892.56894016,6154229716.072353,142679197630.41797
2.284055862638992,5289763798813998.0,6428040202892099.0,526214164031725.56,611897086037841.1,204621228.91704875,421914557.699314,6803172362.407502,157724300381.7626
2.4297369798917723,5457610405688885.0,6632016197824404.0,542911178355783.56,631312858375335.4,225189804.96465227,464325513.7944213,7487029331.9800625,173578859745.4142
2.578331719489608,5623655802949431.0,6833804315142196.0,559429012276430.9,650520274544930.2,246834508.88045534,508955369.903648,8206665045.764811,190262916470.68997
2.7298983538794,5788117186526051.0,7033668503398015.0,575789271971050.1,669544458836101.6,269582790.33009577,555860725.3130388,8962992140.963713,207797629161.26065
2.884496320956988,5951187586414386.0,7231843346966203.0,592011159642550.0,688407740127102.8,293463514.12946904,605101097.2494378,9756970305.262589,226205247247.46948
3.0421862473761276,6113039610259914.0,7428538615053857.0,608111845922987.8,707130084926707.1,318506936.8224955,656738872.5855179,10589605498.091923,245509092931.19595
3.2030299723236504,6273828479510959.0,7623942951081620.0,624106771903451.8,725729448583299.6,344744692.74421555,710839279.1028922,11461949487.25425,265733550442.34378
3.3670905717701234,6433694514601222.0,7818226892557086.0,640009896354605.8,744222062760104.5,372209787.9265517,767470372.9262311,12375099646.30166,286904061340.7112
3.5344323832055258,6592765186362609.0,8011545363856631.0,655833899796755.5,762622672733766.0,400936600.5808986,826703039.5183861,13330198970.579308,309047124887.5147
3.7051210308696363,6751156822543708.0,8204039749912229.0,671590354260576.6,780944734797057.1,430960887.173027,888611006.2064179,14328436279.199938,332190302727.6194
3.879223451487029,6908976037593453.0,8395839633626966.0,687289865518893.8,799200581650093.2,462319793.3182038,953270864.6466258,15371046577.28009,356362227287.3609
4.0568079205167695,7066320938527336.0,8587064261199627.0,702942193043597.9,817401561889745.8,495051868.88697016,1020762101.9716153,16459311558.171268,381592613418.0479
4.237944078927105,7223282148198487.0,8777823785571548.0,718556351798448.9,835558158377231.0,529197086.8374878,1091167139.6213279,17594560229.590702,407912272912.0208
4.422702960505647,7379943678592158.0,8968220327631152.0,734140699112472.1,853680089257040.2,564796865.3884085,1164571379.061964,18778169650.817406,435353131593.66425
4.61115701971576,7536383680103849.0,9158348886722512.0,749703009216549.6,871776394630232.2,601894093.2233918,1241063253.755988,20011565770.68363,463948248747.307
4.803380160110075,7692675087623400.0,9348298125758914.0,765250537514424.4,889855511290626.8,640533157.4798515,1320734286.8729875,21296224358.134857,493731838691.2609
4.9994477633122765,7848886180245219.0,9538151051381842.0,780790076261468.8,907925337469695.4,680759974.3236976,1403679154.3326957,22633672018.76957,524739294345.22186
5.199436718578522,8005081068285084.0,9727985605787446.0,796328003012051.2,925993289172555.1,722622021.9517183,1489995752.8536265,24025487292.091114,557007212668.9415
5.403425452950093,8161320118799986.0,9917875183826926.0,811870322949322.1,944066349400275.1,766168375.8956504,1579785272.7476642,25473301825.28691,590573421875.1014
5.611493962009095,8317660328629874.0,1.0107889086590734e+16,827422705999540.8,962151111323488.5,811449746.7340153,1673152278.7991521,26978802861.83842,625477232927.2415
5.823723841249277,8474155653793274.0,1.0298092920708506e+16,842990519579750.5,980253816298091.2,858518518.9070163,1770204777.884841,28543729619.00589,661758584457.305
6.040198318074262,8630857298583604.0,1.0488548951169888e+16,858578857386406.0,998380387438277.4,907428793.6339828,1871054325.9908311,30169882046.066242,699459396433.9446
6.261002284435747,8787813973698078.0,1.0679316414036432e+16,874192565053416.0,1016536459387636.1,958236431.8263528,1975816104.4094949,31859117388.378407,738622727373.4111
6.486222330124463,8945072124843540.0,1.0870451794515942e+16,889836262898378.2,1034727404785424.6,1010999100.0035062,2084609017.471175,33613352923.57094,779293027569.5691
6.715946776726952,9102676136802106.0,1.1062009074972246e+16,905514366222602.4,1052958357872010.0,1065776317.9816357,2197555790.8753066,35434567547.09712,821516175868.7544
6.950265712261491,9260668515950564.0,1.125403995675417e+16,921231103467730.5,1071234235601927.4,1122629508.5274372,2314783074.0729604,37324803423.10615,865339517943.6222
7.18927102650672,9419090053954884.0,1.1446594059151322e+16,936990532499708.4,1089559756579344.4,1181622048.9756842,2436421546.698723,39286167700.607574,910811906080.7982
7.433056447036854,9577979974965012.0,1.1639719098301522e+16,952796555251422.5,1107939458084940.1,1242819324.8170388,2562606029.065059,41320834295.14329,957983740487.211
7.681717575977592,9737376068304936.0,1.1833461048474486e+16,968652930922380.4,1126377711424894.8,1306288785.2689273,2693475596.7456837,43431045736.39054,1006907012125.0288
7.935351927497144,9897314808373826.0,1.2027864287816496e+16,984563287906255.2,1144878735800556.5,1372100000.8480163,2829173699.286025,45619115082.31388,1057635347089.4355
8.194058966047088,1.005783146324162e+16,1.2222971730359078e+16,1000531134593710.8,1163446610870309.2,1440324722.9679763,2969848283.0897455,47887427900.65396,1110224052547.584
8.45794014536803,1.0218960193222662e+16,1.2418824945850548e+16,1016559869178307.8,1182085288152150.0,1511036945.59095,3115651918.53984,50238444318.69645,1164730164260.5403
8.72709894827539,1.038073414054386e+16,1.2615464268768198e+16,1032652788576479.9,1200798601396086.0,1584312968.9653225,3266741931.4215407,52674701142.40629,1221212495713.393
9.0016409272409,1.054318551107974e+16,1.2812928897691974e+16,1048813096558372.1,1219590276038926.2,1660231465.486335,3423280538.722378,55198814046.14155,1279731688881.7183
9.281673745785717,1.0706345649004526e+16,1.3011256986073326e+16,1065043911174066.2,1238463937839707.8,1738873547.7197745,3585434988.892431,57813479834.28466,1340350266665.348
9.567307220701432,1.087024510510654e+16,1.3210485725304208e+16,1081348271549347.4,1257423120781992.5,1820322838.6323621,3753377706.6545377,60521478776.241425,1403132687023.1409
9.85865336511546,1.1034913699419266e+16,1.3410651420881994e+16,1097729144116094.5,1276471274318786.5,1904665544.075698,3927286442.4612303,63325677016.36518,1468145398844.7686
10.155826432417769,1.1200380578745562e+16,1.3611789562370494e+16,1114189428334678.1,1295611770026660.2,1991990527.5736697,4107344426.701262,66229029060.46649,1535456899598.1116
10.458942961066125,1.13666742695842e+16,1.3813934887776336e+16,1130731961958973.2,1314847907728097.8,2082389387.4662175,4293740528.764842,69234580340.66608,1605137794792.994
10.768121820287448,1.1533822726909438e+16,1.4017121442887436e+16,1147359525888833.5,1334182921134063.0,2175956536.4652157,4486669421.082363,72345469860.44585,1677260859304.1194
11.083484256693197,1.1701853379202606e+16,1.4221382636060042e+16,1164074848649756.2,1353619983053122.8,2272789283.6809483,4686331748.257389,75564932921.83951,1751901100598.5002
11.405153941827061,1.1870793170091652e+16,1.4426751288884858e+16,1180880610535076.2,1373162210208063.8,2372987919.1803565,4892934301.420098,78896303936.80127,1829135823914.344
11.733257020663602,1.2040668596914298e+16,1.4633259683117966e+16,1197779447442150.0,1392812667696755.8,2476655801.1409745,5106690197.932661,82343019324.87444,1909044699440.7876
12.067922161076874,1.221150574648745e+16,1.4840939604218434e+16,1214773954430619.8,1412574373129787.2,2583899445.6670175,5327819066.58397,85908620499.37032,1991709831549.6296
12.409280604298411,1.2383330328335398e+16,1.5049822381800368e+16,1231866689027882.5,1432450300474161.5,2694828619.336755,5556547238.415914,89596756944.35497,2077215830132.3882
12.75746621638438,1.2556167705602444e+16,1.525993892727364e+16,1249060174304204.5,1452443383629137.8,2809556434.5527406,5793107943.329292,93411189384.8283,2165649884097.913
13.112615540712067,1.273004292385382e+16,1.547131976892046e+16,1266356901737782.0,1472556519757789.2,2928199447.7693934,6037741512.622152,97355793052.56403,2257101837087.7876
13.474867851526309,1.2904980737946166e+16,1.5683995084629102e+16,1283759333887766.2,1492792572395293.0,3050877760.674565,6290695587.61955,101434561050.16647,2351664265468.8374
13.844365208556836,1.3081005637133292e+16,1.5897994732484928e+16,1301269906891693.2,1513154374353009.0,3177715124.4047832,6552225334.558113,105651607815.98808,2449432558663.991
14.221252512727972,1.325814186855405e+16,1.6113348279398874e+16,1318891032802047.0,1533644730435491.8,3308839046.8761473,6822593665.895211,110011172692.63712,2550505001884.7246
14.605677562982532,1.3436413459237306e+16,1.6330085027935806e+16,1336625101775255.8,1554266419985937.2,3444380903.3157334,7102071468.21723,114517623601.89316,2654982861330.547
14.997791114242183,1.3615844236744772e+16,1.654823404149061e+16,1354474484125180.2,1575022199274014.2,3584476050.080903,7390937836.92718,119175460828.9399,2762970471922.8535
15.397746936527026,1.3796457848561432e+16,1.676782416794519e+16,1372441532252044.5,1595914803738906.8,3729263941.8566957,7689480317.897938,123989320918.91054,2874575327642.6426
15.805701875257567,1.397827778033338e+16,1.6988884061927686e+16,1390528582456684.0,1616946950098967.0,3878888252.3243113,7997995156.282394,128963980688.83887,2989908174543.8076
16.221815912762718,1.4161327373043636e+16,1.7211442205783834e+16,1408737956649187.8,1638121338338558.8,4033496998.3962297,8316787552.677913,134104361358.1938,3109083106515.687
16.64625223101797,1.4345629839208354e+16,1.743552692936117e+16,1427071963960021.5,1659440653581530.8,4193242668.116695,8646171926.84858,139415532801.27783,3232217663870.879
17.079177275638333,1.4531208278168442e+16,1.7661166428697104e+16,1445532902261230.2,1680907567860127.5,4358282352.328945,8986472189.214125,144902717924.86453,3359432934836.5605
17.5207608211511,1.4718085690545408e+16,1.7888388783694174e+16,1464123059604474.5,1702524741787145.2,4528777880.213649,9338022020.32096,150571297174.53705,3490853660029.771
17.97117603757412,1.4906284991923676e+16,1.8117221974858692e+16,1482844715582104.0,1724294826138659.0,4704895958.80583,9701165158.516903,156426813173.31683,3626608339999.354
18.430599558325603,1.509582902581694e+16,1.8347693899173316e+16,1501700142617031.2,1746220463353923.2,4886808316.600924,10076255696.057037,162474975496.22675,3766829345919.8423
18.899211549492115,1.5286740575970944e+16,1.8579832385165348e+16,1520691607186584.5,1768304288958475.8,5074691851.363356,10463658383.875229,168721665584.59796,3911653033524.7275
19.37719578048196,1.5479042378050802e+16,1.8813665207232e+16,1539821370985143.8,1790548932916109.8,5268728782.254607,10863748945.261793,175172941803.97586,4061219860369.1045
19.864739696091597,1.5672757130757028e+16,1.904922009927399e+16,1559091692029908.2,1812957020914700.5,5469106806.400489,11276914398.69511,181835044649.6288,4215674506514.245
20.36203449001343,1.5867907506410502e+16,1.9286524767688516e+16,1578504825713904.8,1835531175590649.0,5676019260.021364,11703553390.080894,188714402103.75555,4375165998729.027
20.869275179813698,1.606451616104441e+16,1.95256069037659e+16,1598063025809909.5,1858274017696263.0,5889665284.251555,12144076534.661034,195817635148.60425,4539847838305.998
21.38666068340997,1.6262605744037054e+16,1.9766494195532536e+16,1617768545428658.2,1881188167214043.2,6110249995.778396,12598906768.860022,203151563439.83243,4709878132592.195
21.91439389707817,1.6462198907317016e+16,2.000921433907898e+16,1637623637934598.8,1904276244421498.8,6337984662.4346,13068479712.34431,210723211144.54355,4885419730337.855
22.452681775019734,1.6663318314170604e+16,2.0253795049407356e+16,1657630557822010.0,1927540870909938.0,6573086883.8809805,13553244040.578436,218539812948.57935,5066640360968.71
23.00173541052013,1.6865986647677626e+16,2.0500264070832936e+16,1677791561554205.8,1950984670560312.8,6815780777.520792,14053661868.167793,226608820237.73712,5253712777890.383
23.561770118730532,1.7070226618801616e+16,2.074864918696863e+16,1698108908368285.8,1974610270479028.8,7066297169.790083,14570209143.28669,234937907457.73553,5446814905936.625
24.133005521105144,1.7276060974156278e+16,2.0998978230322e+16,1718584861047770.5,1998420301896361.8,7324873792.972849,15103376053.498186,243534978657.8554,5646129993075.17
24.715665631527248,1.7483512503470482e+16,2.125127909152926e+16,1739221686665164.5,2022417401029957.0,7591755487.693194,15653667443.279364,252408174223.33444,5851846766489.393
25.309978944157795,1.769260404677106e+16,2.1505579728251944e+16,1760021657296531.5,2046604209915718.2,7867194411.241031,16221603243.575087,261565877801.69888,6064159593155.351
25.91617852304095,1.7903358501301808e+16,2.1761908173757308e+16,1780987050709721.0,2070983377208144.8,8151450251.89162,16807718913.710737,271016723428.3864,6283268645038.322
26.53450209350177,1.8115798828195348e+16,2.2020292545203816e+16,1802120151028132.0,2095557558952131.0,8444790449.383632,17412565896.00347,280769602857.10516,6509380069035.262
27.165192135371807,1.8329948058913704e+16,2.228076105165047e+16,1823423249371362.0,2120329419327975.0,8747490421.724426,18036712083.41944,290833673100.5614,6742706161792.775
27.808495978079243,1.8545829301471692e+16,2.254334200180709e+16,1844898644474316.5,2145301631371254.2,9059833798.49545,18680742300.634247,301218364187.28534,6983465549534.161
28.464665897640828,1.876346574645607e+16,2.2808063811542852e+16,1866548643285975.0,2170476877669136.8,9382112660.835001,19345258798.86131,311933387140.4647,7231883373031.423
29.133959215593645,1.898288067285296e+16,2.3074955011166064e+16,1888375561549093.5,2195857851034411.0,9714627788.280134,20030881764.8237,322988742184.8008,7488191477862.01
29.816638399905518,1.9204097453693204e+16,2.3344044252489616e+16,1910381724361801.8,2221447255158587.8,10057688912.65322,20738249844.251427,334394727187.58777,7752628610093.359
30.51297116790363,1.942713956152657e+16,2.3615360315693296e+16,1932569466722141.5,2247247805245069.2,10411614979.183926,21468020680.297443,346161946340.3209,8025440617541.154
31.223230591261704,1.965203057373165e+16,2.3888932115993064e+16,1954941134056298.8,2273262228623412.0,10776734415.060675,22220871467.273014,358301319087.3106,8306880656750.991
31.947695203086937,1.987879417766938e+16,2.4164788710126156e+16,1977499082731263.0,2299493265345444.0,11153385405.61069,22997499520.112713,370824089307.8988,8597209405856.168
32.686649107148675,2.010745417568503e+16,2.4442959302658628e+16,2000245680552416.5,2325943668763895.0,11541916178.311565,23798622859.98718,383741834759.03143,8896695283467.246
33.44038208929165,2.0338034489962828e+16,2.4723473252119876e+16,2023183307246451.5,2352616206093919.0,11942685294.84112,24624980816.49055,397066476785.0645,9205614673752.383
34.20918973107749,2.057055916723472e+16,2.500636007696715e+16,2046314354929799.2,2379513658957830.0,12356061951.376223,25477334646.8369,410810290301.7879,9524252157870.27
34.993373525699035,2.0805052383343772e+16,2.529164946137974e+16,2069641228562585.8,2406638823912945.0,12782426287.355244,26356468172.50708,424985914061.8133,9852900751919.488
35.793240996213015,2.1041538447659136e+16,2.5579371260880164e+16,2093166346387807.8,2433994512962278.5,13222169702.92053,27263188433.79453,439606361208.5061,10191862151571.623
36.60910581613728,2.128004180733784e+16,2.586955550777596e+16,2116892140355298.0,2461583554047559.0,13675695185.261663,28198326362.702606,454685030125.8105,10541446983556.096
37.44128793246003,2.152058705142437e+16,2.616223241641223e+16,2140821056529558.5,2489408791523439.5,14143417644.080664,29162737474.651577,470235715591.297,10901975064166.994
38.29011369110923,2.176319891477724e+16,2.6457432388221264e+16,2164955555480327.0,2517473086611670.5,14625764256.40277,30157302579.455013,486272620239.87683,11273775664963.256
39.15591596493141,2.200790228180508e+16,2.6755186016548176e+16,2189298112654273.5,2545779317833330.5,15123174820.956026,31182928512.02631,502810366345.5959,11657187785832.537
40.03903428423004,2.225472218999259e+16,2.705552409122946e+16,2213851218725726.8,2574330381416638.5,15636102122.34246,32240548883.275043,519864007928.8995,12052560435590.348
40.93981496991464,2.2503683833189572e+16,2.7358477602891532e+16,2238617379923878.8,2603129191677452.5,16165012305.221643,33331124851.647873,537449043196.71796,12460252920282.543
41.85861126931294,2.2754812564631384e+16,2.7664077746931076e+16,2263599118333233.5,2632178681368631.5,16710385258.723715,34455645915.76176,555581427322.5793,12880635139358.02
42.7957834946992,2.300813389965137e+16,2.797235592712981e+16,2288798972163456.0,2661481801993800.5,17272715011.304394,35615130728.56764,574277585573.7799,13314087889873.53
43.751699164593184,2.3263673518039416e+16,2.828334375884734e+16,2314219495983974.5,2691041524080209.0,17852510136.245773,36810627933.46521,593554426792.4507,13761003178886.916
44.72673314788505,2.3521457265991548e+16,2.859707307172632e+16,2339863260917944.0,2720860837404222.5,18450294167.998978,38043217022.77263,613429357236.9359,14221784544188.229
