t(s),Total solute volume 1,Total retention volume 1,Total 1 volume 1,Total 2 volume 1,Total 3 volume 1,Total 4 volume 1,Total 5 volume 1,Total 6 volume 1
0.1,1090211262672958.4,1436790320131653.8,152346489675587.4,194232567783107.2,0.0,0.0,0.0,0.0
0.202,1641784514276815.0,2163718018374829.0,229423523211460.66,292501132696270.5,6737113.010225232,16004523.450659044,319066703.6609155,8506381940.838629
0.30604000000000003,2062063165910703.5,2717617206368506.0,288153404266019.44,367378183804218.2,17092452.749672372,40604447.472597554,809507818.1165732,21585182847.19914
0.41216080000000005,2417589773616849.0,3186183448593048.5,337834812722657.94,430718978632837.6,30360231.4270583,72123105.31607056,1437889055.161506,38343248310.771774
0.5204040160000001,2733336076416866.0,3602326609065113.0,381957307894461.56,486972494734662.8,46227144.76064206,109816216.13382132,2189370824.030271,58384604937.83445
0.6308120963200001,3021749117902427.5,3982450436121302.0,422260243876381.8,538356303564492.7,64525195.8363171,153284689.34910703,3055996170.7998586,81496971945.70786
0.7434283382464002,3290064541648374.5,4336090664305395.5,459754731953501.44,586159510950455.6,85158403.5346551,202300513.92571867,4033219106.434125,107559075040.99457
0.8582969050113283,3542918050623304.0,4669356619333522.0,495088566828530.9,631208016014537.1,108072686.44566856,256735215.03683364,5118478153.09858,136502581088.46753
0.9754628431115548,3783486497583499.0,4986435042575712.0,528705682981079.25,674067808404960.4,133241024.53547342,316524604.3648396,6310493540.064304,168293347011.8298
1.094972099973786,4014057522258603.0,5290340805578679.0,560925755961215.75,715146455139216.5,160655242.147401,381649259.94192773,7608878017.65588,202921037123.7861
1.2168715419732616,4236342306184861.5,5583329083432469.0,591987906855879.2,754748821159557.8,190321070.96961737,452122797.8247592,9013903023.619799,240392885280.24185
1.3412089728127268,4451660046644609.5,5867138468989998.0,622076480739669.1,793109935300950.4,222255000.65796658,527984390.4919077,10526349519.236994,280729715864.5069
1.4680331522689813,4661053038789889.0,6143142636930696.0,651337128289781.4,830415493378850.0,256482176.58041143,609293772.7646914,12147408420.548832,323963287810.4277
1.597393815314361,4865361780295970.0,6412449322336037.0,679887300935712.5,866815238871203.8,293034946.58185846,696127789.5290394,13878611769.18153,370134458631.0203
1.729341691620648,5065275838946321.0,6675967357765572.0,707823359112810.4,902432025512377.1,331951828.8249307,788577943.757619,15721783846.556202,419291880440.4641
1.863928525453061,5261369392527117.0,6934453510330013.0,735225538619155.9,937368149098214.0,373276763.35526574,886748618.5426371,17679005726.085876,471491054429.65924
2.001207095962122,5454126724780440.0,7188546082104940.0,762161513428698.2,971709889857581.9,417058561.06065404,990755768.0537919,19752589174.478752,526793634721.94293
2.1412312378813647,5643960937021829.0,7438789569648429.0,788689010459009.8,1005530846123319.9,463350493.80197424,1100725943.86121,21945057239.308403,585266910577.4471
2.284055862638992,5831227955439527.0,7685653123829668.0,814857766956032.1,1038894429879554.9,512209987.977567,1216795566.9729483,24259129735.45649,646983419267.9698
2.4297369798917723,6016237200846714.0,7929544611203554.0,840711021488875.9,1071855767690012.1,563698395.520753,1339110383.8211706,26697712398.983128,712020656774.3746
2.578331719489608,6199259842331686.0,8170821491279575.0,866286667317663.2,1104463171172340.8,617880824.0065384,1467825062.6669776,29263888840.554058,780460863156.8691
2.7298983538794,6380535270261647.0,8409799347136145.0,891618156933283.0,1136759290231668.5,674826012.6946415,1603102899.1307044,31960914674.52211,852390865956.3834
2.884496320956988,6560276235798654.0,8646758658677692.0,916735220255087.2,1168782028719282.0,734606244.8719518,1745115607.9544144,34792213367.236565,927901969452.4346
3.0421862473761276,6738672977320577.0,8881950240771424.0,941664441258351.8,1200565279597801.2,797297289.3346083,1894043183.9879463,37761373465.47338,1007089880732.3925
3.2030299723236504,6915896567079605.0,9115599653765456.0,966429725637457.6,1232139521183501.0,862978365.6170185,2050073819.5877085,40872146949.57396,1090054665759.451
3.3670905717701234,7092101650551736.0,9347910813660200.0,991052683603534.8,1263532305190157.8,931732128.8565356,2213403868.6615996,44128448516.57478,1176900730245.5718
3.5344323832055258,7267428707658843.0,9579068972176208.0,1015552945868383.8,1294768659589486.5,1003644671.1259439,2384237849.8345113,47534355643.28902,1267736821327.418
3.7051210308696363,7442005933824381.0,9809243195819424.0,1039948426503839.2,1325871423740941.2,1078805536.7697523,2562788482.881007,51094109312.63909,1362676046932.5042
3.879223451487029,7615950815991202.0,1.0038588442952276e+16,1064255543175036.6,1356861529175828.0,1157307749.8122218,2749276753.835397,54812115311.73329,1461835910394.879
4.0568079205167695,7789371461818904.0,1.026724731559383e+16,1088489402882897.0,1387758236407751.2,1239247851.9117203,2943932005.155501,58692946029.439865,1565338358393.2146
4.237944078927105,7962367727608780.0,1.049535154597516e+16,1112663959580735.8,1418579335884272.8,1324725949.6501973,3146992048.062648,62741342696.09076,1673309840681.285
4.422702960505647,8135032180909946.0,1.072302326523188e+16,1136792148689175.5,1449341319485303.2,1413845770.1918435,3358703294.7634363,66962218019.570526,1785881380390.5356
4.61115701971576,8307450926422380.0,1.0950376091945634e+16,1160886002508128.0,1480059527666373.0,1506714724.5383368,3579320908.7178054,71360659181.19168,1903188653928.7869
4.803380160110075,8479704318147939.0,1.1177516070780556e+16,1184956749732984.2,1510748276335826.0,1603443977.761726,3809108971.483016,75941931162.04959,2025372079693.1497
4.9994477633122765,8651867576330415.0,1.140454248565015e+16,1209014901666054.2,1541420966769151.0,1704148525.7193658,4048340664.9562745,80711480376.37679,2152576914971.028
5.199436718578522,8824011324263982.0,1.1631548567286236e+16,1233070327230354.2,1572090181247042.5,1808947277.854898,4297298468.075278,85674938593.14879,2284953360529.0737
5.403425452950093,8996202057311619.0,1.1858622111475118e+16,1257132318510402.8,1602767766615952.8,1917963145.7706344,4556274367.229208,90838127131.03072,2422656672492.4873
5.611493962009095,9168502554295204.0,1.2085846021352468e+16,1281209648239997.0,1633464907581530.8,2031323137.3234987,4825570079.791332,96207061314.93542,2565847281201.646
5.823723841249277,9340972239669692.0,1.2313298784843772e+16,1305310620412581.5,1664192191233801.2,2149158456.0518174,5105497290.315546,101787955185.05757,2714690916802.5435
6.040198318074262,9513667503484594.0,1.2541054896479328e+16,1329443114992746.0,1694959664051618.5,2271604605.786581,5396377899.049038,107587226451.45718,2869358741386.216
6.261002284435747,9686641984989952.0,1.2769185231302418e+16,1353614627547423.0,1725776882430032.5,2398801500.3394737,5698544282.505185,113611501689.08682,3030027487540.9966
6.486222330124463,9859946824809366.0,1.2997757377359792e+16,1377832304484677.2,1756652957607622.8,2530893578.1927776,6012339565.918888,119867621769.72049,3196879603223.0215
6.715946776726952,1.0033630889837442e+16,1.3226835932250826e+16,1402102974480873.0,1787596595734260.8,2668029922.144539,6338117907.473456,126362647528.56876,3370103402886.082
6.950265712261491,1.0207740974384032e+16,1.3456482768379522e+16,1426433176588696.5,1818616133707119.5,2810364383.8861837,6676244794.2450695,133103865664.51042,3549893224842.1
7.18927102650672,1.0382321980565838e+16,1.3686757270863046e+16,1450829185445126.8,1849719571309307.5,2958055713.5112166,7027097349.861286,140098794873.86407,3736449594850.255
7.433056447036854,1.055741708050816e+16,1.3917716551474062e+16,1475297033937558.5,1880914600107840.2,3111267693.97145,7391064653.912891,147355192218.48795,3929979395955.7705
7.681717575977592,1.073306786255569e+16,1.4149415641515322e+16,1499842533635355.0,1912208629502568.5,3270169280.513803,7768548073.197569,154881059729.76917,4130696044620.016
7.935351927497144,1.0909314463384294e+16,1.4381907666119554e+16,1524471293251150.2,1943608810263324.2,3434934745.1449866,8159961604.907615,162684651250.74335,4338819673201.6064
8.194058966047088,1.1086195687647538e+16,1.461524400212858e+16,1549188735360390.8,1975122055846224.2,3605743826.184245,8565732231.904872,170774479519.19104,4554577318864.569
8.45794014536803,1.1263749116574822e+16,1.4849474421417738e+16,1574000111576770.5,2006755061741484.5,3782781882.9761953,8986300290.253765,179159323495.1321,4778203119004.601
8.72709894827539,1.1442011206749704e+16,1.508464722128633e+16,1598910516355601.5,2038514323071911.5,3966240055.8463664,9422119849.209013,187848235936.62167,5009938513297.652
9.0016409272409,1.1621017380141652e+16,1.5320809343327768e+16,1623924899574891.5,2070406150632948.0,4156315431.392149,9873659103.877838,196850551228.2404,5250032452488.106
9.281673745785717,1.1800802106328202e+16,1.5558006482014212e+16,1649048078025060.2,2102436685541402.5,4353211213.210689,10341400780.798336,206175893467.0922,5498741614044.657
9.567307220701432,1.1981398977728014e+16,1.5796283184078206e+16,1674284745922046.0,2134611912639039.0,4557136898.174392,10825842556.696293,215834184811.54367,5756330624823.509
9.85865336511546,1.2162840778566896e+16,1.6035682939642116e+16,1699639484544666.5,2166937672779615.8,4768308458.372138,11327497490.701895,225835654098.3083,6023072290888.84
10.155826432417769,1.2345159548212476e+16,1.627624826593342e+16,1725116771084986.0,2199419674112550.2,4986948528.842989,11846894470.326635,236190845733.8674,6299247834649.478
10.458942961066125,1.2528386639437982e+16,1.6518020784325028e+16,1750720986790132.2,2232063502463277.8,5213286601.235651,12384578671.517237,246910628866.55438,6585147139481.189
10.768121820287448,1.271255277211191e+16,1.6761041291355586e+16,1776456424464932.0,2264874630898638.0,5447559223.534953,12941112033.12281,258006206845.97537,6881069002012.431
11.083484256693197,1.2897688082754472e+16,1.7005349824310392e+16,1802327295396906.8,2297858428555836.5,5690010206.003072,13517073746.124956,269489126976.78104,7187321392260.332
11.405153941827061,1.3083822170351458e+16,1.7250985721878436e+16,1828337735758344.8,2331020168804668.5,5940890833.490322,14113060758.000193,281371290574.1134,7504221721812.591
11.733257020663602,1.3270984138774668e+16,1.7497987680346002e+16,1854491812534140.5,2364365036805224.5,6200460084.277186,14729688292.597,293664963328.3744,7832097120259.176
12.067922161076874,1.3459202636120128e+16,1.774639380573665e+16,1880793529018914.0,2397898136516300.5,6468984855.615558,15367590385.928019,306382785987.29504,8171284720086.3125
12.409280604298411,1.3648505891241536e+16,1.7996241662264328e+16,1907246829922232.8,2431624497204317.5,6746740196.143976,16027420438.291813,319537785363.56464,8522131950253.612
12.75746621638438,1.3838921747729304e+16,1.82475683174288e+16,1933855606116845.0,2465549079496984.0,7034009545.358491,16709851783.155846,333143385676.6284,8884996838683.158
13.112615540712067,1.4030477695557798e+16,1.850041038404781e+16,1960623699061060.5,2499676781021603.5,7331084980.326709,17415578273.2464,347213420237.53906,9260248323898.547
13.474867851526309,1.4223200900602502e+16,1.8754804059491796e+16,1987554904923515.8,2534012441663873.0,7638267469.840044,18145314884.308453,361762143486.0921,9648266576058.695
13.844365208556836,1.441711823220792e+16,1.901078516235929e+16,2014652978435493.8,2568560848479369.5,7955867136.20481,18899798337.012222,376804243389.7575,10049443327641.713
14.221252512727972,1.4612256288969492e+16,1.926838916680964e+16,2041921636493724.0,2603326740286886.0,8284203524.88053,19679787737.50179,392354854214.26733,10464182214040.475
14.605677562982532,1.480864142287721e+16,1.952765123474643e+16,2069364561534198.0,2638314811969881.0,8623605882.179968,20486065237.09457,408429569676.02435,10892899124341.348
14.997791114242183,1.5006299761954312e+16,1.9788606246028932e+16,2096985404695712.8,2673529718509774.0,8974413441.251934,21319436711.657875,425044456486.79803,11336022562566.158
15.397746936527026,1.520525723151198e+16,2.0051288826870892e+16,2124787788790044.8,2708976078772711.0,9336975716.57634,22180732461.205944,442216068301.57623,11793994019665.357
15.805701875257567,1.540553957413029e+16,2.0315733376571016e+16,2152775311094020.8,2744658479069354.5,9711652807.205393,23070807930.275875,459961460080.66315,12267268356560.264
16.221815912762718,1.5607172368463986e+16,2.0581974092708508e+16,2180951545977521.8,2780581476505402.5,10098815708.99521,23990544449.659363,478298202877.5601,12756314198540.49
16.64625223101797,1.581018104696555e+16,2.0850044994921636e+16,2209320047380043.8,2816749602139029.0,10498846636.076357,24940850000.0834,497244399064.44006,13261614341332.469
17.079177275638333,1.6014590912606488e+16,2.1119979947380464e+16,2237884351147406.2,2853167363960039.5,10912139351.821484,25922659998.451572,516818698007.41473,13783666169163.879
17.5207608211511,1.6220427154673898e+16,2.139181268005217e+16,2266647977239083.5,2889839249704179.5,11339099509.574154,26936938107.274765,537040312204.11804,14322982085158.396
17.97117603757412,1.6427714863709758e+16,2.1665576808850704e+16,2295614431815924.5,2926769729514689.5,11780145003.412088,27984677067.9385,557929033896.5294,14880089954405.219
18.430599558325603,1.6636479045657272e+16,2.194130585475494e+16,2324787209216873.5,2963963258462676.5,12235706329.224691,29066899558.473072,579505252172.3057,15455533560057.28
18.899211549492115,1.684674463527108e+16,2.2219033261969676e+16,2354169793832986.0,3001424278936226.0,12706226956.393042,30184659076.511284,601789970568.2804,16049873072822.367
19.37719578048196,1.7058536508844706e+16,2.2498792415202628e+16,2383765661885928.5,3039157222908017.5,13192163710.369553,31339040848.138496,624804825190.1732,16663685534221.838
19.864739696091597,1.7271879496303518e+16,2.278061665611835e+16,2413578283117878.5,3077166514089687.5,13693987166.461048,32531162763.358498,648572103362.9349,17297565354001.729
20.36203449001343,1.7486798392708086e+16,2.3064539299031796e+16,2443611122398987.5,3115456569981405.0,14212182055.130125,33762176338.92052,673114762826.6038,17952124822092.414
20.869275179813698,1.7703317969208838e+16,2.335059364589287e+16,2473867641258187.5,3154031803823457.0,14747247679.135021,35033267709.27142,698456451492.8772,18627994635523.316
21.38666068340997,1.7921462983489516e+16,2.3638813000614476e+16,2504351299342580.0,3192896626456919.0,15299698342.840723,36345658646.42039,724621527778.1194,19325824440710.766
21.91439389707817,1.8141258189734764e+16,2.392923068278901e+16,2535065555810303.5,3232055448099439.0,15870063794.040134,37700607609.522896,751635081528.885,20046283391548.906
22.452681775019734,1.836272834815349e+16,2.422188004083668e+16,2566013870661338.5,3271512680042007.0,16458889678.634867,39099410825.01431,779522955556.4973,20790060723743.977
23.00173541052013,1.85858982340881e+16,2.4516794464625196e+16,2597199706010391.5,3311272736271720.0,17066738008.53518,40543403398.14557,808311767797.7109,21557866345846.47
23.561770118730532,1.8810792646735964e+16,2.481400739759711e+16,2628626527305708.0,3351340035025776.5,17694187643.146538,42033960456.796646,838028934118.8568,22350431447445.45
24.133005521105144,1.9037436417510324e+16,2.5113552348438536e+16,2660297804497380.0,3391719000280930.5,18341834784.82183,43572498328.46581,868702691781.459,23168509125003.81
24.715665631527248,1.92658544180622e+16,2.5415462902321828e+16,2692217013158307.0,3432414063182682.0,19010293488.66821,45160475751.35877,900362123587.6544,24012875025824.53
25.309978944157795,1.949607156798571e+16,2.571977273174955e+16,2724387635561024.5,3473429663418151.0,19700196187.106033,46799395120.52505,933037182724.3914,24884328010652.688
25.91617852304095,1.9728112842227588e+16,2.602651560702847e+16,2756813161713029.5,3514770250536096.5,20412194229.59137,48490803770.01471,966758718325.7188,25783690835429.71
26.53450209350177,1.99620032782188e+16,2.6335725406397972e+16,2789497090353402.0,3556440285217484.5,21146958437.920815,50236295292.05309,1001558501773.1317,26711810852730.316
27.165192135371807,2.0197767982745904e+16,2.6647436125836372e+16,2822442929912977.0,3598444240499712.0,21905179677.55113,52037510894.25969,1037469253754.387,27669560733428.23
27.808495978079243,2.0435432138578176e+16,2.696168188856735e+16,2855654199440454.5,3640786602957275.0,22687569445.375046,53896140795.96188,1074524672101.7506,28657839209148.27
28.464665897640828,2.0675021010865596e+16,2.727849695428645e+16,2889134429496444.0,3683471873841711.5,23494860474.409462,55813925664.68301,1112759460431.1833,29677571836078.58
29.133959215593645,2.0916559953322296e+16,2.7597915728126776e+16,2922887163017537.0,3726504570183137.5,24327807355.859863,57792658093.911385,1152209357604.5686,30729711780731.996
29.816638399905518,2.116007441420705e+16,2.791997276938245e+16,2956915956152019.0,3769889225855809.0,25187187179.040783,59834184123.286964,1192911168037.548,31815240628258.777
30.51297116790363,2.1405589942114196e+16,2.8244702800004956e+16,2991224379069112.0,3813630392609831.5,26073800189.641716,61940404802.36906,1234902792876.308,32935169213929.703
31.223230591261704,2.165313219158611e+16,2.8572140712889052e+16,3025816016743218.0,3857732641070998.5,26988470466.841057,64113277799.180885,1278223262066.9646,34090538478424.7
31.947695203086937,2.1902726928556736e+16,2.890232157996288e+16,3060694469714706.5,3902200561710798.0,27932046619.78535,66354819054.75608,1322912767342.17,35282420347576.44
32.686649107148675,2.215440003563809e+16,2.9235280660094972e+16,3095863354828496.0,3947038765788005.0,28905402503.960724,68667104484.94189,1369012696149.7483,36511918637235.625
33.44038208929165,2.240817751725612e+16,2.9571053406832164e+16,3131326305951897.0,3992251886263932.0,29909437957.999702,71052271730.7492,1416565666549.2693,37780169983942.24
34.20918973107749,2.2664085504647496e+16,2.990967547597948e+16,3167086974672732.5,4037844578692484.0,30945079561.47865,73512521958.56642,1465615563102.6467,39088344802100.6
34.993373525699035,2.2922150260722616e+16,3.025118273303359e+16,3203149030978999.5,4083821522086642.0,32013281414.27582,76050121711.59317,1516207573785.9111,40437648268378.27
35.793240996213015,2.318239818480428e+16,3.059561126048069e+16,3239516163920979.0,4130187419762681.5,33115025938.072834,78667404813.87811,1568388227949.6338,41829321334060.6
36.60910581613728,2.344485581724758e+16,3.094299736496832e+16,3276192082256887.0,4176947000163294.5,34251324700.59801,81366774328.38152,1622205435356.4346,43264641766115.35
37.44128793246003,2.3709549843948656e+16,3.129337758436016e+16,3313180515082869.0,4224105017660762.5,35423219263.224525,84150704570.51877,1677708526324.469,44744925217734.86
38.29011369110923,2.3976507100746536e+16,3.164678869468338e+16,3350485212448151.5,4271666253341327.5,36631782052.54931,87021743178.6742,1734948293006.6577,46271526329147.04
39.15591596493141,2.4245754577725604e+16,3.2003267716975244e+16,3388109945956235.5,4319635515771609.0,37878117256.5964,89982513243.20918,1793977031836.025,47845839859499.24
40.03903428423004,2.4517319423421396e+16,3.2362851924037084e+16,3426058509352668.5,4368017641747980.0,39163361746.30128,93035715495.53291,1854848587168.2373,49469301850640.31
40.93981496991464,2.4791228948935996e+16,3.2725578847102204e+16,3464334719100075.0,4416817497029745.0,40488686022.9503,96184130558.82434,1917618396153.263,51143390823645.36
41.85861126931294,2.5067510631965476e+16,3.3091486282423364e+16,3502942414941004.0,4466039977056662.0,41855295192.26086,99430621262.04814,1982343534868.6438,52869629008943.29
42.7957834946992,2.5346192120743316e+16,3.346061229778537e+16,3541885460448937.0,4515690007651489.0,43264429965.80949,102778135018.93358,2049082765747.661,54649583610930.16
43.751699164593184,2.5627301237902148e+16,3.38329952389463e+16,3581167743567952.0,4565772545708028.0,44717367690.5237,106229706273.6242,2117896586336.5305,56484868107965.08
