t(s),Total solute volume 1,Total retention volume 1,Total 1 volume 1,Total 2 volume 1,Total 3 volume 1,Total 4 volume 1,Total 5 volume 1,Total 6 volume 1
0.1,919935341976466.9,1072551036543860.6,72903600131805.52,79712094435588.67,0.0,0.0,0.0,0.0
0.202,1384185099880218.2,1617435292067274.8,109694749862176.92,119939183908252.02,6207166629.448968,11642067910.440561,162863615976.9355,3435545566110.645
0.30604000000000003,1736379981333774.5,2033605910887877.5,137605705892811.6,150456754720501.0,15728409777.797346,29500032941.382412,412684094752.80804,8705556403317.748
0.41216080000000005,2033094568767038.8,2386636683824267.5,161119925537085.06,176166976238774.97,27900608415.911465,52330189004.707695,732062388840.6995,15442920095107.852
0.5204040160000001,2295527432894432.5,2701068588458690.5,181917366140165.7,198906697685627.7,42424436166.9859,79571154613.72856,1113145118187.497,23481951029493.324
0.6308120963200001,2534245101653158.5,2989125079716115.0,200835410392014.34,219591505242922.28,59135047417.96905,110913777155.50507,1551607455495.0461,32731406147952.44
0.7434283382464002,2755390074921369.0,3257910376529587.0,218360842891678.66,238753644509333.6,77934070256.92998,146173580977.36133,2044868731212.9226,43136837824763.34
0.8582969050113283,2962896810889653.5,3511976773018074.5,234805463995642.56,256734034995239.97,98761625114.59598,185238286576.7935,2591358256115.204,54665104969732.63
0.9754628431115548,3159460132375958.5,3754445654349552.0,250382834675790.7,273766182212740.5,121582512886.58614,228041905635.01132,3190152926399.5312,67296727740135.19
1.094972099973786,3347018791642892.0,3987566816664645.5,265246598360780.1,290018078408519.56,146378547247.77737,274550359895.7223,3840776040833.6787,81021643304470.7
1.2168715419732616,3527021056909604.0,4213025420611490.5,279511528298884.47,305615215547961.7,173143931954.89667,324752811119.2302,4543076012425.222,95836647099533.66
1.3412089728127268,3700581421664672.5,4432122972380326.5,293265946553764.8,320654164125674.56,201882298251.30157,378656104665.69446,5297148637841.021,111743752995463.16
1.4680331522689813,3868578402837460.0,4645890186947783.0,306579474373958.9,335211047344926.8,232604714764.7382,436281037051.925,6103284883069.019,128749091756550.03
1.597393815314361,4031718389835879.5,4855160621194270.0,319508092140586.9,349347073615799.4,265328300031.67523,497659753774.0686,6961934480779.967,146862143067413.38
1.729341691620648,4190578905152227.5,5060620530648041.0,332097567710394.4,363112285072479.8,300075225738.5929,562833879946.7905,7873679779322.173,166095183827923.6
1.863928525453061,4345638840720930.5,5262843694478204.0,344385852605166.0,376548177543718.94,336871982904.5904,631853144108.3026,8839216490788.76,186462881990585.8
2.001207095962122,4497300157100505.0,5462316393379474.0,356404801641819.9,389689580779826.7,375748830632.9425,704774344448.3556,9859339229362.324,207981991452878.8
2.1412312378813647,4645903814305390.0,5659455737995359.0,368181435428735.6,402566038854008.9,416739375044.67804,781660559204.7336,10934930465420.41,230671119007565.22
2.284055862638992,4791741701583213.0,5854623387858526.0,379738885784063.1,415202843873659.2,459880243194.32544,862580535209.239,12066951971839.732,254550543867365.22
2.4297369798917723,4935065727723342.0,6048136000992228.0,391097116130074.0,427621823652597.94,505210827686.70654,947608209042.7937,13256438125418.992,279642076324076.6
2.578331719489608,5076094855215821.0,6240273317458232.0,402273478940495.06,439841951218633.25,552773084856.6539,1036822328656.5204,14504490613759.47,305968946056002.56
2.7298983538794,5215020618603927.0,6431284499644904.0,413283153062307.75,451879822977004.06,602611374168.1249,1130306152308.0825,15812274223740.701,333555713251430.2
2.884496320956988,5352011507360715.0,6621393167448397.0,424139491052627.25,463750038485183.9,654772329781.3462,1228147207837.313,17181013474108.393,362428197538150.0
3.0421862473761276,5487216485871501.0,6810801442220352.0,434854298132445.9,475465505458217.06,709304757543.3171,1330437099631.4,18611989915214.027,392613420985790.5
3.2030299723236504,5620767849089344.0,6999693228019787.0,445438058493354.8,487037687210312.25,766259552302.6075,1437271353716.4421,20106539962123.535,424139562358643.8
3.3670905717701234,5752783560660501.0,7188236899045078.0,455900120590757.7,498476805252659.9,825689631642.941,1548749293650.6616,21666053158628.336,457035920457252.25
3.5344323832055258,5883369183512930.0,7376587519722041.0,466248850140329.1,509792006578287.4,887649883008.3329,1664973941541.9053,23291970792734.902,491332884873199.56
3.7051210308696363,6012619486340152.0,7564888693340373.0,476491757429623.2,520991502863344.8,952197121847.8536,1786051939741.129,24985784801405.98,527061912844260.25
3.879223451487029,6140619789983320.0,7753274112765893.0,486635604017004.56,532082687130692.25,1019390058902.9281,1912093489691.5867,26749036915306.727,564255511170972.5
4.0568079205167695,6267447103322392.0,7941868870195690.0,496686492749431.44,543072232174477.3,1089289275138.128,2043212305122.5618,28583318004230.29,602947222364897.0
4.237944078927105,6393171087500109.0,8130790570518187.0,506649944175877.7,553966174109831.75,1161957203108.1194,2179525577323.7275,30490267591530.965,643171614360403.2
4.422702960505647,6517854879134304.0,8320150283447933.0,516530961785764.6,564769983703952.4,1237458113780.915,2321153950662.551,32471573511862.297,684964273247600.9
4.61115701971576,6641555796923321.0,8510053362422187.0,526334088006463.56,575488627603222.8,1315858108016.4043,2468221506842.9307,34528971691206.5,728361798583114.1
4.803380160110075,6764325951224730.0,8700600152703778.0,536063452511556.56,586126621153006.2,1397225112040.9172,2620855756669.029,36664246031908.38,773401800913856.4
4.9994477633122765,6886212772428939.0,8891886606818560.0,545722814093720.9,596688074181055.5,1481628876372.0854,2779187638291.093,38879228388398.21,820122901211780.2
5.199436718578522,7007259470999738.0,9084004822070496.0,555315597122300.0,607176730859863.9,1569140977739.5042,2943351521081.41,41175798621686.67,868564731968062.2
5.403425452950093,7127505439719657.0,9277043512198402.0,564844923420689.2,617596004561104.1,1659834823620.8223,3113485214427.353,43555884722658.95,918767939736256.0
5.611493962009095,7246986606819009.0,9471088423107572.0,574313640251330.8,627949008454131.8,1753785659073.3574,3289729980841.929,46021462995779.72,970774188947392.6
5.823723841249277,7365735747176595.0,9666222700898046.0,583724344977918.1,638238582471431.6,1851070575591.0093,3472230552885.817,48574558296129.83,1024626166847497.8
6.040198318074262,7483782757576165.0,9862527219034594.0,593079406879116.2,648467317159498.2,1951768521757.3936,3661135153471.353,51217244313769.03,1080367589430814.6
6.261002284435747,7601154901026634.0,1.0060080870382214e+16,602380986510586.5,658637574849105.0,2055960315500.2915,3856595519183.7803,53951643900319.29,1138043208260868.0
6.486222330124463,7717877024355569.0,1.0258960828919102e+16,611631052948957.0,668751508509703.5,2163728657781.0503,4058766926308.081,56779929433414.12,1197698818087383.0
6.715946776726952,7833971752630952.0,1.0459242785189028e+16,620831399199498.9,678811078596006.2,2275158147576.7715,4267808219295.5264,59704323215288.86,1259381265180400.2
6.950265712261491,7949459663426568.0,1.0661001158937004e+16,629983656006400.8,688818068148022.4,2390335298033.299,4483881841441.486,62727097902324.69,1323138456314194.2
7.18927102650672,8064359443497783.0,1.0864309291861032e+16,639089304269121.4,698774096366978.2,2509348553684.505,4707153867579.398,65850576962809.67,1389019368343086.5
7.433056447036854,8178688030062349.0,1.1069239622985834e+16,648149686238684.0,708680630857231.9,2632288308648.066,4937794038622.948,69077135160572.195,1457074058319704.2
7.681717575977592,8292460738568436.0,1.1275863848807892e+16,657166015643118.6,718538998697337.4,2759246925720.7983,5175975797812.804,72409199062478.77,1527353674112992.0
7.935351927497144,8405691378570285.0,1.1484253070063852e+16,666139386870454.1,728350396480640.0,2890318756307.439,5421876328544.779,75849247568070.23,1599910465489564.5
8.194058966047088,8518392359111137.0,1.1694477926719958e+16,675070783320166.9,738115899446666.9,3025600161126.5684,5675676593674.354,79399812459870.78,1674797795627300.2
8.45794014536803,8630574784825898.0,1.1906608722569046e+16,683961085019170.9,747836469808390.9,3165189531645.5874,5937561376208.241,83063478973119.66,1752070153034626.5
8.72709894827539,8742248543816811.0,1.212071554063974e+16,692811075585865.0,757512964366623.2,3309187312204.1753,6207719321307.488,86842886383872.61,1831783163853067.2
9.0016409272409,8853422388220697.0,1.2336868350467996e+16,701621448614955.6,767146141491151.5,3457696022791.984,6486342979539.055,90740728614584.17,1913993604524292.5
9.281673745785717,8964104008269532.0,1.2555137108150572e+16,710392813546669.2,776736667538057.8,3610820282452.2827,6773628851323.308,94759754856446.34,1998759414806087.8
9.567307220701432,9074300100547250.0,1.2775591849985536e+16,719125701075996.0,786285122764142.5,3768666833288.514,7069777432535.083,98902770207886.34,2086139711124432.5
9.85865336511546,9184016431059678.0,1.2998302780409244e+16,727820568150899.0,795792006791917.6,3931344565055.1406,7374993261224.728,103172636328751.77,2176194800251688.0
10.155826432417769,9293257893660472.0,1.3223340354853852e+16,736477802602503.2,805257743672202.6,4098964540318.6357,7689484965432.889,107572272109825.6,2268986193303060.5
10.458942961066125,9402028564312368.0,1.3450775358078728e+16,745097727445201.6,814682686585828.9,4271640020178.2134,8013465312081.047,112104654357413.3,2364576620045649.0
10.768121820287448,9510331751606336.0,1.3680678978464514e+16,753680604880242.8,824067122221127.4,4449486490539.448,8347151256925.679,116772818492832.06,2463030043516503.5
11.083484256693197,9618170043914004.0,1.3913122878705056e+16,762226640032488.4,833411274859646.1,4632621688937.113,8690763995570.272,121579859266732.39,2564411674947678.5
11.405153941827061,9725545353505126.0,1.414817926328452e+16,770735984446669.1,842715310198933.5,4821165631906.716,9044529015535.348,126528931488242.34,2668787988998132.5
11.733257020663602,9832458957925624.0,1.438592094308514e+16,779208739366525.6,851979338937930.2,5015240642906.738,9408676149391.295,131623250769012.34,2776226739293775.0
12.067922161076874,9938911538898926.0,1.4626421397434896e+16,787644958817697.0,861203420147753.1,5214971380796.554,9783439628964.588,136866094282305.86,2886796974278444.0
12.409280604298411,1.0044903218984482e+16,1.4869754833872178e+16,796044652512849.6,870387564448128.9,5420484868877.016,10169058140631.715,142260801537337.06,3000569053379864.5
12.75746621638438,1.0150433596201896e+16,1.5115996245876532e+16,804407788595594.8,879531737007599.5,5631910524503.372,10565774881720.32,147810775169130.44,3117614663496085.5
13.112615540712067,1.0255501776807792e+16,1.5365221468789856e+16,812734296238006.1,888635860383587.0,5849380189282.092,10973837618040.049,153519481744221.38,3238006835808913.0
13.474867851526309,1.0360106406390994e+16,1.5617507234129842e+16,821024068104879.5,897699817216815.5,6073028159865.316,11393498742571.238,159390452582582.78,3361819962932125.0
13.844365208556836,1.0464245699435882e+16,1.5872931222479574e+16,829276962696578.4,906723452792938.1,6302991219358.757,11825015335341.4,165427284596208.88,3489129816403241.5
14.221252512727972,1.0567917467486488e+16,1.613157211511799e+16,837492806580997.1,915706577482965.5,6539408669360.142,12268649224523.762,171633641144839.94,3620013564528799.5
14.605677562982532,1.067111914603112e+16,1.6393509644542664e+16,845671396524142.4,924648969072800.6,6782422362648.066,12724667048796.473,178013252909345.38,3754549790593829.0
14.997791114242183,1.077384782021418e+16,1.6658824644021438e+16,853812501527751.1,933550374991162.2,7032176736541.692,13193340321002.26,184569918783359.72,3892818511447433.0
15.397746936527026,1.0876100249470944e+16,1.6927599096297626e+16,861915864781560.1,942410514444180.2,7288818846954.122,13674945493153.3,191307506783763.72,4034901196477042.0
15.805701875257567,1.0977872891170992e+16,1.7199916181563706e+16,869981205537016.9,951229080464085.9,7552498403163.398,14169764022827.686,198229954980690.56,4180880786984921.0
16.221815912762718,1.1079161923346832e+16,1.7475860324807278e+16,878008220908501.5,960005741878652.1,7823367803326.885,14678082441007.467,205341272447734.38,4330841715981207.5
16.64625223101797,1.1179963266576784e+16,1.7755517242625504e+16,885996587607493.1,968740145207322.2,8101582170765.618,15200192421410.64,212645540233112.78,4484869928408610.5
17.079177275638333,1.1280272605082798e+16,1.803897398959633e+16,893945963614572.6,977431916489345.4,8387299391047.086,15736390851371.49,220146912352538.9,4643052901814639.0
17.5207608211511,1.138008540709873e+16,1.8326319004287656e+16,901855989793551.4,986080663048668.1,8680680149896.058,16286979904327.748,227849616804619.8,4805479667487916.0
17.97117603757412,1.1479396944557306e+16,1.861764215497991e+16,909726291451653.5,994685975199808.6,8981887971963.799,16852267113972.508,235757956609602.34,4972240832075602.0
18.430599558325603,1.1578202312139724e+16,1.8913034785170508e+16,917556479849162.1,1003247427898499.6,9291089260487.793,17432565450134.604,243876310872352.97,5143428599700133.0
18.899211549492115,1.167649644572628e+16,1.9212589758926416e+16,925346153661611.2,1011764582340420.8,9608453337874.762,18028193396449.875,252209135870443.4,5319136794593333.0
19.37719578048196,1.1774274140282424e+16,1.9516401506143204e+16,933094900397227.1,1020236987511034.5,9934152487240.553,18639475029889.74,260760966168295.4,5499460884267107.0
19.864739696091597,1.1871530067210598e+16,1.982456606776746e+16,940802297772042.8,1028664181689104.5,10268361994942.172,19266740102215.094,269536415758299.62,5684498003240265.0
20.36203449001343,1.196825879119451e+16,2.0137181141034144e+16,948467915044771.8,1037045693906249.5,10611260194137.234,19910324123423.42,278540179229907.38,5874346977341150.0
20.869275179813698,1.2064454786559388e+16,2.0454346124768556e+16,956091314313348.0,1045381045364555.4,10963028509407.129,20570568447262.594,287777032967680.2,6069108348606905.0
21.38666068340997,1.216011245316866e+16,2.07761621647981e+16,963672051774714.9,1053669750814022.1,11323851502481.525,21247820358880.758,297251836379305.9,6268884400800024.0
21.91439389707817,1.2255226131875186e+16,2.110273219951761e+16,971209678949299.8,1061911319891395.6,11693916919101.184,21942433164687.883,306969533154627.7,6473779185563331.0
22.452681775019734,1.234979011954209e+16,2.1434161005648636e+16,978703743871412.1,1070105258421727.9,12073415737058.482,22654766284503.51,316935152556721.25,6683898549235120.0
23.00173541052013,1.2443798683647064e+16,2.1770555244231104e+16,986153792246608.8,1078251069683835.8,12462542215453.307,23385185346066.105,327153810746097.94,6899350160345969.0
23.561770118730532,1.2537246076481058e+16,2.211202350688459e+16,993559368576909.1,1086348255640601.6,12861493945204.408,24134062281981.004,337630712139101.7,7120243537819736.0
24.133005521105144,1.2630126548951214e+16,2.2458676362373136e+16,1000920017254673.1,1094396318135006.4,13270471900855.512,24901775429184.914,348371150801595.56,7346690079900579.0
24.715665631527248,1.2722434363995962e+16,2.2810626403506744e+16,1008235283625721.1,1102394760052536.9,13689680493716.092,25688709631004.56,359380511879028.94,7578803093828772.0
25.309978944157795,1.2814163809619038e+16,2.3167988294411784e+16,1015504715022268.2,1110343086450576.1,14119327626376.828,26495256341888.887,370664273063994.3,7816697826287629.0
25.91617852304095,1.2905309211547732e+16,2.3530878818199444e+16,1022727861766063.8,1118240805655243.8,14559624748640.105,27321813734893.363,382228006102386.75,8060491494644483.0
26.53450209350177,1.2995864945519786e+16,2.389941692506218e+16,1029904278142117.4,1126087430326050.5,15010786914905.637,28168786811996.25,394077378339273.3,8310303319008109.0
27.165192135371807,1.3085825449202074e+16,2.427372378082541e+16,1037033523343240.9,1133882478488639.2,15473032843051.545,29036587517325.734,406218154305589.2,8566254555125483.0
27.808495978079243,1.3175185233743822e+16,2.4653922815980972e+16,1044115162385614.2,1141625474535877.2,15946584974851.104,29925634853377.82,418656197346788.75,8828468528140668.0
28.464665897640828,1.3263938894965894e+16,2.504013977522954e+16,1051148766995526.2,1149315950197398.5,16431669537964.828,30836355000304.336,431397471294540.5,9097070667237904.0
29.133959215593645,1.3352081124187396e+16,2.5432502767555148e+16,1058133916467380.8,1156953445477732.2,16928516609547.984,31769181438349.52,444448042182596.25,9372188541192104.0
29.816638399905518,1.3439606718690384e+16,2.583114231685764e+16,1065070198492979.2,1164537509563056.0,17437360181512.383,32724555073513.445,457814080007927.9,9653951894848274.0
30.51297116790363,1.3526510591822442e+16,2.6236191413166096e+16,1071957209962172.9,1172067701696593.2,17958438227482.082,33702924366521.93,471501860538224.94,9942492686552644.0
31.223230591261704,1.361278778273757e+16,2.664778556445548e+16,1078794557734786.8,1179543592022646.5,18491992771480.957,34704745465177.766,485517767166850.5,1.0237945126556972e+16
31.947695203086937,1.3698433465774486e+16,2.7066062849089984e+16,1085581859383849.8,1186964762399224.8,19038269958390.21,35730482340171.43,499868292816307.3,1.0540445716417518e+16
32.686649107148675,1.3783442959472116e+16,2.7491163968913904e+16,1092318743910058.2,1194330807179254.2,19597520126213.445,36780606924426.586,514560041891307.7,1.085013328941047e+16
33.44038208929165,1.386781173522137e+16,2.7923232303011812e+16,1099004852427414.8,1201641333960210.2,20169997880185.7,37855599256053.36,529599732282453.2,1.1167149051984084e+16
34.20918973107749,1.3951535425552406e+16,2.8362413962158484e+16,1105639838819986.6,1208895964302254.8,20755962168762.043,38955947624985.125,544994197421593.25,1.1491636626268436e+16
34.993373525699035,1.403460983205722e+16,2.8808857843979388e+16,1112223370369750.1,1216094334414684.0,21355676361521.98,40082148723367.27,560750388389856.4,1.1823742093662958e+16
35.793240996213015,1.4117030932945832e+16,2.926271568884101e+16,1118755128355425.6,1223236095810697.0,21969408329021.883,41234707799772.94,576875376079332.0,1.2163614039520986e+16
36.60910581613728,1.4198794890236604e+16,2.9724142136491484e+16,1125234808622278.9,1230320915930419.2,22597430524631.613,42414138817309.61,593376353409405.9,1.2511403598950854e+16
37.44128793246003,1.4279898056579734e+16,3.0193294783469388e+16,1131662122122891.8,1237348478732167.5,23240020068383.918,43620964615688.41,610260637598678.4,1.2867264503751876e+16
38.29011369110923,1.4360336981713662e+16,3.0670334241301588e+16,1138036795428814.5,1244318485251888.8,23897458832871.45,44855717077318.68,627535672493387.5,1.3231353130503628e+16
39.15591596493141,1.4440108418554942e+16,3.1155424195506344e+16,1144358571213174.0,1251230654130833.0,24570033531219.28,46118937297493.375,645209030953251.4,1.360382854982543e+16
40.03903428423004,1.451920932892124e+16,3.164873146542183e+16,1150627208704228.0,1258084722111480.0,25258035807162.184,47411175758726.55,663288417295594.1,1.398485257682342e+16
40.93981496991464,1.4597636888888808e+16,3.2150426064876988e+16,1156842484109932.0,1264880444501739.0,25961762327255.53,48732992509302.8,681781669798605.1,1.4374589822741354e+16
41.85861126931294,1.4675388493784872e+16,3.2660681263722224e+16,1163004191013570.8,1271617595607539.5,26681514875244.68,50084957346097.59,700696763264552.0,1.4773207747830382e+16
42.7957834946992,1.4752461762816586e+16,3.3179673650238344e+16,1169112140740607.5,1278295969133944.5,27417600448619.688,51467650001722.195,720041811643726.2,1.518087671545313e+16
43.751699164593184,1.4828854543338204e+16,3.3707583194439344e+16,1175166162696839.5,1284915378554868.8,28170331357378.08,52881660336050.164,739825070719911.4,1.559777004743612e+16
