t(s),Total solute volume 1,Total retention volume 1,Total 1 volume 1,Total 2 volume 1,Total 3 volume 1,Total 4 volume 1,Total 5 volume 1,Total 6 volume 1
0.1,1393105271922661.8,5193352995607505.0,1226369007487646.5,2573878716197194.5,0.0,0.0,0.0,3.3616881476863753e-156
0.202,2021911021756033.0,7829802484553204.0,1779915375940084.2,3735654966745262.5,57002491776.22602,290978925444.32874,15699655762373.057,276273482932233.06
0.30604000000000003,2462486387025073.5,9944913530934976.0,2167759823275038.2,4549656624860060.0,140235510369.17072,715959550116.4495,39039276278183.85,725115224436141.0
0.41216080000000005,2802468813935017.5,1.1809947267028728e+16,2467050936084692.0,5177803833585568.0,241796867967.11414,1234544941901.1523,67619650212121.57,1293527691401460.8
0.5204040160000001,3078274509228660.5,1.3531394349566312e+16,2709846403736847.5,5687378881529615.0,357687632810.9783,1826308946268.2388,100279337608615.95,1953431220883488.0
0.6308120963200001,3308909411886761.0,1.5162697122369666e+16,2912877413526911.5,6113496943422380.0,485459812970.7408,2478749311770.194,136317342083517.14,2688131802325359.0
0.7434283382464002,3505778128298328.5,1.6734919525789852e+16,3086183595181250.0,6477229039421033.0,623461848226.8427,3183431965029.8774,175263908847477.9,3486657960228503.5
0.8582969050113283,3676337654689026.5,1.826794650503235e+16,3236329443307198.0,6792352625537169.0,770508590589.3322,3934304981859.7085,216783418953563.53,4341438548972928.5
0.9754628431115548,3825777127552457.5,1.9775409779851228e+16,3367883024752764.5,7068455085111325.0,925715691148.5243,4726852610908.856,260626125684565.97,5247015848448055.0
1.094972099973786,3957877792704642.0,2.1267149476192932e+16,3484173021113846.5,7312522598959124.0,1088405843363.26,5557616396068.5205,306601079231126.7,6199328961944762.0
1.2168715419732616,4075494375027160.0,2.275056380315173e+16,3587712485075188.0,7529829518960831.0,1258051339888.9702,6423901799421.76,354559648520765.56,7195285822428479.0
1.3412089728127268,4180843209590093.0,2.423140304837835e+16,3680452486152683.5,7724470715907787.0,1434236639681.096,7323587034398.807,404384842448357.1,8232493970605343.0
1.4680331522689813,4275684119266200.0,2.5714263272349236e+16,3763942220023116.0,7899697614478022.0,1616632748618.4722,8254992236622.121,455984034020209.1,9309083659576446.0
1.597393815314361,4361440346602782.0,2.720290732808482e+16,3839434586173975.5,8058139777931189.0,1804978987372.3054,9216786362797.912,509283801062969.44,1.042358705096375e+16
1.729341691620648,4439280586461784.0,2.87004814573076e+16,3907958402344794.0,8201956470608478.0,1999069605054.7449,10207918836605.02,564226149141421.4,1.1574852860309458e+16
1.863928525453061,4510176863225975.0,3.0209666039941976e+16,3970369354612477.5,8332943591131887.0,2198743699176.5508,11227568078897.66,620765674109100.6,1.2761984245084476e+16
2.001207095962122,4574946461513114.0,3.1732783331617376e+16,4027386909563856.5,8452611143054181.0,2403877465854.7837,12275101937351.193,678867384869530.1,1.3984292453213496e+16
2.1412312378813647,4634283004648469.0,3.327187624456206e+16,4079621673093129.5,8562240655038773.0,2614378137337.538,13350046732135.635,738505002926585.0,1.5241261483985626e+16
2.284055862638992,4688779949878880.0,3.4828767118676956e+16,4127596073554635.0,8662928590305392.0,2830179169600.721,14452062684713.979,799659614344799.1,1.6532520648738934e+16
2.4297369798917723,4738948660600737.0,3.6405102346145656e+16,4171760270987704.0,8755619736635006.0,3051236374498.297,15580924169604.805,862318587432981.6,1.7857822929945122e+16
2.578331719489608,4785232520629827.0,3.8002386791612696e+16,4212504582097782.0,8841133283702171.0,3277524777947.3022,16736503673253.133,926474694293500.6,1.9217027682438224e+16
2.7298983538794,4828018107073150.0,3.962201071877659e+16,4250169315885173.5,8920183465918603.0,3509036044624.8833,17918758645436.133,992125391178047.6,2.0610086644031524e+16
2.884496320956988,4867644141713150.0,4.126527112548221e+16,4285052653668484.5,8993396100885751.0,3745776350592.8345,19127720637687.484,1059272224222746.0,2.203703250800384e+16
3.0421862473761276,4904408740134976.0,4.293338884623594e+16,4317417030588329.0,9061321982780150.0,3987764614258.2573,20363486271281.43,1127920335357211.5,2.3497969506489764e+16
3.2030299723236504,4938575339306966.0,4.462752240894861e+16,4347494353735753.0,9124447834066892.0,4235031016992.976,21626209684111.887,1198078049101277.2,2.499306559203659e+16
3.3670905717701234,4970377586956314.0,4.634877937316149e+16,4375490306334930.5,9183205339040076.0,4487615760071.9,22916096184122.402,1269756525296014.5,2.6522545903589904e+16
3.5344323832055258,5000023406501183.0,4.809822569298984e+16,4401587926157250.5,9237978654132804.0,4745568016010.567,24233396895254.215,1342969466035782.2,2.808668727525157e+16
3.7051210308696363,5027698400824238.0,4.987689351559679e+16,4425950601908585.0,9289110696679796.0,5008945041002.921,25578404225899.67,1417732867494601.5,2.9685813599422684e+16
3.879223451487029,5053568721046312.0,5.168578772940852e+16,4448724598649074.5,9336908445221948.0,5277811421751.409,26951448023501.516,1494064809192096.5,3.1320291895853812e+16
4.0568079205167695,5077783498803885.0,5.352589150492182e+16,4470041198959410.0,9381647433346536.0,5552238435079.61,28352892304968.69,1571985274674314.5,3.2990528968397612e+16
4.237944078927105,5100476919690732.0,5.5398171017625576e+16,4490018528219243.5,9423575580547708.0,5832303502703.581,29783132472931.9,1651515998701033.5,3.469696855449123e+16
4.422702960505647,5121769999643901.0,5.730357950227469e+16,4508763118383393.0,9462916474251030.0,6118089726685.5205,31242592943930.527,1732680336911198.0,3.644008889041457e+16
4.61115701971576,5141772113831678.0,5.92430607570206e+16,4526371253882349.0,9499872194564426.0,6409685493601.232,32731725127427.895,1815503154638459.2,3.822040062948268e+16
4.803380160110075,5160582318105939.0,6.121755219223582e+16,4542930134914427.0,9534625755774144.0,6707184137468.324,34251005704840.94,1900010732110686.0,4.0038445061488264e+16
4.9994477633122765,5178290495639185.0,6.322798750048538e+16,4558518886845564.0,9567343224854226.0,7010683653113.8125,35800935166102.18,1986230683721827.5,4.1894792590605384e+16
5.199436718578522,5194978355484980.0,6.527529900970267e+16,4573209439255474.0,9598175566392372.0,7320286452991.03,37382036568066.984,2074191889434806.5,4.379004143611393e+16
5.403425452950093,5210720305117937.0,6.7360419770264536e+16,4587067294046213.0,9627260254681734.0,7636099161548.237,38994854484657.52,2163924436677679.2,4.572481652609472e+16
5.611493962009095,5225584215252026.0,6.948428541763589e+16,4600152198721912.0,9654722686788088.0,7958232442153.48,40639954123240.93,2255459571345976.5,4.769976855896247e+16
5.823723841249277,5239632092202665.0,7.164783584502567e+16,4612518738278072.0,9680677424796010.0,8286800852329.938,42317920585565.27,2348829656731947.0,4.9715573211579096e+16
6.040198318074262,5252920670591754.0,7.385201671468278e+16,4624216856967842.0,9705229290882350.0,8621922723680.96,44029358254768.45,2444068139374860.0,5.1772930475887496e+16
6.261002284435747,5265501937179327.0,7.609778083174598e+16,4635292319437838.0,9728474335139522.0,8963720063408.521,45774890292653.34,2541209520971942.0,5.387256410866127e+16
6.486222330124463,5277423594946457.0,7.83860894007258e+16,4645787119266661.0,9750500693008654.0,9312318474770.463,47555158233675.53,2640289335611767.5,5.601522118118376e+16
6.715946776726952,5288729475184428.0,8.071791318154853e+16,4655739841732416.0,9771389346649398.0,9667847094194.707,49370821663995.16,2741344131695361.5,5.8201671717528696e+16
6.950265712261491,5299459904205565.0,8.309423355950909e+16,4665185986633197.0,9791214802469588.0,10030438543085.824,51222557975562.65,2844411457998045.0,6.043270841168412e+16
7.18927102650672,5309652030340616.0,8.551604354133461e+16,4674158256147217.0,9810045695280904.0,10400228892628.29,53111062186581.445,2949529853399596.0,6.270914641508701e+16
7.433056447036854,5319340116090306.0,8.798434868778274e+16,4682686812017764.0,9827945328073910.0,10777357640121.197,55037046820866.945,3056738839874160.0,6.50318231872656e+16
7.681717575977592,5328555799627143.0,9.050016799171802e+16,4690799505756701.0,9844972155165006.0,11161967695575.941,57001241839626.39,3166078918385907.0,6.7401598403248136e+16
7.935351927497144,5337328329275916.0,9.306453470935926e+16,4698522085060813.0,9861180215419340.0,11554205377477.701,59004394620047.06,3277591567383234.5,6.981935391222238e+16
8.194058966047088,5345684774119565.0,9.567849715134795e+16,4705878379210942.0,9876619521363144.0,11954220416756.545,61047269975822.84,3391319243624797.0,7.228599374263694e+16
8.45794014536803,5353650213466730.0,9.834311943940808e+16,4712890465862848.0,9891336409241412.0,12362165968140.09,63130650215389.47,3507305385105368.5,7.480244414954821e+16
8.72709894827539,5361247907566617.0,1.0105948223360914e+17,4719578821329724.0,9905373854428234.0,12778198628167.227,65255335234192.88,3625594415879637.0,7.736965370054262e+16
9.0016409272409,5368499451656262.0,1.0382868343461965e+17,4725962456192163.0,9918771756042396.0,13202478459237.031,67422142637793.3,3746231752608222.5,7.99885933970236e+16
9.281673745785717,5375424915166776.0,1.0665183886478605e+17,4732059037843196.0,9931567194142902.0,13635169019147.84,69631907893023.375,3869263812672705.0,8.266025682804835e+16
9.567307220701432,5382042967692081.0,1.095300829314151e+17,4737885001380303.0,9943794662467138.0,14076437395652.3,71885484504780.05,3994738023726274.5,8.538566035424883e+16
9.85865336511546,5388370993131213.0,1.1246456927523378e+17,4743455650086366.0,9955486279318520.0,14526454245616.043,74183744216344.64,4122702834563688.5,8.816584331967198e+16
10.155826432417769,5394425193247793.0,1.1545647140666411e+17,4748785246594537.0,9966671978901702.0,14985393838420.945,76527577231398.64,4253207727209246.0,9.100186828964106e+16
10.458942961066125,5400220681745432.0,1.185069833322508e+17,4753887095704029.0,9977379685134910.0,15453434103300.88,78917892456142.44,4386303230134525.0,9.389482131297246e+16
10.768121820287448,5405771569831090.0,1.2161732017332666e+17,4758773619702690.0,9987635469735742.0,15930756680339.057,81355617760132.84,4522040932529169.0,9.684581220708749e+16
11.083484256693197,5411091044128126.0,1.2478871877877992e+17,4763456426954918.0,9997463696172204.0,16417546974891.588,83841700254640.98,4660473499557939.0,9.98559748647372e+16
11.405153941827061,5416191437704068.0,1.280224383335957e+17,4767946374428353.0,1.0006887150892762e+16,16913994215233.744,86377106587488.73,4801654688546226.0,1.0292646758122155e+17
11.733257020663602,5421084294893650.0,1.3131976096467637e+17,4772253624758492.0,1.0015927163092452e+16,17420291513252.564,88962823253465.95,4945639366043748.0,1.0605847340112126e+17
12.067922161076874,5425780430523073.0,1.3468199234530166e+17,4776387698384593.0,1.0024603714134946e+16,17936635928034.285,91599856919555.28,5092483525723307.0,1.092532004836881e+17
12.409280604298411,5430289984076215.0,1.3811046229946269e+17,4780357521232879.0,1.0032935537629204e+16,18463228532216.047,94289234764297.97,5242244307077169.0,1.1251188248615058e+17
12.75746621638438,5434622469285602.0,1.4160652540719168e+17,4784171468372212.0,1.0040940211053282e+16,19000274480990.69,97032004830732.83,5394980014879243.0,1.1583577896428968e+17
13.112615540712067,5438786819580356.0,1.4517156161191568e+17,4787837404022455.0,1.0048634239723262e+16,19547983083669.156,99829236392425.55,5550750139385684.0,1.1922617578972786e+17
13.474867851526309,5442791429777915.0,1.488069768307725e+17,4791362718256329.0,1.0056033133822344e+16,20106567877721.55,102682020332179.84,5709615377251021.0,1.226843855834549e+17
13.844365208556836,5446644194366772.0,1.525142035687591e+17,4794754360700163.0,1.0063151479131626e+16,20676246705228.848,105591469533090.53,5871637653140327.0,1.2621174816518197e+17
14.221252512727972,5450352542691808.0,1.5629470153751414e+17,4798018871508065.0,1.0070003002038056e+16,21257241791690.625,108558719281655.16,6036880142021435.0,1.298096310181814e+17
14.605677562982532,5453923471322627.0,1.6014995827947475e+17,4801162409856159.0,1.007660062933771e+16,21849779827143.71,111584927682718.19,6205407292123993.0,1.334794297693244e+17
14.997791114242183,5457363573857012.0,1.640814897981089e+17,4804190780179008.0,1.0082956543300326e+16,22454092049555.61,114671276086063.0,6377284848555025.0,1.3722256868408194e+17
15.397746936527026,5460679068387016.0,1.6809084119486762e+17,4807109456348362.0,1.008908223241542e+16,23070414330465.574,117818969524515.08,6552579877562674.0,1.4104050117629923e+17
15.805701875257567,5463875822832762.0,1.721795873134697e+17,4809923603974884.0,1.0094988538198522e+16,23698987262853.105,121029237163452.08,6731360791442110.0,1.4493471033259494e+17
16.221815912762718,5466959378329309.0,1.7634933339209824e+17,4812638100995832.0,1.010068569840059e+16,24340056251219.863,124303332761653.11,6913697374079520.0,1.489067094512801e+17
16.64625223101797,5469934970833982.0,1.806017157240533e+17,4815257556696411.0,1.0106183386929404e+16,24993871603877.94,127642535143451.06,7099660807131558.0,1.529580425957147e+17
17.079177275638333,5472807551105966.0,1.8493840232738282e+17,4817786329297973.0,1.0111490750763708e+16,25660688627441.49,131048148682173.73,7289323696839468.0,1.5709028516206624e+17
17.5207608211511,5475581803195503.0,1.893610936239906e+17,4820228542234370.0,1.0116616444113524e+16,26340767723524.76,134521503794892.17,7482760101478237.0,1.613050444614505e+17
17.97117603757412,5478262161567239.0,1.9387152312869616e+17,4822588099225831.0,1.0121568660057066e+16,27034374487653.082,138063957448508.6,7680045559442471.0,1.656039603164675e+17
18.430599558325603,5480852826970888.0,1.984714581487119e+17,4824868698250146.0,1.012635515986327e+16,27741779810397.844,141676893677244.25,7881257117971936.0,1.6998870567216813e+17
18.899211549492115,5483357781162018.0,2.0316270049397885e+17,4827073844501579.0,1.0130983300189702e+16,28463259980749.72,145361724111599.72,8086473362520603.0,1.7446098722151274e+17
19.37719578048196,5485780800566410.0,2.07947087198793e+17,4829206862419762.0,1.013546005832865e+16,29199096791747.957,149119888518882.28,8295774446774017.0,1.7902254604539344e+17
19.864739696091597,5488125468973098.0,2.1282649125514717e+17,4831270906863561.0,1.0139792055658672e+16,29949577648386.938,152952855355408.1,8509242123320862.0,1.8367515826732723e+17
20.36203449001343,5490395189333615.0,2.1780282235819562e+17,4833268973498130.0,1.0143985579444728e+16,30714995677822.83,156862122330498.28,8726959774985144.0,1.884206357229257e+17
20.869275179813698,5492593194738190.0,2.2287802766424608e+17,4835203908457391.0,1.0148046603117722e+16,31495649841907.49,160849216982411.44,8949012446826382.0,1.9326082664428202e+17
21.38666068340997,5494722558633408.0,2.280540925616752e+17,4837078417338770.0,1.0151980805152456e+16,32291845052077.63,164915697266352.06,9175486878815776.0,1.981976163594163e+17
21.91439389707817,5496786204340305.0,2.3333304145516086e+17,4838895073582116.0,1.0155793586653238e+16,33103892286630.02,169063152154724.75,9406471539197092.0,2.0323292800694685e+17
22.452681775019734,5498786913926735.0,2.387169385636116e+17,4840656326280175.0,1.015949008774632e+16,33932108710416.562,173293202249792.22,9642056658541362.0,2.0836872326615683e+17
23.00173541052013,5500727336483420.0,2.4420788873218298e+17,4842364507464102.0,1.01630752028707e+16,34776817796993.01,177607500408932.72,9882334264505628.0,2.1360700310265322e+17
23.561770118730532,5502609995848769.0,2.4980803825875533e+17,4844021838903716.0,1.0166553595050312e+16,35638349453259.26,182007732382671.44,1.012739821730563e+16,2.1894980852981098e+17
24.133005521105144,5504437297823863.0,2.5551957573525408e+17,4845630438458961.0,1.0169929709224458e+16,36517040146629.1,186495617465699.97,1.037734424591379e+16,2.2439922138622054e+17
24.715665631527248,5506211536915559.0,2.6134473290418944e+17,4847192326015939.0,1.017320778470623e+16,37413233034770.12,191072909161081.94,1.0632269984993776e+16,2.2995736512936202e+17
25.309978944157795,5507934902642522.0,2.6728578553079187e+17,4848709429038229.0,1.017639186683352e+16,38327278097955.336,195741395857865.94,1.0892275012583486e+16,2.3562640564573818e+17
25.91617852304095,5509609485436286.0,2.73345054291119e+17,4850183587761608.0,1.017948581787164e+16,39259532274070.87,200502901522330.53,1.1157460888538828e+16,2.4140855207771414e+17
26.53450209350177,5511237282166498.0,2.795249056765145e+17,4851616560058073.0,1.0182493327221912e+16,40210359596323.25,205359286403091.9,1.1427931193751158e+16,2.4730605766731734e+17
27.165192135371807,5512820201317737.0,2.8582775291479578e+17,4853010025993021.0,1.0185417920986146e+16,41180131333694.266,210312447750317.3,1.1703791570151598e+16,2.5332122061726317e+17
27.808495978079243,5514360067842501.0,2.9225605690855123e+17,4854365592097401.0,1.0188262970932946e+16,42169226134190.76,215364320549288.62,1.1985149761515736e+16,2.5945638496947933e+17
28.464665897640828,5515858627713441.0,2.988123271909329e+17,4855684795375115.0,1.019103170290853e+16,43178030170937.43,220516878268573.0,1.2272115655083034e+16,2.6571394150141344e+17
29.133959215593645,5517317552195983.0,3.0549912289932474e+17,4856969107064277.0,1.0193727204730602e+16,44206937291165.85,225772133623062.3,1.2564801324005066e+16,2.7209632864041456e+17
29.816638399905518,5518738441860763.0,3.123190537672806e+17,4858219936169395.0,1.0196352433601852e+16,45256349168148.87,231132139352147.78,1.286332107063763e+16,2.7860603339649056e+17
30.51297116790363,5520122830353914.0,3.1927478113512237e+17,4859438632780433.0,1.0198910223075772e+16,46326675456135.69,236598989013308.9,1.3167791470692e+16,2.8524559231375104e+17
31.223230591261704,5521472187941860.0,3.263690189795921e+17,4860626491193288.0,1.0201403289606074e+16,47418333948341.086,242174817791396.84,1.347833141826078e+16,2.9201759244085024e+17
31.947695203086937,5522787924845868.0,3.336045349629567e+17,4861784752845310.0,1.0203834238707456e+16,48531750738045.195,247861803323901.25,1.379506217173433e+16,2.989246723207617e+17
32.686649107148675,5524071394380654.0,3.4098415150197914e+17,4862914609078225.0,1.0206205570754624e+16,49667360382860.9,253662166542499.03,1.4118107400624434e+16,3.059695230002158e+17
33.44038208929165,5525323895910167.0,3.4851074685714925e+17,4864017203740125.0,1.020851968644325e+16,50825606072226.94,259578172531182.47,1.444759323331151e+16,3.1315488905914106e+17
34.20918973107749,5526546677632728.0,3.561872562426014e+17,4865093635637324.0,1.0210778891935776e+16,52006939798186.734,265612131401282.47,1.4783648305732812e+16,3.204835696604632e+17
34.993373525699035,5527740939206685.0,3.64016672957129e+17,4866144960845724.0,1.0212985403712654e+16,53211822529514.336,271766399183697.7,1.5126403811029008e+16,3.279584196206215e+17
35.793240996213015,5528907834227295.0,3.7200204953672435e+17,4867172194891212.0,1.02151413531484e+16,54440724389248.266,278043378738651.97,1.5475993550166908e+16,3.355823505011627e+17
36.60910581613728,5530048472564155.0,3.8014649892907386e+17,4868176314807440.0,1.0217248790830474e+16,55694124835698.96,284445520683316.3,1.583255398355677e+16,3.433583317217958e+17
37.44128793246003,5531163922568589.0,3.88453195690436e+17,4869158261078903.0,1.0219309690637454e+16,56972512846992.35,290975324337621.4,1.6196224283682568e+16,3.5128939169528403e+17
38.29011369110923,5532255213159053.0,3.969253772053584e+17,4870118939476800.0,1.0221325953591966e+16,58276387109217.44,297635338688608.8,1.6567146388764348e+16,3.5937861898456845e+17
39.15591596493141,5533323335792370.0,4.055663449296634e+17,4871059222794360.0,1.022329941150293e+16,59606256208244.14,304428163373672.8,1.694546505747219e+16,3.6762916348251923e+17
40.03903428423004,5534369246328203.0,4.143794656571709e+17,4871979952488095.0,1.0225231830410134e+16,60962638825280.86,311356449683044.7,1.7331327924711154e+16,3.760442376147252e+17
