t(s),Total solute volume 1,Total retention volume 1,Total 1 volume 1,Total 2 volume 1,Total 3 volume 1,Total 4 volume 1,Total 5 volume 1,Total 6 volume 1
0.1,964857416365797.9,1154672529873703.2,88762465329957.31,101052648177948.16,0.0,0.0,0.0,0.0
0.202,1392821475430802.5,1793669919641411.0,128133199983968.78,145874714413839.84,175808906162.53482,350916426506.2507,5388553997034.386,120925250483097.08
0.30604000000000003,1680378380338288.8,2320064418265071.0,154587118992568.47,175991482820525.44,428416727736.4216,855163972496.8967,13131722381140.846,294692133032318.7
0.41216080000000005,1896317279385332.0,2797844628398306.0,174452509278919.2,198607464905341.22,732417902156.4652,1462050653960.6765,22451077864935.023,503821828407661.2
0.5204040160000001,2067535215400723.0,3250209114609466.0,190203775674089.2,216539675335359.97,1075351336979.2798,2146716671244.5632,32964887106399.242,739743493084672.1
0.6308120963200001,2207877184903024.5,3688372535158015.5,203114594484015.16,231238145550741.47,1449794925818.2698,2894357775208.522,44445827980274.2,997352629538935.1
0.7434283382464002,2325574434024662.0,4118681310130628.5,213942202674448.88,243564960681991.66,1850890521778.001,3695286183508.4165,56745145258340.96,1273308390785903.2
0.8582969050113283,2425974526956829.5,4545111666235279.0,223178551672347.38,254080188486985.7,2275277972449.2983,4542803454024.641,69759987048201.35,1565300330644435.5
0.9754628431115548,2512766825518961.0,4970342695104987.0,231163045876889.03,263170227805891.3,2720549700252.7524,5432112139270.782,83416692575775.06,1871673241487953.2
1.094972099973786,2588609843519458.0,5396282826735782.0,238140256388998.5,271113513420263.6,3184939805157.105,6359695432553.796,97661266308361.14,2191213311860991.0
1.2168715419732616,2655483613529590.0,5824353852116021.0,244292337141578.72,278117420569214.25,3667133246674.024,7322936428184.277,112453531501315.72,2523016879699459.5
1.3412089728127268,2714901720550411.0,6255655503819153.0,249758531026275.25,284340471923669.8,4166142248274.9204,8319871519265.033,127763343505064.88,2866405423046201.0
1.4680331522689813,2768045859267460.5,6691066312662530.0,254647548544959.8,289906430204444.0,4681222890403.643,9349023987839.387,143568034470067.03,3220868193297368.0
1.597393815314361,2815854908982532.5,7131308264186707.0,259045762295703.5,294913627288988.0,5211816971746.1455,10409288014835.547,159850632274793.38,3586022228358115.5
1.729341691620648,2859085961303385.5,7576989818458393.0,263022821240873.22,299441355839433.06,5757510404238.253,11499845680927.209,176598586046731.34,3961583737942809.0
1.863928525453061,2898357340792496.0,8028635442451282.0,266635608409880.16,303554374994778.94,6318002782944.6875,12620106265371.594,193802834080722.56,4347347175125096.0
2.001207095962122,2934179669606992.5,8486706432043612.0,269931098703855.03,307306163871475.56,6893084714871.261,13769661026843.182,211457109491783.34,4743169644627787.0
2.1412312378813647,2966978764856183.5,8951615936104537.0,272948465347727.62,310741319677999.6,7482620658974.13,14948248981307.191,229557414733683.4,5148959101848659.0
2.284055862638992,2997112819151709.0,9423740019150310.0,275720660422191.66,313897357089647.1,8086535758076.168,16155730645496.047,248101618434100.16,5564665297649102.0
2.4297369798917723,3024885494143305.5,9903425954881886.0,278275619409058.88,316806079577032.56,8704805611857.083,17392067649288.807,267089142350521.3,5990272746140818.0
2.578331719489608,3050556037633897.0,1.0390998544746e+16,280637191919540.78,319494639004399.8,9337448249426.023,18657306737535.062,286520715729111.8,6425795205472102.0
2.7298983538794,3074347197356507.0,1.0886765002547632e+16,282825869725491.1,321986364465165.8,9984517769004.941,19951567098924.047,306398180752926.6,6871271305379606.0
2.884496320956988,3096451479786555.5,1.139101878118972e+16,284859362541494.2,324301417787652.8,10646099256358.662,21275030247041.996,326724337181163.1,7326761054389434.0
3.0421862473761276,3117036149553495.0,1.1904042607715238e+16,286753057947844.8,326457317139694.4,11322304694752.408,22627931880571.66,347502817380114.8,7792343029118773.0
3.2030299723236504,3136247259116124.5,1.2426110918129616e+16,288520392102236.94,328469359069620.4,12013269651345.715,24010555293507.754,368737985156387.3,8268112097740415.0
3.3670905717701234,3154212923719500.0,1.2957491831793508e+16,290173151020803.94,330350961503121.2,12719150577111.664,25423226010374.99,390434853401676.0,8754177565560920.0
3.5344323832055258,3171046003220773.0,1.349844876882268e+16,291721717293819.9,332113944619574.06,13440122595608.766,26866307397731.996,412599016729973.8,9250661656965204.0
3.7051210308696363,3186846313590821.0,1.4049241787979136e+16,293175273533730.8,333768762469795.7,14176377684289.34,28340197059825.543,435236596156906.25,9757698267483750.0
3.879223451487029,3201702462391449.5,1.4610128703756268e+16,294541971230651.56,335324695211520.94,14928123173283.982,29845323868669.26,458354193522102.8,1.0275431934358608e+16
4.0568079205167695,3215693381327101.5,1.5181366027599768e+16,295829071740106.5,336790009618522.0,15695580502691.613,31382145510928.367,481958853848586.06,1.0804016985051846e+16
4.237944078927105,3228889613033668.0,1.576320976800342e+16,297043064661717.6,338172093850183.8,16478984191701.354,32951146458525.156,506058034209812.06,1.1343616831597812e+16
4.422702960505647,3241354397168701.5,1.6355916116575936e+16,298189767754521.4,339477571201246.44,17278580982343.205,34552836288781.89,530659577965295.3,1.1894403385215022e+16
4.61115701971576,3253144591597844.0,1.6959742041389988e+16,299274411681915.0,340712396580664.6,18094629128023.902,36187748294598.1,555771693451193.94,1.2456556570655734e+16
4.803380160110075,3264311457310901.5,1.757494580450728e+16,300301712220333.56,341881938718407.5,18927397802759.39,37856438336649.46,581402936388576.6,1.3030263923729644e+16
4.9994477633122765,3274901330122086.0,1.820178741716931e+16,301275932052602.6,342991050514809.7,19777166611551.016,39559483898640.44,607562195411138.8,1.3615720258558462e+16
5.199436718578522,3284956197832761.0,1.8840529043500812e+16,302200933864265.4,344044129488697.94,20644225185947.723,41297483313824.75,634258680224234.6,1.4213127393591082e+16
5.403425452950093,3294514198076668.0,1.949143536150456e+16,303080226143070.5,345045169918343.06,21528872851705.902,43071055136728.17,661501911995124.8,1.4822693927382912e+16
5.611493962009095,3303610049317591.0,2.0154773888494156e+16,303917002828778.06,345997807981237.1,22431418357759.285,44880837638605.15,689301715644768.6,1.5444635056725442e+16
5.823723841249277,3312275425268963.0,2.0830815276821184e+16,304714177758052.9,346905360968281.1,23352179657568.89,46727488408868.51,717668213768523.4,1.6079172430990942e+16
6.040198318074262,3320539281233772.5,2.1519833584716216e+16,305474414686240.7,347770861462421.8,24291483735427.754,48611684047732.836,746611821959184.1,1.6726534037591448e+16
6.261002284435747,3328428139430247.5,2.2222106526237296e+16,306200153536026.4,348597087221732.2,25249666471522.664,50534119937767.45,776143245343482.6,1.7386954114296544e+16
6.486222330124463,3335966339202718.5,2.2937915703646636e+16,306893633415689.0,349386587384816.9,26227072540559.31,52495510084059.16,806273476173939.4,1.8060673084844868e+16
6.715946776726952,3343176257064655.5,2.3667546824992868e+16,307556912862049.8,350141705516627.3,27224055339581.92,54496587014331.484,837013792343312.2,1.8747937514852284e+16
6.950265712261491,3350078500737669.5,2.4411289909232596e+16,308191887691176.75,350864599930796.6,28240976941301.7,56538101731734.9,868375756709796.1,1.944900008549013e+16
7.18927102650672,3356692080705329.0,2.5169439480859036e+16,308800306780548.06,351557261657030.9,29278208069812.098,58620823714148.836,900371217138499.0,2.016411958279362e+16
7.433056447036854,3363034562265446.5,2.5942294755705892e+16,309383786057170.0,352221530366038.8,30336128096039.79,60745540954780.05,933012307179176.1,2.089356090078728e+16
7.681717575977592,3369122200619966.5,2.673015981934728e+16,309943820925218.1,352859108517930.8,31415125050673.33,62913060039623.125,966311447312242.0,2.1637595056881624e+16
7.935351927497144,3374970061169977.0,2.7533343799304004e+16,310481797332643.4,353471573961110.06,32515595652638.727,65124206258015.95,1000281346705277.6,2.2396499218224404e+16
8.194058966047088,3380592126872418.0,2.8352161032100148e+16,310999001647482.56,354060391176086.4,33637945351470.445,67379823743070.69,1034935005430688.5,2.3170556737878916e+16
8.45794014536803,3386001394252971.5,2.9186931226062664e+16,311496629490617.75,354626921331224.0,34782588382157.41,69680775639233.88,1070285717102465.2,2.396005719986401e+16
8.72709894827539,3391209959449169.0,3.003797962064091e+16,311975793651337.06,355172431294304.8,35949947831241.88,72027944294624.12,1106347071896000.2,2.476529647222421e+16
9.0016409272409,3396229095470279.0,3.0905637142916852e+16,312437531194898.75,355698101724218.56,37140455713116.914,74422231476135.88,1143132959920196.0,2.5586576767418076e+16
9.281673745785717,3401069321702254.5,3.17902405618925e+16,312882809856664.06,356205034350434.44,38354553055609.52,76864558605580.94,1180657574915457.2,2.642420670940653e+16
9.567307220701432,3405740466550335.5,3.269213264106422e+16,313312533804933.2,356694258533770.9,39592689994059.46,79355867015392.69,1218935418254970.5,2.7278501406910804e+16
9.85865336511546,3410251723996665.0,3.3611662289735196e+16,313727548843982.5,357166737189846.06,40855325873206.53,81897118222620.53,1257981303229887.5,2.8149782532379052e+16
10.155826432417769,3414611704751138.5,3.454918471345958e+16,314128647119713.8,357623372146290.2,42142929356287.51,84489294220128.27,1297810359601898.2,2.9038378406264136e+16
10.458942961066125,3418828482588794.0,3.5505061563967748e+16,314516571382477.56,358065008995795.5,43455978540823.875,87133397784072.48,1338438038408988.5,2.9944624086266756e+16
10.768121820287448,3422909636393862.5,3.6479661088882744e+16,314892018854936.1,358492441499533.9,44794961080641.21,89830452796853.88,1379880117012329.8,3.086886146124454e+16
11.083484256693197,3426862288367267.0,3.747335828150327e+16,315255644746977.3,358906415588751.4,46160374313725.27,92581504584878.73,1422152704374040.5,3.181143934952766e+16
11.405153941827061,3430693138799926.5,3.8486535030899256e+16,315608065454700.5,359307633006687.2,47552725395560.92,95387620270543.95,1465272246557150.8,3.2772713601414656e+16
11.733257020663602,3434408497766658.5,3.9519580272539896e+16,315949861476106.4,359696754627982.3,48972531437650.516,98249889137967.39,1509255532440423.8,3.3753047205653092e+16
12.067922161076874,3438014314054148.0,4.057289013965394e+16,316281580072346.9,360074403488395.5,50420319650936.734,101169423012052.6,1554119699641935.8,3.475281039973414e+16
12.409280604298411,3441516201600815.5,4.164686811550002e+16,316603737700061.06,360441167553940.25,51896627493894.69,104147356650547.75,1599882240646454.0,3.5772380783854384e+16
12.75746621638438,3444919463694853.0,4.274192518670953e+16,316916822237491.25,360797602255222.8,53402002825079.2,107184848148825.81,1646561009132333.2,3.68121434384158e+16
13.112615540712067,3448229115149302.0,4.385847999784892e+16,317221295024484.7,361144232809907.5,54937004059941.48,110283079357151.81,1694174226494795.0,3.787249104495336e+16
13.474867851526309,3451449902649100.0,4.499695900733724e+16,317517592734332.6,361481556353733.5,56502200331747.17,113443256310267.53,1742740488562975.2,3.8953824010395e+16
13.844365208556836,3454586323443842.5,4.615779664483946e+16,317806129093414.56,361810043898264.75,58098171656449.086,116666609669149.31,1792278772508765.2,4.005655059456956e+16
14.221252512727972,3457642642541442.5,4.734143547025017e+16,318087296462936.9,362130142131640.3,59725509101380.33,119954395174845.44,1842808443946284.2,4.118108704089174e+16
14.605677562982532,3460622908541534.5,4.854832633437123e+16,318361467295538.2,362442275076855.1,61384814957648.414,123307894114324.98,1894349264220923.5,4.232785771016436e+16
14.997791114242183,3463530968232965.5,4.977892854137768e+16,318628995478186.6,362746845620606.3,63076702916124.32,126728413798300.36,1946921397887899.2,4.349729521744353e+16
15.397746936527026,3466370480067013.5,5.103371001316272e+16,318890217571654.1,363044236924385.25,64801798246927.21,130217288051016.66,2000545420380147.8,4.468984057192168e+16
15.805701875257567,3469144926606528.0,5.231314745564396e+16,319145453955786.8,363334813728316.0,66560737982318.64,133775877712022.97,2055242325866200.5,4.590594331979275e+16
16.221815912762718,3471857626041337.5,5.361772652710438e+16,319395009888860.44,363618923557202.8,68354171102921.93,137405571149960.48,2111033535298710.8,4.7146061690065384e+16
16.64625223101797,3474511742851022.5,5.494794200864534e+16,319639176488515.5,363896897837276.3,70182758727193.836,141107784788427.3,2167940904654888.2,4.841066274329801e+16
17.079177275638333,3477110297688638.0,5.630429797681309e+16,319878231641005.44,364169052931345.56,72047174304079.61,144883963643993.0,2225986733370115.8,4.9700222523233896e+16
17.5207608211511,3479656176551389.0,5.7687307978464856e+16,320112440844867.6,364435691099277.56,73948103808785.62,148735581876457.4,2285193772966554.5,5.101522621131757e+16
17.97117603757412,3482152139298426.0,5.909749520793175e+16,320342057994509.0,364697101390088.75,75886245941604.27,152664143351459.2,2345585235878578.5,5.235616828407708e+16
18.430599558325603,3484600827569853.5,6.053539268653465e+16,320567326108732.8,364953560471334.44,77862312329742.0,156671182215558.97,2407184804477300.5,5.372355267336213e+16
18.899211549492115,3487004772156333.0,6.200154344450454e+16,320788478008695.25,365205333400941.44,79877027732084.27,160758263483928.66,2470016640296379.5,5.511789292942604e+16
19.37719578048196,3489366399863814.0,6.3496500705356344e+16,321005736949436.75,365452674346187.0,81931130246847.56,164926983640798.9,2534105393461996.5,5.653971238684722e+16
19.864739696091597,3491688039914090.5,6.502082807276286e+16,321219317208704.75,365695827254036.6,84025371522067.0,169178971252819.88,2599476212329391.5,5.7989544333281784e+16
20.36203449001343,3493971929918204.0,6.657509971997106e+16,321429424636469.8,365935026476767.06,86160516968860.55,173515887595509.38,2666154753329282.5,5.946793218104599e+16
20.869275179813698,3496220221456128.0,6.815990058180375e+16,321636257168245.94,366170497356340.3,88337345977424.66,177939427292967.75,2734167191026970.5,6.097542964152565e+16
21.38666068340997,3498434985293702.5,6.977582654928186e+16,321840005305011.06,366402456770793.25,90556652135700.62,182451318971047.44,2803540228397636.0,6.251260090240785e+16
21.91439389707817,3500618216264672.0,7.142348466690735e+16,322040852562340.8,366631113645544.5,92819243450664.2,187053325924179.97,2874301107321214.0,6.408002080773865e+16
22.452681775019734,3502771837843426.0,7.310349333263714e+16,322238975891075.2,366856669432320.0,95125942572180.16,191747246796069.97,2946477619300380.5,6.5678275040801496e+16
23.00173541052013,3504897706432005.5,7.481648250058202e+16,322434546071706.0,367079318558137.56,97477587019367.98,196534916274468.0,3020098116405412.5,6.7307960309820856e+16
23.561770118730532,3506997615382670.5,7.65630938864596e+16,322627728084433.5,367299248846606.44,99875029409416.19,201418205800254.62,3095191522449945.5,6.896968453648628e+16
24.133005521105144,3509073298775726.5,7.834398117582717e+16,322818681456709.3,367516641913593.0,102319137688791.53,206399024291063.94,3171787344401415.5,7.06640670473e+16
24.715665631527248,3511126434970742.0,8.015981023512248e+16,323007560589932.3,367731673539148.0,104810795366775.47,211479318879693.25,3249915684030571.5,7.23917387677455e+16
25.309978944157795,3513158649947536.0,8.201125932553243e+16,323194515066802.94,367944514017422.5,107350901751264.33,216661075667539.03,3329607249804190.5,7.415334241927744e+16
25.91617852304095,3515171520452381.5,8.389901931971466e+16,323379689940764.9,368155328486177.0,109940372186765.02,221946320493324.88,3410893369025541.0,7.59495327191296e+16
26.53450209350177,3517166576963153.5,8.582379392138726e+16,323563226008774.2,368364277237333.1,112580138294512.86,227337119717380.16,3493806000227064.5,7.778097658293899e+16
27.165192135371807,3519145306486613.0,8.778629988780443e+16,323745260068649.3,368571516009939.9,115271148214639.03,232835581021740.75,3578377745820052.5,7.964835333018293e+16
27.808495978079243,3521109155199424.0,8.978726725513488e+16,323925925162024.6,368777196266779.06,118014366850306.53,238443854226345.8,3664641865005999.5,8.155235489242394e+16
28.464665897640828,3523059530944127.0,9.18274395667513e+16,324105350803969.7,368981465455776.8,120810776113730.06,244164132121625.9,3752632286954755.5,8.349368602435739e+16
29.133959215593645,3524997805589967.5,9.39075741044443e+16,324283663200178.44,369184467257254.4,123661375173993.72,249998651317756.44,3842383624254356.0,8.547306451765074e+16
29.816638399905518,3526925317268068.5,9.602844212256693e+16,324460985452586.94,369386341818033.9,126567180706572.83,255949693110894.78,3933931186637918.5,8.749122141757282e+16
30.51297116790363,3528843372489519.5,9.81908290851149e+16,324637437754237.44,369587225973264.8,129529227144463.55,262019584366685.8,4027310994992731.0,8.95489012423938e+16
31.223230591261704,3530753248154421.0,1.003955349057442e+17,324813137574092.75,369787253456845.1,132548566930813.6,268210698421363.38,4122559795657117.0,9.164686220554957e+16
31.947695203086937,3532656193459260.0,1.0264337419073038e+17,324988199832515.8,369986555101185.0,135626270772950.02,274525456000755.22,4219715075010697.5,9.378587644055298e+16
32.686649107148675,3534553431709582.5,1.0493517648485877e+17,325162737068016.5,370185259027044.06,138763427897683.75,280966326157519.22,4318815074363541.5,9.596673022863525e+16
33.44038208929165,3536446162044153.0,1.0727178652024874e+17,325336859595871.5,370383490824124.44,141961146307778.28,287535827226947.2,4419898805150252.5,9.819022422909941e+16
34.20918973107749,3538335561076720.5,1.0965406446809838e+17,325510675659160.94,370581373723003.94,145220553039444.62,294236527801660.25,4523006064434882.0,1.0045717371236322e+17
34.993373525699035,3540222784460725.5,1.1208288619333834e+17,325684291572714.06,370779028759027.0,148542794420737.84,301071047725555.25,4628177450732743.0,1.0276840879566685e+17
35.793240996213015,3542108968382232.5,1.1455914351218298e+17,325857811860446.4,370976574928647.25,151929036330708.4,308042059107347.0,4735454380155289.0,1.051247746814184e+17
36.60910581613728,3543995230985626.5,1.1708374445255757e+17,326031339386526.44,371174129338760.75,155380464459162.38,315152287354052.06,4844879102884619.0,1.0752713189814907e+17
37.44128793246003,3545882673736751.5,1.1965761351738227e+17,326204975480766.3,371371807349463.4,158898284566873.97,322404512224799.6,4956494719983872.0,1.0997635654403963e+17
38.29011369110923,3547772382727415.5,1.22281691950686e+17,326378820058644.7,371569722710680.7,162483722746085.2,329801568905322.3,5070345200550253.0,1.124733405329877e+17
39.15591596493141,3549665429925208.5,1.2495693800652587e+17,326552971736272.7,371767987693059.1,166138025681121.12,337346349103511.75,5186475399217424.0,1.1501899184316933e+17
40.03903428423004,3551562874372333.5,1.2768432722067258e+17,326727527940684.75,371966713213529.4,169862460908940.53,345041802166408.2,5304931074014090.0,1.1761423476805666e+17
40.93981496991464,3553465763336541.5,1.304648526850325e+17,326902585015722.4,372166008955844.4,173658317079426.5,352890936219040.75,5425758904586076.0,1.2026001016983997e+17
41.85861126931294,3555375133417616.5,1.3329952532475976e+17,327078238323820.0,372365983486469.3,177526904215231.53,360896819325486.7,5549006510788526.0,1.2295727573520261e+17
42.7957834946992,3557292011612139.0,1.3618937417801731e+17,327254582343963.3,372566744366092.56,181469553970948.12,369062580672562.06,5674722471656258.0,1.2570700623339552e+17
43.751699164593184,3559217416339456.0,1.3913544667833534e+17,327431710766070.2,372768398257076.06,185487619891403.22,377391411776557.8,5802956344759102.0,1.2851019377654563e+17
