t(s),Total solute volume 1,Total retention volume 1,Total 1 volume 1,Total 2 volume 1,Total 3 volume 1,Total 4 volume 1,Total 5 volume 1,Total 6 volume 1
0.1,1056267390375795.4,1058154896848931.5,1887506473136.0288,0.0,0.0,0.0,0.0,0.0
0.21000000000000002,1623144552859920.8,1626045046656160.0,2900493796235.2046,0.0,0.0,0.0,0.0,0.0
0.33100000000000007,2079565815349387.8,2083281915722038.5,3716100372649.848,0.0,0.0,0.0,0.0,0.0
0.46410000000000007,2487687176502861.5,2492132573401816.0,4445396898956.453,0.0,0.0,0.0,0.0,0.0
0.6105100000000001,2870716284971099.0,2875846139527207.0,5129854556097.695,0.0,0.0,0.0,0.0,0.0
0.7715610000000002,3240326034148605.5,3246116366496166.5,5790332347563.612,0.0,0.0,0.0,0.0,0.0
0.9487171000000002,3603454782956567.5,3609894011803067.0,6439228846506.232,0.0,0.0,0.0,0.0,0.0
1.1435888100000002,3964714619103922.5,3971799404774383.5,7084785670451.861,0.0,0.0,0.0,0.0,0.0
1.3579476910000003,4327436568308653.5,4335169523538287.0,7732955229631.289,0.0,0.0,0.0,0.0,0.0
1.5937424601000005,4694189425130128.0,4702577752987493.0,8388327857355.925,0.0,0.0,0.0,0.0,0.0
1.8531167061100007,5067063372218362.0,5076118010844803.0,9054638626442.926,0.0,0.0,0.0,0.0,0.0
2.138428376721001,5447836824428551.0,5457571889921596.0,9735065493049.717,0.0,0.0,0.0,0.0,0.0
2.452271214393101,5838080475919753.0,5848512891144453.0,10432415224713.896,0.0,0.0,0.0,0.0,0.0
2.7974983358324113,6239225389978924.0,6250374635053082.0,11149245074162.836,0.0,0.0,0.0,0.0,0.0
3.1772481694156527,6652609432183271.0,6664497377936799.0,11887945753527.121,0.0,0.0,0.0,0.0,0.0
3.594972986357218,7079510108015516.0,7092160908129381.0,12650800113850.691,0.0,0.0,0.0,0.0,0.0
4.05447028499294,7521168567106742.0,7534608593146457.0,13440026039715.08,0.0,0.0,0.0,0.0,0.0
4.5599173134922335,7978807701496351.0,7993065510286466.0,14257808790107.422,0.0,0.0,0.0,0.0,0.0
5.115909044841457,8453646200070287.0,8468752526183429.0,15106326113140.207,0.0,0.0,0.0,0.0,0.0
5.727499949325603,8946909779648582.0,8962897547964155.0,15987768315555.36,0.0,0.0,0.0,0.0,0.0
6.400249944258164,9459840414052936.0,9476744768807638.0,16904354754698.945,0.0,0.0,0.0,0.0,0.0
7.140274938683981,9993704127138912.0,1.0011562474903236e+16,17858347764357.582,0.0,0.0,0.0,0.0,0.0
7.95430243255238,1.0549797748321588e+16,1.056864981304821e+16,18852064726612.508,0.0,0.0,0.0,0.0,0.0
8.84973267580762,1.1129454916861184e+16,1.1149342805662428e+16,19887888801256.617,0.0,0.0,0.0,0.0,0.0
9.834705943388382,1.1734051544420962e+16,1.1755019823108164e+16,20968278687167.605,0.0,0.0,0.0,0.0,0.0
10.918176537727222,1.2365010892010308e+16,1.2387106669704896e+16,22095777694600.266,0.0,0.0,0.0,0.0,0.0
12.109994191499945,1.3023808379679186e+16,1.3047081402019122e+16,23273022339918.84,0.0,0.0,0.0,0.0,0.0
13.42099361064994,1.371197622027842e+16,1.3736478970904348e+16,24502750625939.25,0.0,0.0,0.0,0.0,0.0
14.863092971714936,1.4431107948932108e+16,1.4456895759068004e+16,25787810135913.496,0.0,0.0,0.0,0.0,0.0
16.44940226888643,1.5182862905293402e+16,1.5209994071336542e+16,27131166043137.63,0.0,0.0,0.0,0.0,0.0
18.194342495775075,1.5968970714281662e+16,1.5997506623399476e+16,28535909117838.203,0.0,0.0,0.0,0.0,0.0
20.113776745352585,1.6791235800542426e+16,1.6821241064336738e+16,30005263794306.465,0.0,0.0,0.0,0.0,0.0
22.225154419887843,1.7651541958119668e+16,1.7683084554456292e+16,31542596336662.57,0.0,0.0,0.0,0.0,0.0
24.54766986187663,1.8551856970603028e+16,1.8585008393697836e+16,33151423094760.152,0.0,0.0,0.0,0.0,0.0
27.102436848064297,1.9494237219058164e+16,1.9529072637796372e+16,34835418738160.35,0.0,0.0,0.0,0.0,0.0
29.91268053287073,2.048083208894279e+16,2.0517430513073504e+16,36598424130752.71,0.0,0.0,0.0,0.0,0.0
33.003948586157804,2.1513887732926332e+16,2.155233218598057e+16,38444453054192.43,0.0,0.0,0.0,0.0,0.0
36.40434344477359,2.2595749280434164e+16,2.263612697658961e+16,40377696155436.51,0.0,0.0,0.0,0.0,0.0
40.14477778925095,2.3728859814905096e+16,2.3771262334023172e+16,42402519118023.58,0.0,0.0,0.0,0.0,0.0
44.25925556817605,2.491575330380799e+16,2.4960276753834924e+16,44523450026906.99,0.0,0.0,0.0,0.0,0.0
48.78518112499366,2.6159037190656484e+16,2.620578233891598e+16,46745148259489.695,0.0,0.0,0.0,0.0,0.0
53.763699237493036,2.746135872087098e+16,2.7510431065180664e+16,49072344309641.5,0.0,0.0,0.0,0.0,0.0
59.240069161242346,2.88253476402036e+16,2.8876857377594216e+16,51509737390568.46,0.0,0.0,0.0,0.0,0.0
65.26407607736658,3.0253527200349664e+16,3.0307589036753956e+16,54061836404268.64,0.0,0.0,0.0,0.0,0.0
71.89048368510325,3.174818600300919e+16,3.1804918733940696e+16,56732730931483.63,0.0,0.0,0.0,0.0,0.0
79.17953205361358,3.3311205550148732e+16,3.337073133321992e+16,59525783071225.06,0.0,0.0,0.0,0.0,0.0
87.19748525897495,3.494384256015712e+16,3.5006285798606812e+16,62443238449745.1,0.0,0.0,0.0,0.0,0.0
96.01723378487245,3.664647082422256e+16,3.671195658915321e+16,65485764930539.61,0.0,0.0,0.0,0.0,0.0
105.7189571633597,3.84182938399355e+16,3.848694577904092e+16,68651939105443.76,0.0,0.0,0.0,0.0,0.0
116.39085287969569,4.025704561183635e+16,4.0328983323477704e+16,71937711641446.9,0.0,0.0,0.0,0.0,0.0
128.12993816766527,4.215870178061745e+16,4.223403767170263e+16,75335891085138.92,0.0,0.0,0.0,0.0,0.0
141.04293198443182,4.411722584479202e+16,4.41960615351686e+16,78835690376519.2,0.0,0.0,0.0,0.0,0.0
155.247225182875,4.612437537615396e+16,4.620679775672359e+16,82422380569575.7,0.0,0.0,0.0,0.0,0.0
170.87194770116253,4.816959105187323e+16,4.825566814441611e+16,86077092542850.84,0.0,0.0,0.0,0.0,0.0
188.0591424712788,5.023998768192907e+16,5.0329764482900216e+16,89776800971226.0,0.0,0.0,0.0,0.0,0.0
206.9650567184067,5.232046196397012e+16,5.241395648085424e+16,93494516884176.55,0.0,0.0,0.0,0.0,0.0
227.76156239024738,5.439392699250783e+16,5.449112669923547e+16,97199706727727.97,0.0,0.0,0.0,0.0,0.0
250.63771862927214,5.644167866519679e+16,5.654253761231632e+16,100858947119496.25,0.0,0.0,0.0,0.0,0.0
275.8014904921994,5.844389363130656e+16,5.8548330445968696e+16,104436814662148.48,0.0,0.0,0.0,0.0,0.0
303.4816395414193,6.038025155256058e+16,6.048814855045598e+16,107896997895441.3,0.0,0.0,0.0,0.0,0.0
333.92980349556126,6.223066547118145e+16,6.234186907360989e+16,111203602428627.28,0.0,0.0,0.0,0.0,0.0
367.4227838451174,6.397609275537259e+16,6.409041535543138e+16,114322600058652.52,0.0,0.0,0.0,0.0,0.0
404.26506222962917,6.559938599564142e+16,6.5716609344917784e+16,117223349276434.31,0.0,0.0,0.0,0.0,0.0
444.7915684525921,6.708612991193972e+16,6.7206010002713016e+16,119880090773331.95,0.0,0.0,0.0,0.0,0.0
489.3707252978514,6.842539923129617e+16,6.8547672533020664e+16,122273301724509.5,0.0,0.0,0.0,0.0,0.0
538.4077978276366,6.961036655127194e+16,6.9734757333275784e+16,124390782003821.17,0.0,0.0,0.0,0.0,0.0
592.3485776104003,7.063869129730255e+16,7.0764919646527144e+16,126228349224560.31,0.0,0.0,0.0,0.0,0.0
651.6834353714404,7.151263311571033e+16,7.164042315707159e+16,127790041361377.38,0.0,0.0,0.0,0.0,0.0
716.9517789085845,7.223885600210957e+16,7.236794376884278e+16,129087766733200.44,0.0,0.0,0.0,0.0,0.0
788.7469567994431,7.282792160425282e+16,7.295806200281082e+16,130140398558044.22,0.0,0.0,0.0,0.0,0.0
867.7216524793874,7.329350753727998e+16,7.342447991540053e+16,130972378120310.33,0.0,0.0,0.0,0.0,0.0
954.5938177273263,7.365142322049902e+16,7.378303517663206e+16,131611956133063.56,0.0,0.0,0.0,0.0,0.0
1050.153199500059,7.391852463221477e+16,7.405061388561899e+16,132089253404077.11,0.0,0.0,0.0,0.0,0.0
1155.2685194500648,7.411164395349448e+16,7.42440783017532e+16,132434348258801.33,0.0,0.0,0.0,0.0,0.0
1270.8953713950714,7.424664617382318e+16,7.437932176449406e+16,132675590670749.12,0.0,0.0,0.0,0.0,0.0
1398.0849085345785,7.433770208949358e+16,7.447054039266232e+16,132838303168589.8,0.0,0.0,0.0,0.0,0.0
1537.9933993880366,7.439682993078437e+16,7.452977389253227e+16,132943961747856.36,0.0,0.0,0.0,0.0,0.0
1691.8927393268402,7.443371398997384e+16,7.456672386174288e+16,133009871769105.62,0.0,0.0,0.0,0.0,0.0
1861.1820132595244,7.443371398997384e+16,7.456672386174288e+16,133009871769105.62,0.0,0.0,0.0,0.0,0.0
2047.400214585477,7.443371398997384e+16,7.456672386174288e+16,133009871769105.62,0.0,0.0,0.0,0.0,0.0
2252.2402360440246,7.443371398997384e+16,7.456672386174288e+16,133009871769105.62,0.0,0.0,0.0,0.0,0.0
2477.564259648427,7.443371398997384e+16,7.456672386174288e+16,133009871769105.62,0.0,0.0,0.0,0.0,0.0
2725.42068561327,7.443371398997384e+16,7.456672386174288e+16,133009871769105.62,0.0,0.0,0.0,0.0,0.0
2998.062754174597,7.443371398997384e+16,7.456672386174288e+16,133009871769105.62,0.0,0.0,0.0,0.0,0.0
3297.9690295920573,7.443371398997384e+16,7.456672386174288e+16,133009871769105.62,0.0,0.0,0.0,0.0,0.0
3627.8659325512635,7.443371398997384e+16,7.456672386174288e+16,133009871769105.62,0.0,0.0,0.0,0.0,0.0
3990.75252580639,7.443371398997384e+16,7.456672386174288e+16,133009871769105.62,0.0,0.0,0.0,0.0,0.0
4389.927778387029,7.443371398997384e+16,7.456672386174288e+16,133009871769105.62,0.0,0.0,0.0,0.0,0.0
4829.020556225732,7.443371398997384e+16,7.456672386174288e+16,133009871769105.62,0.0,0.0,0.0,0.0,0.0
5312.022611848306,7.443371398997384e+16,7.456672386174288e+16,133009871769105.62,0.0,0.0,0.0,0.0,0.0
5843.324873033137,7.443371398997384e+16,7.456672386174288e+16,133009871769105.62,0.0,0.0,0.0,0.0,0.0
6427.757360336452,7.443371398997384e+16,7.456672386174288e+16,133009871769105.62,0.0,0.0,0.0,0.0,0.0
7070.6330963700975,7.443371398997384e+16,7.456672386174288e+16,133009871769105.62,0.0,0.0,0.0,0.0,0.0
7777.796406007108,7.443371398997384e+16,7.456672386174288e+16,133009871769105.62,0.0,0.0,0.0,0.0,0.0
8555.67604660782,7.443371398997384e+16,7.456672386174288e+16,133009871769105.62,0.0,0.0,0.0,0.0,0.0
9411.343651268602,7.443371398997384e+16,7.456672386174288e+16,133009871769105.62,0.0,0.0,0.0,0.0,0.0
10352.578016395462,7.443371398997384e+16,7.456672386174288e+16,133009871769105.62,0.0,0.0,0.0,0.0,0.0
11387.93581803501,7.443371398997384e+16,7.456672386174288e+16,133009871769105.62,0.0,0.0,0.0,0.0,0.0
12526.829399838512,7.443371398997384e+16,7.456672386174288e+16,133009871769105.62,0.0,0.0,0.0,0.0,0.0
13779.612339822364,7.443371398997384e+16,7.456672386174288e+16,133009871769105.62,0.0,0.0,0.0,0.0,0.0
15157.673573804603,7.443371398997384e+16,7.456672386174288e+16,133009871769105.62,0.0,0.0,0.0,0.0,0.0
16673.540931185064,7.443371398997384e+16,7.456672386174288e+16,133009871769105.62,0.0,0.0,0.0,0.0,0.0
18340.99502430357,7.443371398997384e+16,7.456672386174288e+16,133009871769105.62,0.0,0.0,0.0,0.0,0.0
20175.19452673393,7.443371398997384e+16,7.456672386174288e+16,133009871769105.62,0.0,0.0,0.0,0.0,0.0
22192.813979407325,7.443371398997384e+16,7.456672386174288e+16,133009871769105.62,0.0,0.0,0.0,0.0,0.0
24412.19537734806,7.443371398997384e+16,7.456672386174288e+16,133009871769105.62,0.0,0.0,0.0,0.0,0.0
26853.51491508287,7.443371398997384e+16,7.456672386174288e+16,133009871769105.62,0.0,0.0,0.0,0.0,0.0
29538.966406591157,7.443371398997384e+16,7.456672386174288e+16,133009871769105.62,0.0,0.0,0.0,0.0,0.0
32492.963047250276,7.443371398997384e+16,7.456672386174288e+16,133009871769105.62,0.0,0.0,0.0,0.0,0.0
35742.359351975305,7.443371398997384e+16,7.456672386174288e+16,133009871769105.62,0.0,0.0,0.0,0.0,0.0
39316.695287172835,7.443371398997384e+16,7.456672386174288e+16,133009871769105.62,0.0,0.0,0.0,0.0,0.0
43248.464815890125,7.443371398997384e+16,7.456672386174288e+16,133009871769105.62,0.0,0.0,0.0,0.0,0.0
47573.41129747914,7.443371398997384e+16,7.456672386174288e+16,133009871769105.62,0.0,0.0,0.0,0.0,0.0
52330.85242722706,7.443371398997384e+16,7.456672386174288e+16,133009871769105.62,0.0,0.0,0.0,0.0,0.0
57564.03766994977,7.443371398997384e+16,7.456672386174288e+16,133009871769105.62,0.0,0.0,0.0,0.0,0.0
63320.54143694475,7.443371398997384e+16,7.456672386174288e+16,133009871769105.62,0.0,0.0,0.0,0.0,0.0
69652.69558063924,7.443371398997384e+16,7.456672386174288e+16,133009871769105.62,0.0,0.0,0.0,0.0,0.0
76618.06513870317,7.443371398997384e+16,7.456672386174288e+16,133009871769105.62,0.0,0.0,0.0,0.0,0.0
84279.97165257348,7.443371398997384e+16,7.456672386174288e+16,133009871769105.62,0.0,0.0,0.0,0.0,0.0
92708.06881783083,7.443371398997384e+16,7.456672386174288e+16,133009871769105.62,0.0,0.0,0.0,0.0,0.0
101978.97569961392,7.443371398997384e+16,7.456672386174288e+16,133009871769105.62,0.0,0.0,0.0,0.0,0.0
112176.97326957532,7.443371398997384e+16,7.456672386174288e+16,133009871769105.62,0.0,0.0,0.0,0.0,0.0
123394.77059653286,7.443371398997384e+16,7.456672386174288e+16,133009871769105.62,0.0,0.0,0.0,0.0,0.0
135734.34765618618,7.443371398997384e+16,7.456672386174288e+16,133009871769105.62,0.0,0.0,0.0,0.0,0.0
149307.8824218048,7.443371398997384e+16,7.456672386174288e+16,133009871769105.62,0.0,0.0,0.0,0.0,0.0
164238.77066398528,7.443371398997384e+16,7.456672386174288e+16,133009871769105.62,0.0,0.0,0.0,0.0,0.0
180662.74773038382,7.443371398997384e+16,7.456672386174288e+16,133009871769105.62,0.0,0.0,0.0,0.0,0.0
198729.12250342223,7.443371398997384e+16,7.456672386174288e+16,133009871769105.62,0.0,0.0,0.0,0.0,0.0
218602.13475376446,7.443371398997384e+16,7.456672386174288e+16,133009871769105.62,0.0,0.0,0.0,0.0,0.0
240462.44822914092,7.443371398997384e+16,7.456672386174288e+16,133009871769105.62,0.0,0.0,0.0,0.0,0.0
264508.79305205506,7.443371398997384e+16,7.456672386174288e+16,133009871769105.62,0.0,0.0,0.0,0.0,0.0
290959.7723572606,7.443371398997384e+16,7.456672386174288e+16,133009871769105.62,0.0,0.0,0.0,0.0,0.0
320055.84959298663,7.443371398997384e+16,7.456672386174288e+16,133009871769105.62,0.0,0.0,0.0,0.0,0.0
352061.53455228533,7.443371398997384e+16,7.456672386174288e+16,133009871769105.62,0.0,0.0,0.0,0.0,0.0
387267.7880075139,7.443371398997384e+16,7.456672386174288e+16,133009871769105.62,0.0,0.0,0.0,0.0,0.0
425994.6668082653,7.443371398997384e+16,7.456672386174288e+16,133009871769105.62,0.0,0.0,0.0,0.0,0.0
468594.23348909186,7.443371398997384e+16,7.456672386174288e+16,133009871769105.62,0.0,0.0,0.0,0.0,0.0
515453.7568380011,7.443371398997384e+16,7.456672386174288e+16,133009871769105.62,0.0,0.0,0.0,0.0,0.0
566999.2325218013,7.443371398997384e+16,7.456672386174288e+16,133009871769105.62,0.0,0.0,0.0,0.0,0.0
623699.2557739815,7.443371398997384e+16,7.456672386174288e+16,133009871769105.62,0.0,0.0,0.0,0.0,0.0
686069.2813513797,7.443371398997384e+16,7.456672386174288e+16,133009871769105.62,0.0,0.0,0.0,0.0,0.0
754676.3094865177,7.443371398997384e+16,7.456672386174288e+16,133009871769105.62,0.0,0.0,0.0,0.0,0.0
830144.0404351695,7.443371398997384e+16,7.456672386174288e+16,133009871769105.62,0.0,0.0,0.0,0.0,0.0
913158.5444786865,7.443371398997384e+16,7.456672386174288e+16,133009871769105.62,0.0,0.0,0.0,0.0,0.0
1004474.4989265553,7.443371398997384e+16,7.456672386174288e+16,133009871769105.62,0.0,0.0,0.0,0.0,0.0
1104922.0488192108,7.443371398997384e+16,7.456672386174288e+16,133009871769105.62,0.0,0.0,0.0,0.0,0.0
1215414.3537011321,7.443371398997384e+16,7.456672386174288e+16,133009871769105.62,0.0,0.0,0.0,0.0,0.0
1336955.8890712454,7.443371398997384e+16,7.456672386174288e+16,133009871769105.62,0.0,0.0,0.0,0.0,0.0
1470651.57797837,7.443371398997384e+16,7.456672386174288e+16,133009871769105.62,0.0,0.0,0.0,0.0,0.0
1617716.835776207,7.443371398997384e+16,7.456672386174288e+16,133009871769105.62,0.0,0.0,0.0,0.0,0.0
1779488.619353828,7.443371398997384e+16,7.456672386174288e+16,133009871769105.62,0.0,0.0,0.0,0.0,0.0
1957437.581289211,7.443371398997384e+16,7.456672386174288e+16,133009871769105.62,0.0,0.0,0.0,0.0,0.0
2153181.4394181324,7.443371398997384e+16,7.456672386174288e+16,133009871769105.62,0.0,0.0,0.0,0.0,0.0
2368499.6833599457,7.443371398997384e+16,7.456672386174288e+16,133009871769105.62,0.0,0.0,0.0,0.0,0.0
2605349.7516959403,7.443371398997384e+16,7.456672386174288e+16,133009871769105.62,0.0,0.0,0.0,0.0,0.0
2865884.8268655348,7.443371398997384e+16,7.456672386174288e+16,133009871769105.62,0.0,0.0,0.0,0.0,0.0
3152473.4095520885,7.443371398997384e+16,7.456672386174288e+16,133009871769105.62,0.0,0.0,0.0,0.0,0.0
3467720.8505072976,7.443371398997384e+16,7.456672386174288e+16,133009871769105.62,0.0,0.0,0.0,0.0,0.0
3814493.0355580277,7.443371398997384e+16,7.456672386174288e+16,133009871769105.62,0.0,0.0,0.0,0.0,0.0
4195942.439113831,7.443371398997384e+16,7.456672386174288e+16,133009871769105.62,0.0,0.0,0.0,0.0,0.0
4615536.783025214,7.443371398997384e+16,7.456672386174288e+16,133009871769105.62,0.0,0.0,0.0,0.0,0.0
5077090.561327737,7.443371398997384e+16,7.456672386174288e+16,133009871769105.62,0.0,0.0,0.0,0.0,0.0
5584799.717460511,7.443371398997384e+16,7.456672386174288e+16,133009871769105.62,0.0,0.0,0.0,0.0,0.0
6143279.789206563,7.443371398997384e+16,7.456672386174288e+16,133009871769105.62,0.0,0.0,0.0,0.0,0.0
6757607.868127219,7.443371398997384e+16,7.456672386174288e+16,133009871769105.62,0.0,0.0,0.0,0.0,0.0
7433368.754939942,7.443371398997384e+16,7.456672386174288e+16,133009871769105.62,0.0,0.0,0.0,0.0,0.0
8176705.730433936,7.443371398997384e+16,7.456672386174288e+16,133009871769105.62,0.0,0.0,0.0,0.0,0.0
8994376.40347733,7.443371398997384e+16,7.456672386174288e+16,133009871769105.62,0.0,0.0,0.0,0.0,0.0
9893814.143825063,7.443371398997384e+16,7.456672386174288e+16,133009871769105.62,0.0,0.0,0.0,0.0,0.0
10883195.658207571,7.443371398997384e+16,7.456672386174288e+16,133009871769105.62,0.0,0.0,0.0,0.0,0.0
11971515.32402833,7.443371398997384e+16,7.456672386174288e+16,133009871769105.62,0.0,0.0,0.0,0.0,0.0
13168666.956431163,7.443371398997384e+16,7.456672386174288e+16,133009871769105.62,0.0,0.0,0.0,0.0,0.0
14485533.75207428,7.443371398997384e+16,7.456672386174288e+16,133009871769105.62,0.0,0.0,0.0,0.0,0.0
15934087.22728171,7.443371398997384e+16,7.456672386174288e+16,133009871769105.62,0.0,0.0,0.0,0.0,0.0
17527496.050009884,7.443371398997384e+16,7.456672386174288e+16,133009871769105.62,0.0,0.0,0.0,0.0,0.0
19280245.755010873,7.443371398997384e+16,7.456672386174288e+16,133009871769105.62,0.0,0.0,0.0,0.0,0.0
21208270.430511963,7.443371398997384e+16,7.456672386174288e+16,133009871769105.62,0.0,0.0,0.0,0.0,0.0
23329097.573563162,7.443371398997384e+16,7.456672386174288e+16,133009871769105.62,0.0,0.0,0.0,0.0,0.0
25662007.43091948,7.443371398997384e+16,7.456672386174288e+16,133009871769105.62,0.0,0.0,0.0,0.0,0.0
28228208.27401143,7.443371398997384e+16,7.456672386174288e+16,133009871769105.62,0.0,0.0,0.0,0.0,0.0
31051029.201412573,7.443371398997384e+16,7.456672386174288e+16,133009871769105.62,0.0,0.0,0.0,0.0,0.0
31536000.0,7.443371398997384e+16,7.456672386174288e+16,133009871769105.62,0.0,0.0,0.0,0.0,0.0
