t(s),Total solute volume 1,Total retention volume 1,Total 1 volume 1,Total 2 volume 1,Total 3 volume 1,Total 4 volume 1,Total 5 volume 1,Total 6 volume 1
0.1,1388605447609674.5,1.2965503955258198e+16,3123970752525701.5,8452927755122823.0,0.0,0.0,0.0,-0.03849354864423057
0.202,1972775251147500.2,1.843773003080782e+16,4438195525526631.5,1.2009150439920298e+16,19406930693.55001,142630034453.49695,3467492284101.3237,13979284964144.426
0.30604000000000003,2440792925469541.0,2.2838934806566316e+16,5491106189196374.0,1.4858205770965554e+16,48506352365.93991,357328399369.38104,9356261765120.75,39067824417991.73
0.41216080000000005,2841791382243742.0,2.6625927402104068e+16,6393241830041527.0,1.7299275495870188e+16,85565823636.60606,630912545485.0183,17179591292868.666,73722624286620.69
0.5204040160000001,3199070921524004.5,3.001522981781859e+16,7197021895208266.0,1.947420482608446e+16,129726024341.62637,956994600465.2523,26695435695788.0,117150018681258.7
0.6308120963200001,3525400474321393.0,3.3125486091969384e+16,7931173009305721.0,2.1460725808828504e+16,180504978771.73642,1331998767658.0398,37767853447113.055,168906442320228.47
0.7434283382464002,3828518308331427.0,3.602860317390281e+16,8613104156496263.0,2.330594550305038e+16,237614384982.73865,1753787028954.9392,50314064610530.4,228729740000251.9
0.8582969050113283,4113488841066372.5,3.877165841306843e+16,9254208884712210.0,2.5040693658150108e+16,300879326161.3265,2221061887304.447,64281797555334.84,296463290370949.56
0.9754628431115548,4383825879922214.0,4.138733818651499e+16,9862392293027958.0,2.6686360600682556e+16,370197978832.34894,2733067251131.911,79638105186098.02,372018042466195.7
1.094972099973786,4642079499479243.0,4.389939002923663e+16,1.0443391346063962e+16,2.8258469903457704e+16,445519123531.8345,3289421657099.4556,96363198080099.08,455351141374978.25
1.2168715419732616,4890166963078677.0,4.632569565645061e+16,1.100151935714165e+16,2.9768692890285988e+16,526828555037.5531,3890017557143.33,114446752766610.58,546452847065532.3
1.3412089728127268,5129571295931025.0,4.868011422907832e+16,1.1540112723365184e+16,3.1226057457492052e+16,614140364712.852,4534956741959.362,133885564351901.12,645338090831508.2
1.4680331522689813,5361466668441466.0,5.0973645728125496e+16,1.2061813003672284e+16,3.263771134801516e+16,707491086584.5421,5224506992569.395,154681985154875.12,752040724762594.2
1.597393815314361,5586800961199422.0,5.321519673519435e+16,1.2568752667352582e+16,3.400942476698856e+16,806935622765.3167,5959071916064.579,176842848846897.2,866609483268045.4
1.729341691620648,5806352073446894.0,5.541210251858042e+16,1.3062681772596392e+16,3.5345933159931972e+16,912544324984.554,6739169344865.338,200378708392106.2,989105090543204.0
1.863928525453061,6020767481155828.0,5.757049371683323e+16,1.3545056961266428e+16,3.665117802258829e+16,1024400855683.204,7565415508944.582,225303284361812.53,1119598151096236.6
2.001207095962122,6230592740796984.0,5.969556051991488e+16,1.4017105584516228e+16,3.79284804175112e+16,1142600591109.6404,8438513220930.116,251633058517082.62,1258167604761335.8
2.1412312378813647,6436292482067499.0,6.179174724506684e+16,1.4479872930633984e+16,3.9180668767135016e+16,1267249411141.7998,9359242923934.436,279386970304147.3,1404899602591108.8
2.284055862638992,6638266166411092.0,6.386289843577845e+16,1.493425767736184e+16,4.0410174783595176e+16,1398462771272.7263,10328455827743.012,308586187786776.6,1559886702024495.0
2.4297369798917723,6836860115824708.0,6.5912370441622424e+16,1.5381038953388334e+16,4.1619106693924344e+16,1536364984389.7356,11347068597468.146,339253933300570.56,1723227311602607.0
2.578331719489608,7032376831216728.0,6.794311793119795e+16,1.5820897302079314e+16,4.2809305965405864e+16,1681088661087.9253,12416059215130.04,371415349880397.8,1895025334739407.5
2.7298983538794,7225082306376069.0,6.995776188155113e+16,1.6254431135886682e+16,4.398239182922522e+16,1832774271481.2195,13536463739954.428,405097398369601.25,2075389973682106.5
2.884496320956988,7415211836348919.0,7.195864366359596e+16,1.6682169803589826e+16,4.513979663884173e+16,1991569801250.7534,14709373765568.035,440328777754882.2,2264435663493773.5
3.0421862473761276,7602974678970931.0,7.394786854291048e+16,1.7104584077453554e+16,4.62827942469585e+16,2157630481554.985,15935934423247.861,477139863142549.0,2462282111480093.0
3.2030299723236504,7788557831812252.0,7.592734101936146e+16,1.752209465030948e+16,4.741252299758016e+16,2331118577374.0483,17217342817019.299,515562657145333.8,2669054421119862.0
3.3670905717701234,7972129119086047.0,7.789879380067176e+16,1.7935079080245496e+16,4.853000451748342e+16,2512203222473.1772,18554846803146.562,555630751443576.4,2884883282387565.5
3.5344323832055258,8153839734827823.0,7.986381175725904e+16,1.8343877512055252e+16,4.96361591977464e+16,2701060291863.6475,19949744046508.66,597379296044398.2,3109905212246757.0
3.7051210308696363,8333826353757871.0,8.182385188187038e+16,1.8748797426093936e+16,5.073181904355658e+16,2897872304681.388,21403381301479.41,640844974355268.0,3344262830500560.5
3.879223451487029,8512212895616966.0,8.378026004022005e+16,1.915011760754465e+16,5.181773841454467e+16,3102828351964.4604,22917153876496.3,686065982653943.1,3588105157631387.0
4.0568079205167695,8689112009727856.0,8.573428512275584e+16,1.954809148627048e+16,5.289460306199984e+16,3316124045024.82,24492505250504.598,733082012913600.0,3841587922548520.0
4.237944078927105,8864626332221664.0,8.768709107553165e+16,1.9942949965225224e+16,5.396303778218845e+16,3537961481066.941,26130926816558.793,781934238250986.8,4104873869347655.5
4.422702960505647,9038849557452034.0,8.963976718794189e+16,2.033490383083835e+16,5.5023612938546216e+16,3768549223454.6484,27833957733417.324,832665300512815.4,4378133053635606.5
4.61115701971576,9211867356705110.0,9.15933369383124e+16,2.072414581985742e+16,5.607685005428919e+16,4008102294613.7695,29603184870314.26,885319299712806.0,4661543120582941.0
4.803380160110075,9383758170775860.0,9.354876563901408e+16,2.111085240242517e+16,5.7123226637190424e+16,4256842180021.6084,31440242833526.164,939941785188893.0,4955289558420271.0
4.9994477633122765,9554593897837880.0,9.550696707652069e+16,2.149518532959593e+16,5.816318036696082e+16,4514996842091.182,33346814065998.887,996579748466018.6,5259565922752025.0
5.199436718578522,9724440493939712.0,9.746880930549194e+16,2.1877292984285628e+16,5.919711275074748e+16,4782800743021.53,35324629013245.945,1055281617886091.1,5574574028876734.0
5.403425452950093,9893358500192900.0,9.943511972719963e+16,2.2257311567299004e+16,6.022539233237212e+16,5060494875878.338,37375466350154.49,1116097255112463.5,5900524110997130.0
5.611493962009095,1.006140350810003e+16,1.0140668955968142e+17,2.2635366144188652e+16,6.12483575250002e+16,5348326803307.896,39501153264354.58,1179077953635956.2,6237634948688927.0
5.823723841249277,1.0228626572349144e+16,1.033842777886032e+17,2.3011571573928244e+16,6.226631912401431e+16,5646550703373.738,41703565792438.086,1244276439401548.0,6586133962414135.0
6.040198318074262,1.0395074578677862e+16,1.0536861467295419e+17,2.3386033336504876e+16,6.327956254637781e+16,5955427422050.952,43984629205637.32,1311746873646506.5,6946257281119542.0
6.261002284435747,1.0560790573029802e+16,1.0736040486762686e+17,2.375884827343011e+16,6.428834983436707e+16,6275224531937.565,46346318441743.34,1381544858003551.5,7318249785822632.0
6.486222330124463,1.0725814057117748e+16,1.093603302150746e+17,2.4130105252675484e+16,6.5292921454807944e+16,6606216396752.854,48790658580108.51,1453727441878933.2,7702365133617553.0
6.715946776726952,1.0890181254607194e+16,1.113690522501492e+17,2.449988576751159e+16,6.629349791946354e+16,6948684241185.943,51319725356517.3,1528353132064501.0,8098865766904676.0
6.950265712261491,1.1053925351410946e+16,1.133872144555363e+17,2.48682644771051e+16,6.729028124782702e+16,7302916225646.051,53935645714607.98,1605481904494375.5,8508022912758586.0
7.18927102650672,1.121707671302721e+16,1.1541544429966923e+17,2.5235309695469296e+16,6.828345629016551e+16,7669207525464.506,56640598390513.305,1685175218020558.2,8930116577070735.0
7.433056447036854,1.1379663081412712e+16,1.1745435508439221e+17,2.5601083834374184e+16,6.927319192598514e+16,8047860414104.767,59436814527422.06,1767496030053886.5,9365435537624724.0
7.681717575977592,1.1541709753521308e+16,1.1950454762577862e+17,2.5965643805009436e+16,7.025964215088593e+16,8439184349938.755,62326578316779.27,1852508813892039.2,9814277339803166.0
7.935351927497144,1.1703239743352574e+16,1.215666117882767e+17,2.632904138254888e+16,7.124294706303281e+16,8843496066157.318,65312227662903.54,1940279577542939.5,1.027694829807039e+16
8.194058966047088,1.1864273929143254e+16,1.236411278896142e+17,2.6691323537290896e+16,7.222323375918518e+16,9261119663410.785,68396154868014.22,2030875883856615.8,1.0753763505606832e+16
8.45794014536803,1.2024831187166294e+16,1.2572866799158816e+17,2.7052532735669264e+16,7.320061714919928e+16,9692386704811.605,71580807334925.77,2124366871790362.2,1.1245046853723148e+16
8.72709894827539,1.2184928513442406e+16,1.2782979708989403e+17,2.741270721407075e+16,7.417520069694862e+16,10137636312955.064,74868688284845.97,2220823278639518.2,1.1751131062194916e+16
9.0016409272409,1.234458113453289e+16,1.2994507421448056e+17,2.7771881228088544e+16,7.514707709477682e+16,10597215268637.068,78262357487887.69,2320317463078551.5,1.2272357721247234e+16
9.281673745785717,1.250380260848664e+16,1.3207505345047898e+17,2.8130085279625e+16,7.611632887801274e+16,11071478110989.756,81764432004215.88,2422923428884938.5,1.280907734535454e+16
9.567307220701432,1.2662604916932218e+16,1.3422028488853158e+17,2.848734632407368e+16,7.708302898558203e+16,11560787238802.143,85377586934100.6,2528716849246938.5,1.3361649438523746e+16
9.85865336511546,1.2820998549204572e+16,1.3638131551228422e+17,2.88436879595813e+16,7.80472412721298e+16,12065513012812.057,89104556175290.8,2637775091567466.0,1.3930442570612982e+16
10.155826432417769,1.2978992579292514e+16,1.3855869002989928e+17,2.9199130600158228e+16,7.900902097643806e+16,12586033858761.654,92948133186165.73,2750177242681299.5,1.4515834464284204e+16
10.458942961066125,1.3136594736329076e+16,1.407529516556527e+17,2.9553691634262332e+16,7.996841515053674e+16,13122736371037.504,96911171753338.36,2866004134426747.0,1.511821209197353e+16
10.768121820287448,1.3293811469304554e+16,1.429646428469976e+17,2.990738557038586e+16,8.092546305364402e+16,13676015416762.186,100996586762731.77,2985338369542983.0,1.5737971781940672e+16
11.083484256693197,1.3450648006609812e+16,1.4519430600187946e+17,3.0260224171011012e+16,8.188019651463669e+16,14246274240215.21,105207354973227.62,3108264347867079.0,1.6375519332541412e+16
11.405153941827061,1.3607108410919498e+16,1.4744248412057165e+17,3.0612216576082348e+16,8.283264026615184e+16,14833924567436.111,109546515791799.28,3234868292786513.5,1.7031270134272184e+16
11.733257020663602,1.376319562986985e+16,1.497097214358417e+17,3.096336941701765e+16,8.378281225308702e+16,15439386710864.514,114017172049054.6,3365238277909552.5,1.7705649299197632e+16
12.067922161076874,1.3918911542980908e+16,1.5199656401486765e+17,3.1313686922270252e+16,8.473072391824006e+16,16063089673925.283,118622490774516.42,3499464253953349.0,1.8399091796974656e+16
12.409280604298411,1.407425700524582e+16,1.5430356033597018e+17,3.1663171015392588e+16,8.567638046765766e+16,16705471255497.686,123365703971199.44,3637638075862103.5,1.91120425965853e+16
12.75746621638438,1.4229231887719284e+16,1.566312618429204e+17,3.2011821406349396e+16,8.661978111771781e+16,17366978154160.996,128250109388689.2,3779853530127958.5,1.984495681346298e+16
13.112615540712067,1.438383511536347e+16,1.5898022347931514e+17,3.23596356766601e+16,8.75609193255159e+16,18048066072061.06,133279071293569.19,3926206362259062.5,2.0598299862150876e+16
13.474867851526309,1.4538064702424176e+16,1.613510042052701e+17,3.2706609358985852e+16,8.849978300421675e+16,18749199818292.73,138456021236418.06,4076794304382437.0,2.1372547614206144e+16
13.844365208556836,1.4691917785651214e+16,1.637441674984703e+17,3.3052736011865948e+16,8.943635472528298e+16,19470853411784.973,143784458815295.84,4231717103025719.5,2.21681865604175e+16
14.221252512727972,1.4845390655623196e+16,1.661602818414305e+17,3.33980072901899e+16,9.03706119091636e+16,20213510183657.66,149267952435499.03,4391076547091636.5,2.298571397674298e+16
14.605677562982532,1.499847878631908e+16,1.685999211966507e+17,3.374241301172545e+16,9.130252700531062e+16,20977662878899.223,154910140064460.3,4554976495950547.0,2.38256380944016e+16
14.997791114242183,1.5151176863049622e+16,1.710636654712062e+17,3.408594121995643e+16,9.223206766221027e+16,21763813757186.055,160714729980450.6,4723522907574756.0,2.4688478274677496e+16
15.397746936527026,1.5303478808959584e+16,1.735521009721761e+17,3.4428578243705404e+16,9.315919688871456e+16,22572474692816.496,166685501514894.97,4896823866753261.0,2.557476518783545e+16
15.805701875257567,1.5455377810366126e+16,1.760658208541974e+17,3.477030875413805e+16,9.408387320828789e+16,23404167273854.676,172826305789029.4,5074989613488075.0,2.648504099485424e+16
16.221815912762718,1.5606866341080402e+16,1.786054255603286e+17,3.5111115819480036e+16,9.500605080706317e+16,24259422900455.93,179141066444695.97,5258132571556315.0,2.7419859531803404e+16
16.64625223101797,1.5757936185706144e+16,1.8117152325730995e+17,3.5450980957432316e+16,9.592567967567128e+16,25138782882130.707,185633780367442.2,5446367377078229.0,2.837978649817241e+16
17.079177275638333,1.5908578461949352e+16,1.8376473026622157e+17,3.578988418536173e+16,9.684270574504986e+16,26042798533750.22,192308518400448.9,5639810907002492.0,2.9365399649923996e+16
17.5207608211511,1.6058783642166254e+16,1.863856714894683e+17,3.6127804068777864e+16,9.775707101761475e+16,26972031270415.1,199169426050207.3,5838582307649323.0,3.0377288995939492e+16
17.97117603757412,1.6208541574420934e+16,1.8903498083494822e+17,3.646471776870697e+16,9.866871369544787e+16,27927052701445.742,206220724185903.16,6042803023496246.0,3.1416056995988756e+16
18.430599558325603,1.6357841503103184e+16,1.9171330163820054e+17,3.6800601088076344e+16,9.957756830580619e+16,28908444723443.703,213466709732119.84,6252596826124392.0,3.2482318760634892e+16
18.899211549492115,1.6506672088954902e+16,1.9442128708327533e+17,3.713542851676821e+16,1.004835658230309e+17,29916799612017.59,220911756351785.8,6468089843022147.0,3.3576702255535404e+16
19.37719578048196,1.6655021428486314e+16,1.9715960062301117e+17,3.746917327530039e+16,1.0138663378674229e+17,30952720111951.457,228560315117689.34,6689410586146077.0,3.469984851110654e+16
19.864739696091597,1.6802877073079466e+16,1.9992891639936896e+17,3.780180735780457e+16,1.0228669641813024e+17,32016819526177.344,236416915175288.75,6916689980553790.0,3.5852411835099452e+16
20.36203449001343,1.6950226048111382e+16,2.0272991966442048e+17,3.81333015750473e+16,1.0318367473636485e+17,33109721804084.277,244486164400833.34,7150061393440115.0,3.703506002525187e+16
20.869275179813698,1.7097054872064272e+16,2.055633072025589e+17,3.846362559742305e+16,1.0407748667492757e+17,34232061629089.25,252772750054206.84,7389660663396148.0,3.824847458306454e+16
21.38666068340997,1.7243349575297986e+16,2.0842978775446086e+17,3.879274799718693e+16,1.0496804719588712e+17,35384484504786.39,261281439421310.66,7635626129341549.0,3.949335093282127e+16
21.91439389707817,1.7389095718388568e+16,2.1133008244329754e+17,3.912063628971108e+16,1.0585526840153262e+17,36567646839342.51,270017080443472.0,7888098658969653.0,4.077039864741279e+16
22.452681775019734,1.753427841043475e+16,2.1426492520366592e+17,3.94472569746695e+16,1.0673905964581288e+17,37782216028835.63,278984602339127.25,8147221677283358.0,4.208034167709748e+16
23.00173541052013,1.7678882327808132e+16,2.1723506321368426e+17,3.9772575578220344e+16,1.0761932764847485e+17,39028870540557.81,288189016225465.6,8413141195847714.0,4.342391857656724e+16
23.561770118730532,1.7822891733283002e+16,2.2024125733066973e+17,4.009655669604263e+16,1.0849597661151509e+17,40308299996289.3,297635415740049.06,8686005842506273.0,4.48018827315864e+16
24.133005521105144,1.796629049500129e+16,2.2328428253079677e+17,4.041916403600261e+16,1.0936890833462616e+17,41621205254426.586,307328977653922.5,8965966890601605.0,4.62150025916567e+16
24.715665631527248,1.8109062105000116e+16,2.2636492835311222e+17,4.0740360459834696e+16,1.1023802232798e+17,42968298490263.79,317274962470900.56,9253178287294984.0,4.766406191204118e+16
25.309978944157795,1.825118969778567e+16,2.2948399934826397e+17,4.106010802492821e+16,1.111032159252944e+17,44350303275443.54,327478715020680.94,9547796681869970.0,4.914986000008963e+16
25.91617852304095,1.8392656069689856e+16,2.3264231553228586e+17,4.137836802787397e+16,1.1196438440166325e+17,45767954658436.42,337945665059803.44,9849981455225466.0,5.067321195811513e+16
26.53450209350177,1.85334436990608e+16,2.358407128457582e+17,4.169510104988721e+16,1.1282142109646362e+17,47221999246524.46,348681327883947.4,1.0159894750452684e+16,5.22349489227633e+16
27.165192135371807,1.8673534766517412e+16,2.3908004361865517e+17,4.201026700237498e+16,1.1367421753665298e+17,48713195287672.31,359691304939310.56,1.0477701502970244e+16,5.3835918309912616e+16
27.808495978079243,1.8812911174633412e+16,2.423611770411737e+17,4.232382517121937e+16,1.1452266355659267e+17,50242312750688.74,370981284420940.0,1.080356946913614e+16,5.547698407242051e+16
28.464665897640828,1.895155456745398e+16,2.4568499964081987e+17,4.263573426068445e+16,1.1536664741685131e+17,51810133404608.79,382557041865024.75,1.1137669254318158e+16,5.715902696624244e+16
29.133959215593645,1.9089446350922724e+16,2.4905241576602595e+17,4.294595243937145e+16,1.1620605592855178e+17,53417450900316.75,394424440757906.7,1.1480174342568144e+16,5.888294481295382e+16
29.816638399905518,1.9226567714671904e+16,2.5246434807654963e+17,4.325443738924023e+16,1.1704077458601526e+17,55065070856205.516,406589433175288.8,1.1831261128567076e+16,6.06496527540236e+16
30.51297116790363,1.936289965435528e+16,2.5592173804090157e+17,4.356114635585233e+16,1.1787068770271043e+17,56753810946222.64,419058060439043.5,1.2191108949904356e+16,6.246008350669392e+16
31.223230591261704,1.9498422993345024e+16,2.5942554644103632e+17,4.386603619718253e+16,1.1869567854332877e+17,58484500987190.57,431836453768026.3,1.2559900117292524e+16,6.431518763513228e+16
31.947695203086937,1.963311840372434e+16,2.6297675388452598e+17,4.416906343084651e+16,1.1951562945157454e+17,60257983025076.65,444930834920412.2,1.293781994296877e+16,6.621593383746625e+16
32.686649107148675,1.9766966427840536e+16,2.6657636132443366e+17,4.447018428258903e+16,1.2033042198136445e+17,62075111424031.84,458347516856352.06,1.332505677036251e+16,6.8163309233996776e+16
33.44038208929165,1.9899947501593876e+16,2.702253905870887e+17,4.476935473867759e+16,1.2113993703859515e+17,63936752962451.71,472092904452990.25,1.3721802007515266e+16,7.015831964329135e+16
34.20918973107749,2.003204197910157e+16,2.7392488490795827e+17,4.506653060138892e+16,1.2194405503128262e+17,65843786935996.37,486173495271172.25,1.4128250162969306e+16,7.220198985100864e+16
34.993373525699035,2.0163230157130852e+16,2.7767590947580243e+17,4.53616675439771e+16,1.2274265601829494e+17,67797105263185.34,500595880340585.06,1.4544598880180126e+16,7.429536389061566e+16
35.793240996213015,2.029349229826577e+16,2.814795519852886e+17,4.565472116279192e+16,1.2353561985037573e+17,69797612590240.21,515366744938104.7,1.497104896841568e+16,7.64395053479111e+16
36.60910581613728,2.042280865361635e+16,2.8533692319823478e+17,4.594564702836821e+16,1.243228263083823e+17,71846226397702.44,530492869378430.3,1.5407804432851198e+16,7.863549767924045e+16
37.44128793246003,2.0551159486912924e+16,2.8924915751364224e+17,4.623440073963113e+16,1.251041552499552e+17,73943877115569.6,545981129867868.06,1.5855072508754e+16,8.08844445214055e+16
