t(s),Total solute volume 1,Total retention volume 1,Total 1 volume 1,Total 2 volume 1,Total 3 volume 1,Total 4 volume 1,Total 5 volume 1,Total 6 volume 1
0.1,1390364305082634.2,4522349373840332.0,1040967157064613.5,2091017911693084.5,0.0,0.0,0.0,-7.577716622845604e-138
0.202,1827715615243734.5,7238737284826540.0,1368412751272147.5,2748768951969867.5,216467857518.59003,1033657639763.0333,53681357462222.9,1238908483381287.0
0.30604000000000003,2034442604476881.2,9707074226086904.0,1523189522155226.5,3059673822002421.5,486721951606.7033,2324409023447.6313,121665906461592.97,2965291240015726.0
0.41216080000000005,2150503478132963.5,1.209805136625876e+16,1610084447943771.0,3234222291283315.0,779471210407.8282,3722650727719.2837,195511355653955.62,4903227671306628.0
0.5204040160000001,2223829798440758.8,1.4470662322962272e+16,1664983958040697.0,3344500594604035.0,1085542869333.4407,5184547122966.951,272795743282575.4,6958282138601909.0
0.6308120963200001,2273868720442542.5,1.6851576513862276e+16,1702448163611613.8,3419756080523512.5,1401462508949.516,6693496787768.33,352612614016792.4,9094795975971098.0
0.7434283382464002,2309873097144182.5,1.925494239621103e+16,1729404687542341.8,3473904473922105.5,1725679350006.1646,8242089917987.888,434557546558092.94,1.1297234821776312e+16
0.8582969050113283,2336812333946478.0,2.1689183294277024e+16,1749574129839741.2,3514419454215771.5,2057459424083.595,9826819231772.793,518437351648754.3,1.3558055745970408e+16
0.9754628431115548,2357594840279840.0,2.415980183945512e+16,1765134020231335.0,3545675089499699.0,2396466084756.84,11446075811844.84,604161694991423.0,1.5873393652556218e+16
1.094972099973786,2374029994835190.5,2.6670688215039028e+16,1777439042777985.0,3570392573582715.5,2742569400371.9795,13099238486748.898,691694046028368.0,1.824129074992766e+16
1.2168715419732616,2387297062621778.0,2.9224787727332304e+16,1787372114657954.8,3590345448331086.0,3095752489234.4854,14786226329152.602,781027496564799.8,2.0660863626338292e+16
1.3412089728127268,2398193958815538.0,3.1824466034974724e+16,1795530635963590.5,3606733729082845.0,3456063180993.3643,16507267692514.793,872172215849699.2,2.313187216438956e+16
1.4680331522689813,2407277664018228.0,3.447172051317111e+16,1802331618775970.2,3620395080482469.5,3823588027779.1455,18262776025885.336,965148665929899.2,2.565448111991089e+16
1.597393815314361,2414947419327845.5,3.716830840361253e+16,1808073975414906.8,3631929936702866.5,4198437819828.3257,20053280655982.617,1059983795810166.5,2.8229121557880896e+16
1.729341691620648,2421496021670122.0,3.9915827639352136e+16,1812976923315977.8,3641778646442814.0,4580739259806.0205,21879386996905.664,1156708838168995.8,3.0856407083497536e+16
1.863928525453061,2427142535822300.0,4.271576959020956e+16,1817204476562703.8,3650270669784724.0,4970630052480.863,23741753080357.33,1255357999517114.0,3.35370815253899e+16
2.001207095962122,2432053772056488.5,4.556955453214325e+16,1820881526224533.0,3657656879242274.0,5368255948478.13,25641075424319.3,1355967664467855.0,3.6271985358779304e+16
2.1412312378813647,2436358751804305.0,4.847855614781242e+16,1824104670817858.8,3664131315227190.0,5773768937205.195,27578080394048.887,1458575904220923.2,3.906203365641085e+16
2.284055862638992,2440158672796843.0,5.144411886837049e+16,1826949677218761.2,3669846173005876.0,6187326132159.731,29553518872549.344,1563222169559544.0,4.1908201330784744e+16
2.4297369798917723,2443533913334204.0,5.446757042809217e+16,1829476724768372.8,3674922336690083.5,6609089082426.784,31568162968369.785,1669947098242395.8,4.481151310300627e+16
2.578331719489608,2446549045160063.5,5.755023114783584e+16,1831734158418424.5,3679456918292644.0,7039223351539.539,33622804001650.406,1778792394721297.2,4.7773036603890184e+16
2.7298983538794,2449256480146296.5,6.069342093972395e+16,1833761219008671.5,3683528742117780.5,7477898266929.871,35718251305856.93,1889800756398889.0,5.079387759247948e+16
2.884496320956988,2451699162733682.0,6.389846469670386e+16,1835590059100686.0,3687202394027270.0,7925286779889.242,37855331558015.21,2003015830315803.2,5.387517663218853e+16
3.0421862473761276,2453912584891945.0,6.716669651949538e+16,1837247251581052.8,3690531251817411.0,8381565398115.755,40034888456144.87,2118482190027817.5,5.701810678732289e+16
3.2030299723236504,2455926312864157.5,7.049946309494841e+16,1838754932736879.2,3693559781349565.5,8846914166552.307,42257782627735.96,2236245326064419.2,6.022387204513912e+16
3.3670905717701234,2457765157238963.5,7.389812644727357e+16,1840131678290408.5,3696325296267633.0,9321516680748.824,44524891693877.55,2356351645645136.5,6.34937062614568e+16
3.5344323832055258,2459450079147332.0,7.736406622066384e+16,1841393181869705.2,3698859320862935.0,9805560122400.217,46837110439550.24,2478848478790357.5,6.682887248943151e+16
3.7051210308696363,2460998898951289.0,8.089868160833677e+16,1842552785604858.0,3701188655899103.5,10299235310202.469,49195351057286.51,2603784088910574.0,7.0230662592603464e+16
3.879223451487029,2462426855496417.5,8.450339301253362e+16,1843621898841065.0,3703336219694006.0,10802736761446.783,51600543442289.97,2731207686580028.5,7.370039707171832e+16
4.0568079205167695,2463747051160339.5,8.817964349834048e+16,1844610331347021.0,3705321717445735.5,11316262761274.773,54053635524293.44,2861169445614330.0,7.723942505448747e+16
4.237944078927105,2464970808803643.0,9.19289000886038e+16,1845526560564569.5,3707162178065305.0,11840015437518.67,56555593626223.71,2993720520849584.5,8.084912441125698e+16
4.422702960505647,2466107960166475.0,9.575265493585424e+16,1846377947531602.0,3708872387907675.5,12374200839724.535,59107402842963.18,3128913067209015.0,8.453090196935675e+16
4.61115701971576,2467167080481085.0,9.965242639879746e+16,1847170912536809.0,3710465243614984.0,12919029021412.752,61710067435683.5,3266800259772226.0,8.82861938059352e+16
4.803380160110075,2468155680564028.0,1.0362976004471387e+17,1847911078939355.0,3711952041011598.0,13474714124941.824,64364611238715.05,3407436314651182.0,9.211646560418398e+16
4.9994477633122765,2469080365049805.5,1.0768622959444336e+17,1848603391638634.8,3713342713078056.0,14041474468555.137,67072078076942.85,3550876510538966.0,9.60232130615924e+16
5.199436718578522,2469946963480051.5,1.1182343782309987e+17,1849252215220914.5,3714646027101325.5,14619532635338.04,69833532192422.17,3697177210840437.5,1.0000796234162928e+17
5.403425452950093,2470760639491312.5,1.1604301742695883e+17,1849861415708387.0,3715869748886693.0,15209115563914.486,72650058679397.23,3846395886324416.0,1.0407227056230485e+17
5.611493962009095,2471525982224845.5,1.2034663186488542e+17,1850434428997801.2,3717020780232608.5,15810454640783.424,75522763927246.25,3998591138258399.5,1.082177263166037e+17
5.823723841249277,2472247083222747.0,1.2473597618105968e+17,1850974318432714.5,3718105274577918.0,16423785794243.771,78452776071109.14,4153822722002004.5,1.1244595022095893e+17
6.040198318074262,2472927601411200.5,1.2921277781449774e+17,1851483823456519.8,3719128734732722.5,17049349589891.686,81441245450119.88,4312151571046097.0,1.1675859548881123e+17
6.261002284435747,2473570818255033.5,1.3377879739987949e+17,1851965400906761.2,3720096095827607.5,17687391327696.453,84489345073277.58,4473639821492305.5,1.2115734852699674e+17
6.486222330124463,2474179684763709.0,1.3843582956340973e+17,1852421260208574.0,3721011796007809.0,18338161140678.508,87598271093067.94,4638350836972958.0,1.2564392955322293e+17
6.715946776726952,2474756861710064.0,1.4318570371682304e+17,1852853393486518.5,3721879836919837.0,19001914095223.402,90769243287001.78,4806349234015549.0,1.302200932333089e+17
6.950265712261491,2475304754170802.5,1.480302848521405e+17,1853263601425083.0,3722703835658280.5,19678910293073.723,94003505547272.7,4977700907858475.0,1.3488762933718757e+17
7.18927102650672,2475825541296349.0,1.5297147433939024e+17,1853653515557426.2,3723487069537938.0,20369414975045.527,97302326378759.0,5152473058726781.0,1.3964836341291792e+17
7.433056447036854,2476321202056551.0,1.580112107291808e+17,1854024617541217.0,3724232514813805.0,21073698626519.305,100666999405614.69,5330734218578235.0,1.4450415747815882e+17
7.681717575977592,2476793537578823.5,1.6315147056175664e+17,1854378255883238.5,3724942880276337.5,21792037084758.0,104098843886701.4,5512554278330664.0,1.494569107287162e+17
7.935351927497144,2477244190590192.5,1.6839426918394768e+17,1854715660495670.0,3725620636491108.5,22524711648105.06,107599205240119.9,5698004515582727.0,1.5450856026389974e+17
8.194058966047088,2477674662389313.0,1.737416615752596e+17,1855037955403060.8,3726268041323734.5,23272009187117.05,111169455577106.64,5887157622840248.0,1.596610818285391e+17
8.45794014536803,2478086327704694.5,1.7919574318420054e+17,1855346169866708.8,3726887162285765.0,24034222257685.387,114810994245558.17,6080087736261139.0,1.6491649057157894e+17
8.72709894827539,2478480447738163.5,1.8475865077582976e+17,1855641248150315.8,3727479896151295.0,24811649216202.1,118525248383453.39,6276870464931702.0,1.7027684182125853e+17
9.0016409272409,2478858181645474.5,1.9043256329141482e+17,1855924058115539.8,3728047986223073.5,25604594336824.375,122313673482437.72,6477582920687708.0,1.757442318769237e+17
9.281673745785717,2479220596666906.5,1.962197027210061e+17,1856195398806787.2,3728593037568395.0,26413367930892.88,126177753961839.2,6682303748493567.0,1.8132079881757776e+17
9.567307220701432,2479568677088492.5,2.021223349896689e+17,1856456007160499.2,3729116530496202.5,27238286468558.97,130119003753384.33,6891113157393204.0,1.8700872332730858e+17
9.85865336511546,2479903332187438.0,2.0814277085806557e+17,1856706563953891.5,3729619832506567.0,28079672702675.38,134138966896880.14,7104092952046160.0,1.928102295377721e+17
10.155826432417769,2480225403292847.5,2.1428336683803174e+17,1856947699091335.5,3730104208909563.0,28937855795005.89,138239218147134.33,7321326564862815.0,1.987275858879331e+17
10.458942961066125,2480535670073951.5,2.2054652612374976e+17,1857179996312372.8,3730570832282449.5,29813171444808.805,142421363592380.6,7542899088752563.0,2.047631060012912e+17
10.768121820287448,2480834856152196.5,2.2693469953910746e+17,1857403997393473.5,3731020790909863.5,30705962019849.473,146687041284482.9,7768897310498873.0,2.109191495808485e+17
11.083484256693197,2481123634120014.5,2.3345038650178432e+17,1857620205905614.0,3731455096331791.5,31616576689897.926,151037921881187.7,7999409744775523.0,2.1719812332208016e+17
11.405153941827061,2481402630037899.0,2.4009613600460822e+17,1857829090581241.2,3731874690106901.0,32545371562767.164,155475709300701.66,8234526668818088.0,2.2360248184420074e+17
11.733257020663602,2481672427471631.5,2.4687454761469517e+17,1858031088336939.8,3732280449884282.0,33492709822947.99,160002141388868.53,8474340157765217.0,2.3013472864002534e+17
12.067922161076874,2481933571123376.5,2.5378827249087978e+17,1858226606992050.5,3732673194864409.0,34458961872897.98,164618990599226.0,8718944120684257.0,2.367974170447434e+17
12.409280604298411,2482186570103295.5,2.6084001441992864e+17,1858416027718131.2,3733053690719456.0,35444505477040.82,169328064686219.8,8968434337295814.0,2.435931512239286e+17
12.75746621638438,2482431900882400.0,2.6803253087203005e+17,1858599707249753.0,3733422654034222.5,36449725908534.305,174131207411866.28,9222908495412428.0,2.5052458718113088e+17
13.112615540712067,2482670009962142.5,2.7536863407603597e+17,1858777979883233.2,3733780756321007.5,37475016098865.2,179030299266141.34,9482466229106204.0,2.5759443378539834e+17
13.474867851526309,2482901316291816.5,2.8285119211493898e+17,1858951159286551.5,3734128627655298.0,38520776790329.46,184027258201395.62,9747209157620892.0,2.6480545381909277e+17
13.844365208556836,2483126213461134.0,2.904831300420609e+17,1859119540140922.0,3734466859973210.0,39587416691458.49,189124040381084.94,1.001724092504373e+16,2.7216046504636957e+17
14.221252512727972,2483345071691833.0,2.9826743101842726e+17,1859283399631931.0,3734796010066804.0,40675352635450.48,194322640943116.2,1.0292667240753168e+16,2.796623413027046e+17
14.605677562982532,2483558239649532.5,3.06207137471803e+17,1859442998806056.2,3735116602308976.5,41785009741669.54,199625094778111.8,1.0573595920657932e+16,2.8731401360586067e+17
14.997791114242183,2483766046094393.5,3.143053522778745e+17,1859598583806534.5,3735429131135972.5,42916821580273.2,205033477322899.7,1.086013692924414e+16,2.951184712886902e+17
15.397746936527026,2483968801387103.0,3.2256523996404634e+17,1859750387000886.5,3735734063312288.0,44071230340032.52,210549905369540.0,1.1152402422446616e+16,3.030787631541899e+17
15.805701875257567,2484166798864714.5,3.309900279363464e+17,1859898628011014.2,3736031839999871.0,45248686999407.27,216176537890204.78,1.1450506791361248e+16,3.111979986532197e+17
16.221815912762718,2484360316099342.5,3.3958300772992045e+17,1860043514655577.2,3736322878651092.0,46449651500942.61,221915576878235.38,1.175456670681552e+16,3.1947934908531974e+17
16.64625223101797,2484549616051133.5,3.4834753628361126e+17,1860185243813246.5,3736607574742787.5,47674592929051.11,227769268205698.5,1.2064701164814292e+16,3.27926048823055e+17
17.079177275638333,2484734948125834.0,3.5728703723911674e+17,1860324002214479.5,3736886303366743.5,48923989691248.914,233739902497779.75,1.23810315328785e+16,3.36541396560342e+17
17.5207608211511,2484916549145989.5,3.664050022652288e+17,1860459967168682.0,3737159420690347.5,50198329702911.766,239829816024346.8,1.2703681597294802e+16,3.453287565852016e+17
17.97117603757412,2485094644244002.5,3.757049924076655e+17,1860593307232823.8,3737427265299684.0,51498110575622.04,246041391609028.47,1.3032777611294128e+16,3.542915600774105e+17
18.430599558325603,2485269447684279.0,3.851906394650063e+17,1860724182826991.5,3737690159435989.5,52823839809174.35,252377059556159.03,1.3368448344177782e+16,3.6343330643151597e+17
18.899211549492115,2485441163621005.0,3.94865647391252e+17,1860852746801738.5,3737948410135324.5,54176034987313.484,258839298595941.6,1.3710825131409874e+16,3.7275756460570086e+17
19.37719578048196,2485609986797444.0,4.0473379372554624e+17,1860979144961637.8,3738202310280242.5,55555223977274.89,265430636848193.78,1.4060041925695308e+16,3.822679744969863e+17
19.864739696091597,2485776103191931.0,4.1479893104958246e+17,1861103516548949.8,3738452139571373.5,56961945133202.01,272153652805041.28,1.4416235349062708e+16,3.91968248343269e+17
20.36203449001343,2485939690615390.0,4.2506498847325094e+17,1861225994690987.8,3738698165426009.0,58396747503515.86,279010976332937.06,1.477954474597232e+16,4.0186217215271e+17
20.869275179813698,2486100919264555.5,4.355359731490754e+17,1861346706814302.8,3738940643810156.5,59860191042311.71,286005289694384.4,1.5150112237468882e+16,4.119536071609809e+17
21.38666068340997,2486259952234798.5,4.462159718159961e+17,1861465775028646.2,3739179820009762.0,61352846824860.66,293139328589752.2,1.5528082776400222e+16,4.222464913169081e+17
21.91439389707817,2486416945995979.0,4.5710915237307686e+17,1861583316483229.8,3739415929346376.5,62875297267295.17,300415883219579.44,1.5913604203722402e+16,4.3274484079704134e+17
22.452681775019734,2486572050834466.0,4.682197654837071e+17,1861699443697695.8,3739649197841967.0,64428136350557.47,307837799367767.25,1.6306827305912826e+16,4.434527515497019e+17
23.00173541052013,2486725411264250.5,4.7955214621089363e+17,1861814264869877.0,3739879842837131.5,66011969848693.06,315407979506073.1,1.6707905873513002e+16,4.543744008690547e+17
23.561770118730532,2486877166409561.5,4.911107156842347e+17,1861927884162295.0,3740108073566608.5,67627415561571.11,323129383920316.1,1.7116996760822942e+16,4.655140489997916e+17
24.133005521105144,2487027450361494.5,5.028999827991853e+17,1862040401969155.0,3740334091695574.0,69275103552116.46,331005031858726.56,1.7534259946770046e+16,4.768760407729783e+17
24.715665631527248,2487176392510643.0,5.1492454594923264e+17,1862151915165383.8,3740558091819916.0,70955676388138.66,339038002702865.7,1.7959858596974976e+16,4.884648072736709e+17
25.309978944157795,2487324117857746.5,5.271890947916059e+17,1862262517339223.2,3740780261933436.0,72669789388844.1,347231437161557.75,1.839395912703819e+16,5.0028486754088685e+17
25.91617852304095,2487470747304061.5,5.396984120471599e+17,1862372299009620.2,3741000783864544.0,74418110876120.84,355588538488280.5,1.8836731267070744e+16,5.1234083030054675e+17
26.53450209350177,2487616397923082.0,5.524573753350831e+17,1862481347829674.2,3741219833684913.5,76201322430685.22,364112573722475.6,1.928834812749374e+16,5.246373957319982e+17
27.165192135371807,2487761183215054.0,5.654709590430798e+17,1862589748777185.5,3741437582092244.5,78020119153182.52,372806874955234.44,1.9748986266130812e+16,5.371793572687561e+17
27.808495978079243,2487905213345656.0,5.787442362337132e+17,1862697584333355.8,3741654194769247.0,79875209930332.58,381674840619841.7,2.021882575661907e+16,5.4997160343409536e+17
28.464665897640828,2488048595369993.0,5.922823805875698e+17,1862804934650504.5,3741869832720508.5,81767317706218.33,390719936807652.75,2.0698050258163904e+16,5.630191197121508e+17
29.133959215593645,2488191433443124.0,6.060906683839562e+17,1862911877709671.0,3742084652589091.5,83697179758809.67,399945698609796.5,2.1186847086663612e+16,5.7632699045518234e+17
29.816638399905518,2488333829018032.0,6.201744805198204e+17,1863018489468852.2,3742298806954307.5,85665547981823.44,409355731485201.9,2.1685407287230556e+16,5.899004008276817e+17
30.51297116790363,2488475881032072.5,6.345393045676151e+17,1863124844002588.8,3742512444612093.5,87673189172017.17,418953712655463.1,2.219392570813587e+16,6.037446387880049e+17
31.223230591261704,2488617686082707.0,6.491907368728388e+17,1863231013633537.5,3742725710839312.5,89720885322017.8,428743392527049.56,2.2712601076204948e+16,6.178650971082292e+17
31.947695203086937,2488759338593312.5,6.641344846919816e+17,1863337069056616.0,3742938747643137.0,91809433918788.88,438728596141400.94,2.32416360736921e+16,6.322672754329349e+17
32.686649107148675,2488900930969843.5,6.793763683716358e+17,1863443079456293.2,3743151693996633.0,93939648247840.12,448913224653432.56,2.3781237416662344e+16,6.469567823776502e+17
33.44038208929165,2489042553748947.5,6.9492232356954e+17,1863549112617486.0,3743364686061542.5,96112357703285.53,459301256839009.0,2.4331615934910292e+16,6.61939337667659e+17
34.20918973107749,2489184295738200.0,7.10778403518314e+17,1863655235030553.2,3743577857399187.5,98328408103857.89,469896750631930.7,2.489298665344466e+16,6.77220774317965e+17
34.993373525699035,2489326244149033.0,7.269507813327002e+17,1863761511990811.0,3743791339170349.0,100588662014989.8,480703844691011.4,2.546556887556904e+16,6.928070408551154e+17
35.793240996213015,2489468484722828.0,7.434457523610964e+17,1863868007692954.2,3744005260324958.5,102893999077072.98,491726759997816.4,2.60495862675899e+16,7.087042035816915e+17
36.60910581613728,2489611101850718.0,7.602697365821992e+17,1863974785320743.8,3744219747782226.5,105245316340007.1,502969801485650.56,2.664526694518224e+16,7.249184488842373e+17
37.44128793246003,2489754178687527.0,7.774292810475894e+17,1864081907132306.5,3744434926602038.0,107643528604156.55,514437359700397.6,2.7252843561445412e+16,7.414560855854175e+17
38.29011369110923,2489897797260242.0,7.949310623711017e+17,1864189434541363.2,3744650920148062.5,110089568767829.33,526133912493812.8,2.7872553396680956e+16,7.583235473412093e+17
39.15591596493141,2490042038571431.0,8.127818892658333e+17,1864297428194644.5,3744867850243288.5,112584388181398.77,538064026749897.6,2.850463844992589e+16,7.755273950839666e+17
40.03903428423004,2490186982697952.0,8.309887051296602e+17,1864405948045804.2,3745085837318500.5,115128957008187.52,550232360144979.5,2.914934553227441e+16,7.930743195121708e+17
40.93981496991464,2490332708885279.5,8.495585906801477e+17,1864515053426037.2,3745305000554116.0,117724264592238.08,562643662942144.9,2.9806926362022668e+16,8.109711436277252e+17
