t(s),Total solute volume 1,Total retention volume 1,Total 1 volume 1,Total 2 volume 1,Total 3 volume 1,Total 4 volume 1,Total 5 volume 1,Total 6 volume 1
0.1,839524706393360.9,941664656952722.2,50673114377222.37,51466836182138.266,0.0,0.0,0.0,0.0
0.202,1265005329106180.5,1418911195703469.8,76354822338695.0,77550811550493.11,589722.1401529444,987445.3507603591,11652342.890818877,219478590.29496545
0.30604000000000003,1589022309832628.5,1782349742714923.0,95912256954052.34,97414585465276.95,1496323.830217488,2505481.82076108,29565955.192609955,556895206.1808221
0.41216080000000005,1863088230280901.5,2089760083247721.5,112454681076560.66,114216123041037.94,2657937.5597038516,4450516.840820292,52518377.1852333,989222391.080379
0.5204040160000001,2106478240968049.5,2362762449306926.5,127145529092404.67,129137082211350.94,4047114.8449546485,6776589.97562714,79967249.89045765,1506244167.7888696
0.6308120963200001,2328794173599661.0,2612126864240712.0,140564360738170.42,142766100690539.97,5649136.829222419,9459055.601039432,111621741.43999845,2102482409.2690518
0.7434283382464002,2535616287960211.0,2844112501354955.0,153047996527661.8,155445274805440.44,7455592.207903821,12483829.617418714,147315651.80084246,2774806567.701207
0.8582969050113283,2730519220304074.5,3062728899650868.5,164812198964050.47,167393746670978.16,9461739.049612802,15842972.0159661,186955284.55197868,3521451774.9639635
0.9754628431115548,2915952457080807.0,3270723559011084.0,176004817308109.84,178761681395573.34,11665205.091813747,19532510.620938145,230493765.83895552,4341535111.692699
1.094972099973786,3093679759181743.0,3470074826282771.0,186732310913383.12,189657205866565.9,14065268.04063537,23551236.005540576,277916823.7237411,5234787746.513263
1.2168715419732616,3265020385272086.5,3662262466639548.0,197074309295033.88,200161196881784.84,16662423.159564396,27899977.451568935,329234244.1164696,6201393999.944395
1.3412089728127268,3430991357926025.5,3848427238277736.5,207092199212631.06,210336002736733.44,19458107.428548776,32581141.07448543,384474420.4025724,7241888681.294642
1.4680331522689813,3592396207540249.5,4029470433198483.0,216834481189680.6,220230883646363.3,22454515.41079209,37598401.50615979,443680715.1336644,8357088557.615595
1.597393815314361,3749882884545556.5,4206118835201622.0,226340265053550.38,229885562037636.0,25654471.959352594,42956488.75160772,506908944.8229577,9548044977.439419
1.729341691620648,3903982980777960.0,4378968713050845.5,235641637309545.6,239332627005142.0,29061341.799505204,48661036.791431636,574225593.3732007,10816010219.016819
1.863928525453061,4055139131352723.5,4548516556143928.0,244765315098547.44,248599214175618.38,32678963.957473148,54718473.78764742,645706516.4468423,12162413085.921597
2.001207095962122,4203724671831346.0,4715181123230739.0,253733832689638.62,257708210785291.12,36511603.47469294,61135941.23284194,721435987.3830109,13588840936.011974
2.1412312378813647,4350058064320616.5,4879319623635244.0,262566412229185.28,266679140067995.7,40563915.48372801,67921233.79798315,801505987.3696415,15097026311.166866
2.284055862638992,4494413696418480.0,5041239830044868.0,271279615559452.25,275528823288088.22,44840918.3516778,75082754.46058401,886015696.0970222,16688839484.347683
2.4297369798917723,4637030106954027.0,5201209304975081.0,279887840710638.4,284271883991135.44,49347973.54846575,82629480.40644628,975071008.8891188,18366270818.041817
2.578331719489608,4778116348859103.0,5359462537834491.0,288403705971128.06,292921138117741.75,54090770.798785195,90570938.75043438,1068784370.7056401,20131440432.797256
2.7298983538794,4917856979323646.0,5516206542153153.0,296838351081697.44,301487899896809.44,59075317.14613619,98917187.83717838,1167274475.271838,21986584023.934467
2.884496320956988,5056416021849006.0,5671625299683657.0,305201676384280.4,309982224744985.2,64307929.24811751,107678804.43695305,1270666134.0079894,23934052518.773018
3.0421862473761276,5193940147280596.0,5825883328448865.0,313502534826832.8,318413104279008.56,69795228.21064234,116866875.09596056,1379090173.958051,25976310154.050453
3.2030299723236504,5330561253703171.0,5979128576516468.0,321748887683981.1,326788624475497.3,75544136.4995663,126492990.96508612,1492683376.766186,28115933326.477737
3.3670905717701234,5466398578154473.0,6131494790631676.0,329947932018555.5,335116095128990.06,81561876.5695803,136569245.50408527,1611588451.5848217,30355610082.42838
3.5344323832055258,5601560439749231.0,6283103471416611.0,338106205895314.56,343402156713690.1,87855970.93282549,147108234.5964779,1735954036.430396,32698140143.464455
3.7051210308696363,5736145689736029.0,6434065499847584.0,346229675905344.44,351652869278810.06,94434243.45132591,158123058.71363226,1865934723.7205923,35146435387.34422
3.879223451487029,5870244926405235.0,6584482499974447.0,354323810497046.2,359873786928185.25,101304821.6839098,169627326.8445112,2001691106.6473892,37703520721.49008
4.0568079205167695,6003941519729583.0,6734447988224290.0,362393641822702.44,368070020635573.0,108476140.15389623,181635161.9671762,2143389843.7435653,40372535299.1475
4.237944078927105,6137312480850088.0,6884048348674322.0,370443818220036.06,376246291548267.75,115956944.4313329,194161207.88419098,2291203739.5440435,43156734038.70409
4.422702960505647,6270429204124711.0,7033363665382824.0,378478649001738.9,384406976478188.75,123756295.94504596,207220637.2800379,2445311839.6675963,46059489414.629
4.61115701971576,6403358103799123.0,7182468436522156.0,386502142884463.4,392556146932808.44,131883577.456675,220829160.8869922,2605899538.9788904,49084293494.7929
4.803380160110075,6536161162992454.0,7331432190158688.0,394518041125215.0,400697602770578.25,140348499.14233327,235003037.66840228,2773158701.756582,52234760203.930756
4.9994477633122765,6668896409290974.0,7480320017711671.0,402529846227847.25,408834901357075.2,149161105.23830438,249759085.9464216,2947287793.006257,55514627797.02958
5.199436718578522,6801618328574045.0,7629193038129844.0,410540846921303.9,416971382934479.94,158331781.2159173,265114695.41580382,3128492020.2295876,58927761529.666214
5.403425452950093,6934378226586168.0,7778108803456793.0,418554139983850.06,425110192787666.8,167871261.45785254,281087839.9973027,3316983485.1011086,62478156514.96492
5.611493962009095,7067224546088380.0,7927121654571392.0,426572649386100.1,433254300687075.06,177790637.41395703,297697091.49398303,3512981344.619873,66169940759.02202
5.823723841249277,7200203146073984.0,8076283034377586.0,434599143144290.4,441406518005958.75,188101366.21949112,314961634.0218376,3716711981.3982058,70007378368.43579
6.040198318074262,7333357548446896.0,8225641764498100.0,442636248209599.25,449569512842935.94,198815279.76275393,332901279.19284606,3928409182.829833,73994872925.08627
6.261002284435747,7466729156677811.0,8375244290536961.0,450686463666081.5,457745823426645.06,209944594.19241452,351536482.0342999,4148314328.9461956,78136971024.5652
6.486222330124463,7600357450232953.0,8525134900167189.0,458752172466254.7,465937870035148.1,221501919.85774943,370888357.632989,4376676588.826556,82438365975.72498
6.715946776726952,7734280157979542.0,8675355917637526.0,466835651897721.94,474147965626506.1,233500271.67742494,390978698.49696386,4613753125.4759245,86903901659.72249
6.950265712261491,7868533413284025.0,8825947877744778.0,474939082944790.2,482378325347032.94,245953079.93457612,411829992.631087,4859809309.125967,91538576547.72174
7.18927102650672,8003151893115277.0,8976949681865379.0,483064558684653.56,490631075058983.3,258874201.4977375,433465442.32565427,5115118938.950613,96347547877.09108
7.433056447036854,8138168943128983.0,9128398738262536.0,491214091837379.4,498908259008810.5,272277931.4687952,455908983.6600207,5379964473.219093,101336135986.52574
7.681717575977592,8273616690427511.0,9280331088569824.0,499389621572027.75,507211846739889.44,286179015.26050574,479185306.7255169,5654637267.936886,106509828811.05193
7.935351927497144,8409526145454349.0,9432781522087300.0,507593019656921.8,515543739339122.0,300592661.10741013,503319876.57404137,5939437824.050011,111874286538.32483
8.194058966047088,8545927294282405.0,9585783679303120.0,515826096030103.25,523905775094641.1,315534553.0150342,528338954.90053767,6234676043.309847,117435346428.05365
8.45794014536803,8682849182387508.0,9739370145864680.0,524090603855846.75,532299734631536.5,331020864.1533392,554269622.4693329,6540671492.915407,123199027796.76384
8.72709894827539,8820319990855635.0,9893572538062720.0,532388244124464.9,540727345583703.8,347068270.7012423,581139802.2957742,6857753679.068902,129171537170.43938
9.0016409272409,8958367105850030.0,1.0048421580756024e+16,540720669845302.9,549190286852520.8,363693966.14993083,608978283.5960363,7186262329.59616,135359273607.91821
9.281673745785717,9097017182060752.0,1.0203947178546148e+16,549089489876503.1,557690192496592.75,380915676.07342255,637814746.519373,7526547685.799824,141768834198.18735
9.567307220701432,9236296200769688.0,1.036017848091289e+16,557496272429772.0,566228655291422.0,398751673.37560725,667679787.6781181,7878970803.727082,148407019735.01456
9.85865336511546,9376229523087158.0,1.0517143941934096e+16,565942548283693.2,574807229993055.4,417220794.02365255,698604946.4921418,8243903865.047828,155280840572.59506
10.155826432417769,9516841938849990.0,1.06748713751393e+16,574429813735198.2,583427436335776.0,436342453.2783534,730622732.3653476,8621730497.751575,162397522666.14838
10.458942961066125,9658157711613782.0,1.083338800398258e+16,582959533315253.6,592090761790334.5,456136662.43259114,763766652.7129883,9012846106.88466,169764513801.62314
10.768121820287448,9800200620122048.0,1.099272050836369e+16,591533142291910.4,600798664106212.9,476624046.06970245,798071241.8595314,9417658215.559946,177389490018.90585
11.083484256693197,9942993996591748.0,1.1152895067578634e+16,600152048981200.0,609552573658694.9,497825859.85413194,833572090.8277899,9836586816.484259,185280362233.1269
11.405153941827061,1.0086560762117028e+16,1.1313937400038072e+16,608817636884070.4,618353895619295.2,519764008.86731434,870305878.0409962,10270064734.259045,193445283058.8968
11.733257020663602,1.0230923459460104e+16,1.1475872800055038e+16,617531266665618.5,627204011965990.0,542461066.502288,908310400.9604452,10718537998.72093,201892653842.48404
12.067922161076874,1.0376104283468812e+16,1.1638726171970876e+16,626294277991083.5,636104283347958.1,565940293.9311057,947624608.6822162,11182466229.60025,210631131907.1771
12.409280604298411,1.0522125109335764e+16,1.1802522061860642e+16,635107991231541.1,645056050818002.1,590225660.1596206,988288635.517453,11662323032.785849,219669638017.25757
12.75746621638438,1.0669007518891058e+16,1.196728468703254e+16,643973709050913.9,654060637444414.6,615341862.6848245,1030343835.5815301,12158596408.49537,229017364066.2243
13.112615540712067,1.0816772825101024e+16,1.213303796351592e+16,652892717884694.2,663119349812864.6,641314348.7703803,1073832818.4183786,12671789171.660759,238683780995.0995
13.474867851526309,1.0965442094928006e+16,1.2299805531710748e+16,661866289319755.2,672233479427813.4,668169337.356602,1118799485.6871147,13202419384.849882,248678646946.85297
13.844365208556836,1.1115036170690988e+16,1.2467610780356046e+16,670895681383647.9,681404304022023.5,695933841.621613,1165289068.939042,13751020804.054655,259012015663.18777
14.221252512727972,1.1265575690052638e+16,1.263647686895785e+16,679982139751027.2,690633088781855.2,724635692.211,1213348168.51399,14318143337.688086,269694245130.11627
14.605677562982532,1.1417081104747068e+16,1.2806426748804814e+16,689126898874020.2,699921087495369.2,754303561.1538047,1263024793.5858781,14904353519.142847,280736006478.96906
14.997791114242183,1.15695726981506e+16,1.2977483182686446e+16,698331183042800.6,709269543629496.9,784966986.4832344,1314368403.3882716,15510234993.274231,292148293149.6837
15.397746936527026,1.1723070601789062e+16,1.3149668763418758e+16,707596207381961.0,718679691342019.0,816656397.5810534,1367429949.6517198,16136389017.18236,303942430323.42584
15.805701875257567,1.1877594810866254e+16,1.3323005931272226e+16,716923178787779.4,728152756433520.9,849403141.265144,1422261920.2854276,16783434975.678793,316130084631.7847
16.221815912762718,1.2033165198889652e+16,1.349751699038771e+16,726313296811044.1,737689957244042.9,883239508.6403145,1478918384.336958,17452010911.833935,328723274150.02313
16.64625223101797,1.218980153146384e+16,1.3673224124258672e+16,735767754489597.1,747292505498654.6,918198762.7329513,1537455038.2644303,18142774073.01272,341734378682.04846
17.079177275638333,1.2347523479314302e+16,1.3850149410350856e+16,745287739134434.9,756961607105887.8,954315166.9307479,1597929253.5567548,18856401472.817307,355176150344.99774
17.5207608211511,1.2506350630598976e+16,1.4028314833923388e+16,754874433072855.4,766698462912503.8,991624014.2492455,1660400125.7382715,19593590469.366943,369061724461.5107
17.97117603757412,1.2666302502560452e+16,1.420774230111025e+16,764529014351738.2,776504269417804.9,1030161657.4475241,1724928524.795284,20355059360.356186,383404630768.03046
18.430599558325603,1.2827398552564982e+16,1.4388453651314904e+16,774252657403882.9,786380219450398.6,1069965540.0159305,1791577147.0627065,21141547995.343105,398218804947.61346
18.899211549492115,1.2989658188571734e+16,1.4570470668965332e+16,784046533679902.9,796327502809999.6,1111074228.059279,1860410568.6101542,21953818405.73172,413518600495.9991
19.37719578048196,1.3153100779069934e+16,1.4753815094673732e+16,793911812248036.1,806347306876627.4,1153527443.09955,1931495300.167614,22792655452.92151,429318800929.8297
19.864739696091597,1.3317745662518478e+16,1.4938508635837424e+16,803849660363911.8,816440817189298.9,1197366095.8225148,2004899843.6317098,23658867495.10873,445634632346.1641
20.36203449001343,1.3483612156317516e+16,1.5124572976716102e+16,813861244012072.8,826609217996036.9,1242632320.7933605,2080694750.1944444,24553287073.233368,462481776342.55743
20.869275179813698,1.3650719565338644e+16,1.5312029788013402e+16,823947728420840.9,836853692776794.8,1289369512.1667128,2158952680.1369953,25476771616.5738,479876383307.1856
21.38666068340997,1.3819087190034932e+16,1.5500900735988508e+16,834110278551838.1,847175424740649.6,1337622360.416922,2239748464.331871,26430204168.501076,497835086088.6151
21.91439389707817,1.3988734334149048e+16,1.56912074911169e+16,844350059565245.9,857575597298345.4,1387436890.114798,2323159167.497277,27414494132.9088,516375014054.97565
22.452681775019734,1.4159680312032746e+16,1.5882971736315622e+16,854668237261603.1,868055394511014.5,1438860498.777232,2409264153.2479086,28430578041.84193,535513807552.33594
23.00173541052013,1.4331944455586468e+16,1.6076215174743014e+16,865065978500671.9,878616001515604.9,1491941996.8163009,2498145150.98682,29479420344.84992,555269632772.2109
23.561770118730532,1.4505546120823342e+16,1.6270959537177484e+16,875544451597640.5,889258604927276.1,1546731648.614514,2589886324.6828446,30562014220.589336,575661197038.0619
24.133005521105144,1.4680504694055642e+16,1.6467226588973336e+16,886104826696530.8,899984393218677.8,1603281214.7526362,2684574343.578,31679382411.2015,596707764520.6812
24.715665631527248,1.4856839597697196e+16,1.666503813658618e+16,896748276120428.0,910794557075647.5,1661643995.4164062,2782298454.8687997,32832578079.98101,618429172392.1814
25.309978944157795,1.503457029566825e+16,1.6864416033653104e+16,907475974697715.6,921690289728559.5,1721874875.0078151,2883150558.404523,34022685692.844894,640845847428.1769
25.91617852304095,1.521371629838273e+16,1.7065382186604536e+16,918289100063090.5,932672787258062.0,1784030367.9858804,2987225283.444265,35250821924.095474,663978823067.4111
26.53450209350177,1.5394297167290366e+16,1.7267958559777932e+16,929188832931754.9,943743248873548.6,1848168665.961022,3094620067.512893,36518136586.949394,687849756937.7661
27.165192135371807,1.557633251893916e+16,1.747216717999329e+16,940176357344584.0,954902877162182.5,1914349686.0655198,3205435237.3938203,37825813589.282166,712480948857.0593
27.808495978079243,1.5759842028513494e+16,1.7678030140541456e+16,951252860881711.0,966152878305814.9,1982635120.6210847,3319774092.2936945,39175071914.99926,737895359316.4028
28.464665897640828,1.5944845432795664e+16,1.7885569604526054e+16,962419534841271.0,977494462262534.0,2053088488.122393,3437742989.210483,40567166631.40869,764116628453.1295
29.133959215593645,1.6131362532488342e+16,1.8094807807489028e+16,973677574379582.0,988928842909043.1,2125775185.5529346,3559451430.532505,42003389922.91662,791169095519.3961
29.816638399905518,1.6319413193824924e+16,1.830576705923834e+16,985028178608355.2,1000457238139386.9,2200762542.046442,3685012153.890519,43485072151.30986,819077818851.3412
30.51297116790363,1.6509017349385178e+16,1.8518469744784428e+16,996472550643916.6,1012080869914947.4,2278119873.903855,3814541224.2794394,45013582942.81866,847868596342.5245
31.223230591261704,1.670019499802167e+16,1.8732938324279788e+16,1008011897602771.2,1023800964259937.2,2357918540.971367,3948158128.459302,46590332302.073395,877567986423.6896
31.947695203086937,1.6892966203792282e+16,1.894919533184459e+16,1019647430537164.4,1035618751195957.8,2440232004.380741,4085985871.637005,48216771752.97488,908203329549.2875
32.686649107148675,1.7087351093782058e+16,1.9167263373146812e+16,1031380364303615.1,1047535464608461.1,2525135885.6475186,4228151076.42191,49894395506.39444,939802770189.104
33.44038208929165,1.7283369854687262e+16,1.9387165121594444e+16,1043211917356735.9,1059552342037348.9,2612708027.116883,4374784084.037892,51624741654.49935,972395279321.2124
34.20918973107749,1.7481042728023792e+16,1.9608923312985476e+16,1055143311460007.5,1071670624383209.4,2703028553.740324,4526019057.763741,53409393391.37198,1006010677419.9005
34.993373525699035,1.7680390003811172e+16,1.9832560738448044e+16,1067175771304546.4,1083891555520130.5,2796179936.1586957,4681994088.561067,55249980259.43951,1040679657929.5762
35.793240996213015,1.788143201257422e+16,2.0058100235494908e+16,1079310524026344.1,1096216381805345.6,2892247055.0594897,4842851302.835662,57148179421.0785,1076433811212.5594
36.60910581613728,1.8084189115496024e+16,2.0285564677003676e+16,1091548798611903.5,1108646351475595.1,2991317266.767079,5008736972.263488,59105716954.58032,1113305648955.5151
37.44128793246003,1.828868169254801e+16,2.0514976957929464e+16,1103891825181766.2,1121182713919404.8,3093480470.015508,5179801625.596781,61124369173.478935,1151328629015.669
38.29011369110923,1.849493012841668e+16,2.074635997954607e+16,1116340834141077.2,1133826718814354.2,3198829173.843033,5356200162.348218,63205963968.041885,1190537180684.218
39.15591596493141,1.8702954796042656e+16,2.09797366310096e+16,1128897055185998.5,1146579615117931.0,3307458566.5370607,5538091968.234158,65352382167.513596,1230966730340.375
40.03903428423004,1.8912776037584292e+16,2.1215129768033516e+16,1141561716154697.5,1159442649900520.5,3419466585.546577,5725641032.2376995,67565558921.47227,1272653727465.176
40.93981496991464,1.912441414261803e+16,2.1452562188464668e+16,1154336041711537.0,1172417067008965.2,3534953988.267298,5919016065.13319,69847485098.43033,1315635670979.8154
41.85861126931294,1.9337889323389436e+16,2.1692056604551628e+16,1167221251853220.0,1185504105549355.2,3654024423.5924764,6118390619.292567,72200208699.55856,1359951135868.6006
42.7957834946992,1.9553221686931172e+16,2.1933635611698828e+16,1180218560225890.2,1198704998177717.8,3776784504.109209,6323943209.572763,74625836285.16422,1405639800041.888
43.751699164593184,1.9770431203873624e+16,2.2177321653511196e+16,1193329172242535.8,1212020969187960.0,3903343878.8071785,6535857435.060941,77126534411.29237,1452742471389.4126
44.72673314788505,1.998953767377972e+16,2.24231369829405e+16,1206554282990626.8,1225453232386733.8,4033815306.1530604,6754322101.432248,79704531073.54866,1501301114969.4553
