t(s),Total solute volume 1,Total retention volume 1,Total 1 volume 1,Total 2 volume 1,Total 3 volume 1,Total 4 volume 1,Total 5 volume 1,Total 6 volume 1
0.1,1389665646485961.5,7115728075414663.0,1732020487244934.5,3994041941683769.0,0.0,0.0,0.0,0.004426733051481951
0.202,2048869216193039.5,1.04922564507846e+16,2553624961272450.5,5888678490922803.0,356203981.69550776,2094796513.769905,106911675226.38557,974419720589.3997
0.30604000000000003,2561318501483402.0,1.3118126605558346e+16,3192320461702747.5,7361517072512347.0,899509044.1957101,5291941123.191397,277112908146.02734,2687265501539.991
0.41216080000000005,2996805652461455.0,1.5350574183259484e+16,3735093516983886.5,8613156908692303.0,1594514979.9743996,9382197299.50466,496926300707.0644,5010202108855.726
0.5204040160000001,3384220036689636.0,1.7337455242327844e+16,4217950664275845.0,9726629898232148.0,2425028574.580201,14270149079.566391,760587658810.3788,7877360293755.942
0.6308120963200001,3738369021167621.0,1.9154550701434736e+16,4659347197710001.0,1.0744494250210366e+16,3382310440.8559237,19904319561.862175,1065102589632.401,11251843127092.148
0.7434283382464002,4067957139031294.0,2.0846408277660656e+16,5070132087814253.0,1.1691767836016992e+16,4461344265.685866,26255164901.59486,1408775196956.9446,15111723091997.783
0.8582969050113283,4378594099480208.0,2.244173825068483e+16,5457297043698586.0,1.2584573619948872e+16,5659285656.097639,33305932775.889214,1790644760144.3347,19443877578587.5
0.9754628431115548,4674138160105223.0,2.396028884156356e+16,5825650837473926.0,1.34340006833763e+16,6974694683.356573,41048141231.43594,2210218751720.157,24240919020480.004
1.094972099973786,4957374343595724.0,2.5416317152547736e+16,6178664605687345.0,1.4248053503387612e+16,8407109817.440046,49479069210.92654,2667327853399.4453,29499485844627.332
1.2168715419732616,5230389382578688.0,2.682050794089688e+16,6518939165103373.0,1.5032729589576858e+16,9956791462.231495,58600246193.64077,3162039778412.758,35219206821890.94
1.3412089728127268,5494793912062133.0,2.8181110626580228e+16,6848481944177392.0,1.5792658091587198e+16,11624558106.476887,68416487342.044464,3694604652878.4595,41402033055167.445
1.4680331522689813,5751861552795813.0,2.9504650976836876e+16,7168880330795107.0,1.6531499541082126e+16,13411676798.907007,78935248581.71152,4265418703784.394,48051786534673.98
1.597393815314361,6002619913768065.0,3.079639674053359e+16,7481415094010385.0,1.7252207403566458e+16,15319787327.347208,90166180159.80548,4874999217921.582,55173844003280.74
1.729341691620648,6247912352222789.0,3.2060673643084464e+16,7787137359166529.0,1.7957205583858576e+16,17350848279.77264,102120809056.07826,5523966777307.198,62774909401930.266
1.863928525453061,6488441194412505.0,3.3301086516735176e+16,8086922476447450.0,1.86485126475402e+16,19507097856.40197,114812308251.898,6213032378758.522,70862846550159.56
2.001207095962122,6724798783474796.0,3.4520678145669776e+16,8381508717660370.0,1.932783105613634e+16,21791024946.958065,128255326441.12387,6942987940748.416,79446554106127.39
2.1412312378813647,6957490291292516.0,3.5722045971758456e+16,8671525707989752.0,1.999661273102723e+16,24205347549.5719,142465860967.68222,7714699226108.75,88535871014337.28
2.284055862638992,7186950811454712.0,3.6907429541135016e+16,8957515729952792.0,2.0656108180580604e+16,26752996567.659477,157461162427.2006,8529100530291.026,98141504457569.73
2.4297369798917723,7413558390026662.0,3.807877716873411e+16,9239949964408948.0,2.1307403952078784e+16,29437103631.03672,173259662961.75873,9387190688116.9,108274974764990.22
2.578331719489608,7637644112606042.0,3.923779754365695e+16,9519241062646922.0,2.1951451623072148e+16,32260991986.62853,189880922626.84555,10290030084471.97,118948573332763.92
2.7298983538794,7859500019931612.0,4.038600022664556e+16,9795753012069840.0,2.2589090551743364e+16,35228169772.04664,207345589787.19016,11238738443109.264,130175330698042.44
2.884496320956988,8079385396044708.0,4.152472782292755e+16,1.0069808973497872e+16,2.322106594980156e+16,38342325169.29333,225675372581.4503,12234493228502.562,141968992657152.2
3.0421862473761276,8297531819145231.0,4.265518182643679e+16,1.0341697576344788e+16,2.3848043399218276e+16,41607323064.77078,244893019254.8301,13278528538188.752,154344002847988.16
3.2030299723236504,8514147259503608.0,4.3778443590180776e+16,1.0611678026084814e+16,2.4470620630093656e+16,45027202933.766,265022305700.3311,14372134393308.953,167315490596765.0
3.3670905717701234,8729419434751391.0,4.489549149871248e+16,1.0879984286147022e+16,2.508933716414358e+16,48606177734.30085,286088028942.181,15516656356978.984,180899263106839.03
3.5344323832055258,8943518580202251.0,4.6007215149186424e+16,1.1146828530728042e+16,2.5704682276917684e+16,52348633644.356224,308116005584.15906,16713495426235.184,195111801272954.9
3.7051210308696363,9156599753826120.0,4.711442715291783e+16,1.141240401761579e+16,2.6317101622556996e+16,56259130513.1246,331133074461.3259,17964108155310.836,209970258558662.06
3.879223451487029,9368804767666310.0,4.821787302697504e+16,1.1676887495427302e+16,2.6927002784906536e+16,60342402924.64065,355167102896.69226,19270006977063.055,225492462491994.6
4.0568079205167695,9580263816863994.0,4.931823953981639e+16,1.1940441233956956e+16,2.7534759959516576e+16,64603361793.29654,380246996088.9377,20632760696289.33,241696918424686.34
4.237944078927105,9791096861991962.0,5.041616179588865e+16,1.220321474705971e+16,2.8140717926627064e+16,69047096427.09496,406402709253.5311,22053995134012.76,258602815270220.0
4.422702960505647,1.0001414808684984e+16,5.151222928417328e+16,1.2465346262893118e+16,2.8745195441559052e+16,73678877007.24281,433665262214.65674,23535393905977.31,276230032990901.75
4.61115701971576,1.0211320519589364e+16,5.260699106981448e+16,1.27269639851692e+16,2.9348488143172812e+16,78504157442.72444,462066756204.44745,25078699321867.043,294599151647569.9
4.803380160110075,1.042090968673185e+16,5.370096027255101e+16,1.2988187180438622e+16,2.995087106115474e+16,83528578566.46576,491640392672.9456,26685713394362.945,313731461860175.44
4.9994477633122765,1.0630271587015428e+16,5.479461794809336e+16,1.3249127119709286e+16,3.055260078739856e+16,88757971646.08179,522420493949.80414,28358298949228.29,333648976555289.6
5.199436718578522,1.0839489739315994e+16,5.588841646693107e+16,1.3509887897423972e+16,3.1153917364574844e+16,94198362187.3507,554442525629.0422,30098380829290.24,354374443899131.2
5.403425452950093,1.1048642478303312e+16,5.698278246792299e+16,1.3770567146647168e+16,3.175504593535833e+16,99855974012.74506,587743120572.8169,31907947186546.87,375931361333066.25
5.611493962009095,1.1257803457442014e+16,5.8078119450375096e+16,1.4031256665984374e+16,3.2356198188109292e+16,105737233600.77542,622360104450.3763,33789050857743.438,398343990643609.8
5.823723841249277,1.146704209148706e+16,5.917481005736128e+16,1.4292042971089954e+16,3.2957573628655824e+16,111848774674.73254,658332522744.9592,35743810819678.82,421637374011392.25
6.040198318074262,1.16764239470605e+16,6.027321809420966e+16,1.455300778146596e+16,3.3559360702855856e+16,118197443031.75462,695700669175.2355,37774413721265.41,445837350993914.75
6.261002284435747,1.1886011088494624e+16,6.137369031890271e+16,1.4814228451506342e+16,3.4161737790589116e+16,124790301605.10829,734506115489.433,39883115490000.055,470970576405523.56
6.486222330124463,1.2095862384979904e+16,6.247655803528379e+16,1.5075778353313528e+16,3.4764874088535676e+16,131634635754.21756,774791742599.9292,42072243011038.94,497064539065329.5
6.715946776726952,1.2306033784117828e+16,6.358213851515761e+16,1.5337727217643176e+16,3.536893039639735e+16,138737958778.36978,816601773034.3657,44344195877518.82,524147581389915.9
6.950265712261491,1.2516578556202204e+16,6.4690736271404856e+16,1.5600141438366246e+16,3.5974059818989984e+16,146108017651.2101,859981804686.2754,46701448211153.28,552248919812883.2
7.18927102650672,1.2727547512910128e+16,6.580264420094758e+16,1.5863084345036324e+16,3.658040839478615e+16,153752798974.15997,904978845854.1997,49146550552458.82,581398666017756.6
7.433056447036854,1.2938989203548976e+16,6.69181446136651e+16,1.6126616447483664e+16,3.7188115659950904e+16,161680535147.75815,951641351563.4546,51682131820250.914,611627848974583.0
7.681717575977592,1.3150950091557766e+16,6.803751016106993e+16,1.6390795655799054e+16,3.7797315155627096e+16,169899710760.69788,1000019261169.1508,54310901340293.625,642968437773864.1
7.935351927497144,1.3363474713585672e+16,6.916100467663722e+16,1.6655677478602828e+16,3.840813488514474e+16,178419069196.9847,1050164037242.9766,57035650943201.38,675453365254317.4
8.194058966047088,1.3576605823153788e+16,7.028888393805432e+16,1.6921315202098726e+16,3.9020697726921224e+16,187247619462.22485,1102128705749.7092,59859257131878.96,709116552423493.4
8.45794014536803,1.3790384520637666e+16,7.14213963602944e+16,1.7187760052078746e+16,3.963512180804584e+16,196394643230.57397,1155967897522.3928,62784683318950.05,743992933672412.5
8.72709894827539,1.4004850371080988e+16,7.255878362724742e+16,1.7455061340761294e+16,4.025152084288982e+16,205869702114.32697,1211737891047.8923,65814982134775.37,780118482787393.2
9.0016409272409,1.4220041511156374e+16,7.370128126865461e+16,1.7723266600102514e+16,4.0870004440523384e+16,215682645158.5397,1269496656576.8728,68953297806787.79,817530239763892.6
9.281673745785717,1.4435994746423356e+16,7.484911918824243e+16,1.799242170301474e+16,4.149067838424648e+16,225843616563.45068,1329303901574.449,72202868610995.23,856266338428755.8
9.567307220701432,1.4652745639891496e+16,7.600252214822483e+16,1.826257097374774e+16,4.21136448861292e+16,236363063637.79123,1391221117529.743,75567029396606.47,896366034878613.9
9.85865336511546,1.4870328592773908e+16,7.71617102147181e+16,1.8533757288536556e+16,4.273900281910615e+16,247251744986.3892,1455311628144.3508,79049214184831.8,937869736743431.9
10.155826432417769,1.5088776918210874e+16,7.832689916807182e+16,1.8806022167487664e+16,4.336684792886713e+16,258520738935.74475,1521640638921.3645,82652958843004.2,980819033285299.0
10.458942961066125,1.5308122908651962e+16,7.949830088165253e+16,1.907940585856108e+16,4.399727302752036e+16,270181452201.5178,1590275288178.1196,86381903835241.58,1025256726343608.1
10.768121820287448,1.552839789750549e+16,8.067612367221117e+16,1.935394741440779e+16,4.463036817078007e+16,282245628802.09973,1661284699507.2664,90239797050956.72,1071226862138684.0
11.083484256693197,1.5749632315595108e+16,8.186057262461378e+16,1.9629684762734812e+16,4.52662208202296e+16,294725359222.67163,1734740035712.0273,94230496712581.2,1118774763946788.6
11.405153941827061,1.597185574290371e+16,8.30518498934074e+16,1.9906654770796652e+16,4.5904915992038744e+16,307633089834.3596,1810714554242.774,98357974363946.48,1167947065660244.8
11.733257020663602,1.619509695603116e+16,8.425015498342328e+16,2.01848933045447e+16,4.65465363933627e+16,320981632573.2861,1889283664163.204,102626317940823.25,1218791746247138.8
12.067922161076874,1.6419383971747414e+16,8.545568501138707e+16,2.046443528291003e+16,4.719116254751903e+16,334784174884.5132,1970524984675.4692,107039734925175.2,1271358165125763.8
12.409280604298411,1.6644744086981218e+16,8.666863495029349e+16,2.0745314727643548e+16,4.783887290891918e+16,349054289936.04596,2054518405234.6875,111602555584750.58,1325697098469679.8
12.75746621638438,1.6871203915549384e+16,8.788919785812986e+16,2.1027564809093852e+16,4.848974396863288e+16,363805947108.2271,2141346147284.2349,116319236299674.97,1381860776459744.2
13.112615540712067,1.7098789421900092e+16,8.91175650923621e+16,2.131121788826354e+16,4.9143850351370056e+16,379053522764.0234,2231092827644.14,121194362977771.9,1439902921500219.0
13.474867851526309,1.732752595211579e+16,9.035392651146437e+16,2.1596305555449876e+16,4.9801264904586904e+16,394811811305.85645,2323845523585.888,126232654560377.4,1499878787416523.2
13.844365208556836,1.755743826239686e+16,9.159847066464294e+16,2.188285866574578e+16,5.046205878035094e+16,411096036524.7726,2419693839627.7065,131438966620469.2,1561845199652691.8
14.221252512727972,1.7788550545225304e+16,9.28513849707944e+16,2.2170907371648836e+16,5.112630151053863e+16,427921863247.89795,2518729976085.3594,136818295054970.7,1625860596487268.8
14.605677562982532,1.8020886453388064e+16,9.41128558876407e+16,2.2460481153003372e+16,5.179406107588071e+16,445305409290.2615,2621048799414.2036,142375779873138.34,1691985071286684.8
14.997791114242183,1.8254469122022856e+16,9.538306907189574e+16,2.2751608844477076e+16,5.246540396932485e+16,463263257717.1968,2726747914379.0674,148116709082980.78,1760280415815723.0
15.397746936527026,1.848932118883333e+16,9.666220953123656e+16,2.3044318660756724e+16,5.314039525413611e+16,481812469423.6658,2835927738089.358,154046522677699.78,1830810164625186.0
15.805701875257567,1.872546481260724e+16,9.795046176878915e+16,2.3338638219628044e+16,5.381909861712039e+16,500970596036.98004,2948691575937.3457,160170816724185.06,1903639640537187.0
16.221815912762718,1.8962921690158612e+16,9.924800992076566e+16,2.3634594563091948e+16,5.450157641731782e+16,520755693149.50354,3065145699478.544,166495347555628.28,1978836001249092.2
16.64625223101797,1.920171307180354e+16,1.005550378878469e+17,2.393221417665304e+16,5.518788973048245e+16,541186333888.0438,3185399426293.5405,173026036070366.97,2056468287077384.0
17.079177275638333,1.944185977547069e+16,1.0187172946084053e+17,2.4231523006906068e+16,5.587809838963674e+16,562281622826.7643,3309565201871.556,179768972139100.7,2136607469863297.8
17.5207608211511,1.9683382199536412e+16,1.0319826844111072e+17,2.4532546477533316e+16,5.657226102196217e+16,584061210250.539,3437758683556.4146,186730419122654.88,2219326503062355.2
17.97117603757412,1.992630033446899e+16,1.045348387562279e+17,2.483530950381746e+16,5.727043508226521e+16,606545306775.7986,3570098826596.4414,193916818502509.12,2304700373040392.5
18.430599558325603,2.017063377335709e+16,1.0588162457125416e+17,2.5139836505763564e+16,5.79726768832374e+16,629754698336.0015,3706707972340.278,201334794626335.4,2392806151599028.0
18.899211549492115,2.0416401721392184e+16,1.0723881039604432e+17,2.5446151419917836e+16,5.867904162270943e+16,653710761538.9893,3847711938621.281,208991159570825.44,2483723049753919.5
19.37719578048196,2.06636230043685e+16,1.0860658118891624e+17,2.575427770996171e+16,5.938958340808063e+16,678435479403.5472,3993240112373.6714,216892918124114.3,2577532472789499.0
19.864739696091597,2.09123160762589e+16,1.0998512245701211e+17,2.6064238376153748e+16,6.0104355278092984e+16,703951457482.6171,4143425544524.199,225047272890146.1,2674318076614251.5
20.36203449001343,2.116249902591988e+16,1.1137462035365462e+17,2.637605596368665e+16,6.0823409222102056e+16,730281940380.6711,4298405047203.5806,233461629517347.44,2774165825441030.0
20.869275179813698,2.141418958297475e+16,1.1277526177297371e+17,2.6689752570019984e+16,6.154679619698573e+16,757450828672.8682,4458319293322.409,242143602054006.25,2877164050817106.5
21.38666068340997,2.1667405122920376e+16,1.1418723444206344e+17,2.7005349851244548e+16,6.227456614182193e+16,785482696233.6641,4623312918556.947,251101018432781.56,2983403512029133.5
21.91439389707817,2.192216267149832e+16,1.1561072701091051e+17,2.732286902753114e+16,6.3006767990451896e+16,814402807982.6283,4793534625790.204,260341926086792.34,3092977457908459.0
22.452681775019734,2.2178478908369804e+16,1.1704592914031406e+17,2.7642330887709884e+16,6.374344968204171e+16,844237138055.3431,4969137292054.652,269874597699763.06,3205981690062679.5
23.00173541052013,2.2436370170127924e+16,1.1849303158801258e+17,2.7963755793025424e+16,6.448465816974078e+16,875012388407.2202,5150278078023.057,279707537092716.03,3322514627559362.0
23.561770118730532,2.2695852452681456e+16,1.1995222629320814e+17,2.8287163680107616e+16,6.523043942753255e+16,906756007858.2692,5337118540093.965,289849485249737.8,3442677373088662.5
24.133005521105144,2.295694141303937e+16,1.2142370645967154e+17,2.8612574063195424e+16,6.598083845536326e+16,939496211586.7625,5529824745119.539,300309426485349.6,3566573780631329.0
24.715665631527248,2.321965237052326e+16,1.2290766663760398e+17,2.894000603564876e+16,6.67358992826276e+16,973262001079.9279,5728567387822.837,311096594756045.25,3694310524659329.0
25.309978944157795,2.3484000307435476e+16,1.24404302804414e+17,2.9269478270780344e+16,6.749566497008769e+16,1008083184549.7421,5933521910952.507,322220480118564.94,3825997170896440.5
25.91617852304095,2.3749999869204096e+16,1.2591381244456264e+17,2.960100902203716e+16,6.826017761029121e+16,1043990397822.001,6144868628222.685,333690835337499.94,3961746248666417.0
26.53450209350177,2.401766536402942e+16,1.274363946286202e+17,2.993461612255929e+16,6.902947832655407e+16,1081015125706.8381,6362792850086.564,345517682644822.94,4101673324856725.5
27.165192135371807,2.4287010762050852e+16,1.2897225009167622e+17,3.0270316984141988e+16,6.980360727056701e+16,1119189723858.9133,6587485012391.713,357711320653969.2,4245897079526076.5
27.808495978079243,2.45580496940543e+16,1.3052158131122296e+17,3.0608128595624268e+16,7.058260361868017e+16,1158547441135.4895,6819140807965.702,370282331431076.3,4394539383184241.5
28.464665897640828,2.48307954497376e+16,1.3208459258464507e+17,3.094806752072735e+16,7.136650556691751e+16,1199122442460.6614,7057961321180.592,383241587726028.8,4547725375772909.0
29.133959215593645,2.5105260975550988e+16,1.336614901064248e+17,3.12901498953628e+16,7.215535032477066e+16,1240949832203.9592,7304153165544.674,396600260365936.94,4705583547376606.0
29.816638399905518,2.538145887212761e+16,1.352524820451806e+17,3.1634391424430256e+16,7.294917410781352e+16,1284065678081.587,7557928624370.212,410369825813685.0,4868245820693015.0
30.51297116790363,2.565940139131963e+16,1.3685777862064366e+17,3.1980807378123364e+16,7.374801212918422e+16,1328507035588.494,7819505794565.407,424562073894198.8,5035847635291941.0
31.223230591261704,2.5939100432853136e+16,1.3847759218067461e+17,3.2329412587760304e+16,7.455189858997046e+16,1374311972969.5457,8089108733598.95,439189115691064.1,5208528033693090.0
31.947695203086937,2.622056754061463e+16,1.4011213727842198e+17,3.2680221441155856e+16,7.53608666685368e+16,1421519596737.908,8366967609685.497,454263391616130.3,5386429749292085.0
32.686649107148675,2.65038138985821e+16,1.4176163074971542e+17,3.3033247877549612e+16,7.617494850883043e+16,1470170077748.7925,8653318855239.653,469797679654730.8,5569699296165286.0
33.44038208929165,2.6788850326411216e+16,1.434262917907859e+17,3.3388505382105316e+16,7.699417520769534e+16,1520304677836.7163,8948405323646.2,485805103789132.1,5758487060783490.0
34.20918973107749,2.707568727468874e+16,1.451063420364066e+17,3.374600697999431e+16,7.781857680122907e+16,1571965777024.1738,9252476449394.055,502299142602817.75,5952947395665144.0
34.993373525699035,2.7364334819862436e+16,1.4680200563853338e+17,3.4105765230076964e+16,7.864818225021288e+16,1625196901309.7983,9565788411620.2,519293638068198.4,6153238714999779.0
35.793240996213015,2.7654802658858252e+16,1.485135093455357e+17,3.4467792218193464e+16,7.948301942463918e+16,1680042751043.8074,9888604301110.559,536802804520312.94,6359523592272366.0
36.60910581613728,2.7947100103394056e+16,1.5024108258209978e+17,3.483209955007662e+16,8.032311508736962e+16,1736549229898.4983,10221194290803.133,554841237819070.0,6571968859919771.0
37.44128793246003,2.8241236073998776e+16,1.5198495752987882e+17,3.5198698343897776e+16,8.116849487694502e+16,1794763474441.5386,10563835809838.654,573423924702552.0,6790745711050302.0
38.29011369110923,2.8537219093746176e+16,1.537453692089758e+17,3.5567599222456788e+16,8.20191832895759e+16,1854733884319.4653,10916813721203.34,592566252333871.6,7016029803257506.0
39.15591596493141,2.8835057281711516e+16,1.5552255556033424e+17,3.5938812305026652e+16,8.287520366033608e+16,1916510153058.9363,11280420503007.07,612284018044043.5,7248001364559785.0
