t(s),Total solute volume 1,Total retention volume 1,Total 1 volume 1,Total 2 volume 1,Total 3 volume 1,Total 4 volume 1,Total 5 volume 1,Total 6 volume 1
0.1,1384269013029218.2,1.039366397781807e+16,2531887414418598.5,6477507550370256.0,0.0,0.0,0.0,0.013903653951609765
0.202,1995413201800260.2,1.504480745973441e+16,3649699999919552.5,9337355142608412.0,43705955392.09,298427190639.92834,10368484987027.25,51628497273123.8
0.30604000000000003,2473428327888874.5,1.874363220450802e+16,4524011538793128.0,1.1574194045021178e+16,109440643707.79356,748184493261.8545,27476076960839.44,143664590707025.47
0.41216080000000005,2876606881073319.0,2.191984607390781e+16,5261443428623197.0,1.3460837526986522e+16,192838430416.26846,1318965430119.75,49774271586855.26,269672161777365.62
0.5204040160000001,3231153350267139.0,2.47658570807791e+16,5909924975407840.0,1.5119909749241772e+16,291717198808.8176,1995780986199.8218,76513360176383.3,426068147500952.0
0.6308120963200001,3551014957417675.5,2.7383688510642868e+16,6494966310811131.0,1.6616676299105918e+16,404792101714.6529,2769813312476.715,107263309543858.66,610593028350092.9
0.7434283382464002,3844547596625233.5,2.983420864131619e+16,7031850755233796.0,1.7990238172868388e+16,531232075090.73584,3635359972568.792,141747405754168.97,821658118786952.9
0.8582969050113283,4117203991643854.0,3.2156959943644504e+16,7530551592710435.0,1.9266111075406452e+16,670471144703.707,4588537214773.932,179775246031738.03,1058059029492545.4
0.9754628431115548,4372772719823956.0,3.4379290308481916e+16,7997998305672163.0,2.046202341718056e+16,822114329907.5824,5626634048561.938,221211014091143.25,1318836103335616.5
1.094972099973786,4614013831495661.0,3.652103364852283e+16,8439239152953867.0,2.159089067418348e+16,985885063030.8727,6747751528108.961,265956426684167.8,1603199926614517.2
1.2168715419732616,4843013423435431.0,3.859711952640364e+16,8858089701278247.0,2.266247459835861e+16,1161593253527.366,7950583745934.841,313940658631005.06,1910488967700903.8
1.3412089728127268,5061394901276048.0,4.061912778006259e+16,9257519234019450.0,2.368437180867981e+16,1349114604772.4272,9234276024470.29,365113936004598.94,2240144509453446.0
1.4680331522689813,5270451665609350.0,4.2596265110277816e+16,9639893440212618.0,2.4662634687835932e+16,1548376503848.9607,10598328182289.889,419443204002640.2,2591695407931144.5
1.597393815314361,5471234119813533.0,4.4536005682181224e+16,1.0007133555869714e+16,2.560217852976402e+16,1759347966321.89,12042525598173.05,476909035951295.3,2964748567218199.5
1.729341691620648,5664608827220340.0,4.644452669940516e+16,1.0360824565148022e+16,2.6507058361603812e+16,1982032199588.806,13566888221081.246,537503320843362.6,3358982704168954.5
1.863928525453061,5851300005337191.0,4.8327013674387144e+16,1.070229109517805e+16,2.7380663112988964e+16,2216460927726.024,15171631649839.229,601227461945111.4,3774143906360266.0
2.001207095962122,6031919441475499.0,5.018787998245233e+16,1.1032652133111728e+16,2.8225855604068588e+16,2462689947865.732,16857136650571.262,668090927620501.8,4210042049577593.0
2.1412312378813647,6206988600293650.0,5.203092833899758e+16,1.1352861461825532e+16,2.904507599613644e+16,2720795580688.011,18623924800629.105,738110058473545.1,4666547501887096.0
2.284055862638992,6376955332316498.0,5.385947190524288e+16,1.16637382205636e+16,2.9840419977922676e+16,2990871793949.08,20472638745415.863,811307071901679.1,5143587791999072.0
2.4297369798917723,6542206762396146.0,5.567642669354106e+16,1.1965990478520132e+16,3.061369907621193e+16,3273027849503.1733,22404026044729.09,887709226861657.5,5641144095656947.0
2.578331719489608,6703079415826320.0,5.7484383161183704e+16,1.2260233755964778e+16,3.1366488040277772e+16,3567386368825.9473,24418925890301.27,967348124081315.9,6159247512774402.0
2.7298983538794,6859867303797304.0,5.928566244512441e+16,1.2547005812909918e+16,3.2100162677214684e+16,3874081739733.8486,26518258165559.277,1050259123544385.5,6697975187752788.0
2.884496320956988,7012828469189516.0,6.108236108152443e+16,1.2826778621667458e+16,3.2815930482548004e+16,4193258804410.167,28703014437550.387,1136480864303571.0,7257446370573932.0
3.0421862473761276,7162190347004577.0,6.287638696869217e+16,1.309996817132399e+16,3.3514855724033556e+16,4525071780355.535,30974250549455.96,1226054873202044.2,7837818530798175.0
3.2030299723236504,7308154194763104.0,6.466948858513599e+16,1.3366942571142998e+16,3.4197880173437692e+16,4869683373824.553,33333080536239.14,1319025249761441.8,8439283632120720.0
3.3670905717701234,7450898780649481.0,6.646327895131992e+16,1.3628028796352164e+16,3.486584036499735e+16,5227264051217.237,35780671626225.78,1415438414967617.5,9062064658675882.0
3.5344323832055258,7590583470985189.0,6.825925545132352e+16,1.388351833527535e+16,3.5519482043079228e+16,5597991438999.84,38318240126300.57,1515342912466785.2,9706412457951664.0
3.7051210308696363,7727350826536286.0,7.0058816361598504e+16,1.4133671938099438e+16,3.615947231145876e+16,5982049827450.789,40947048020742.984,1618789251815035.8,1.0372602935840764e+16
3.879223451487029,7861328794028694.0,7.186327473704403e+16,1.4378723625257634e+16,3.6786409888397464e+16,6379629757693.196,43668400142318.12,1725829784693305.5,1.1060934614766922e+16
4.0568079205167695,7992632562168784.0,7.367387015860398e+16,1.4618884082177344e+16,3.740083379179117e+16,6790927675171.721,46483641799648.72,1836518606393429.5,1.1771726546598434e+16
4.237944078927105,8121366138809180.0,7.549177873709122e+16,1.4854343543989628e+16,3.800323071943099e+16,7216145636231.147,49394156768996.34,1950911476438090.5,1.250531655601813e+16
4.422702960505647,8247623696101827.0,7.731812168496646e+16,1.5085274255876514e+16,3.859404134357243e+16,7655491057594.7,52401365580230.1,2069065753692210.2,1.3262059779085662e+16
4.61115701971576,8371490722299570.0,7.915397270428738e+16,1.5311832579769484e+16,3.9173665700725064e+16,8109176500931.481,55506724043243.39,2191040342475859.2,1.4042327458473204e+16
4.803380160110075,8493045011975602.0,8.100036438999461e+16,1.553416080550657e+16,3.974246782532606e+16,8577419486411.412,58711721972855.336,2316895647043460.5,1.4846505958683644e+16
4.9994477633122765,8612357520956371.0,8.285829380948875e+16,1.575238871454415e+16,4.030077975034734e+16,9060442330623.973,62017882080422.484,2446693532580081.0,1.5674995966649744e+16
5.199436718578522,8729493107948280.0,8.472872738944648e+16,1.596663493642625e+16,4.0848904977691144e+16,9558472005608.74,65426759009851.055,2580497291581659.5,1.6528211844783686e+16
5.403425452950093,8844511181084321.0,8.661260521708718e+16,1.6177008131348174e+16,4.138712150366388e+16,10071740016681.121,68939938502143.27,2718371614909457.0,1.7406581107562558e+16
5.611493962009095,8957466264192150.0,8.851084484418515e+16,1.6383608025886726e+16,4.191568446879013e+16,10600482297085.375,72559036674990.55,2860382566899170.5,1.8310543999444916e+16
5.823723841249277,9068408494780732.0,9.042434466695336e+16,1.6586526323840668e+16,4.243482848810772e+16,11144939117664.398,76285699404996.45,3006597563939698.0,1.9240553157761892e+16
6.040198318074262,9177384063777554.0,9.235398694268098e+16,1.6785847510530154e+16,4.29447697088877e+16,11705355010160.861,80121601803037.77,3157085356157238.5,2.019707334651513e+16
6.261002284435747,9284435605624358.0,9.430064049406531e+16,1.698164956629963e+16,4.344570763605982e+16,12281978703370.102,84068447777451.02,3311916012132113.5,2.118058124746861e+16
6.486222330124463,9389602545961444.0,9.626516314406346e+16,1.7174004602448336e+16,4.393782675917643e+16,12875063071671.332,88127969681838.14,3471160906644049.0,2.2191565297079664e+16
6.715946776726952,9492921412682914.0,9.824840391742605e+16,1.7362979430164568e+16,4.442129800797301e+16,13484865095285.336,92301928043026.22,3634892711239362.0,2.3230525562227852e+16
6.950265712261491,9594426114953782.0,1.002512050395811e+17,1.7548636070860532e+16,4.489628005800799e+16,14111645831343.498,96592111362881.02,3803185387233008.0,2.4297973651331576e+16
7.18927102650672,9694148194121836.0,1.0227440375897794e+17,1.7731032215101702e+16,4.5362920504786296e+16,14755670395006.553,101000335988736.81,3976114180875638.5,2.5394432657708708e+16
7.433056447036854,9792117050172872.0,1.0431883401520902e+17,1.7910221636803602e+16,4.582135692343934e+16,15417207950424.785,105528446051033.12,4153755620742070.0,2.6520437130049756e+16
7.681717575977592,9888360147035126.0,1.06385327972056e+17,1.8086254568743104e+16,4.627171782943127e+16,16096531711760.36,110178313469712.38,4336187517578723.5,2.767653306408635e+16
7.935351927497144,9982903199411188.0,1.0847471743193848e+17,1.825917804428225e+16,4.671412355282487e+16,16793918954374.854,114951838030105.34,4523488966676267.0,2.886327791175935e+16
8.194058966047088,1.0075770343097598e+16,1.1058783514600134e+17,1.842903620889072e+16,4.714868703527879e+16,17509651035794.344,119850947525622.02,4715740352496050.0,3.0081240607676744e+16
8.45794014536803,1.016698429031056e+16,1.1272551603217165e+17,1.8595870604243484e+16,4.7575514556882024e+16,18244013425781.395,124877597962600.48,4913023355152425.0,3.1331001614194868e+16
8.72709894827539,1.0256566471500246e+16,1.1488859831190362e+17,1.875972042760567e+16,4.799470639976305e+16,18997295745137.086,130033773824714.39,5115420958602874.0,3.261315298486198e+16
9.0016409272409,1.0344537165271622e+16,1.1707792457495298e+17,1.8920622769463564e+16,4.840635745604363e+16,19769791813499.227,135321488398790.88,5323017460797867.0,3.392829844316402e+16
9.281673745785717,1.0430915617983474e+16,1.1929434278034923e+17,1.907861283227665e+16,4.881055778749339e+16,20561799706802.98,140742784166662.22,5535898486208146.0,3.52770534725141e+16
9.567307220701432,1.0515720154239348e+16,1.2153870720072013e+17,1.9233724132570576e+16,4.920739314256327e+16,21373621824860.69,146299733266208.94,5754151000914133.0,3.666004541534173e+16
9.85865336511546,1.0598968279003032e+16,1.2381187931625835e+17,1.938598868771101e+16,4.959694543422699e+16,22205564968901.816,151994438020479.94,5977863330025372.0,3.8077913582302536e+16
10.155826432417769,1.0680676771776496e+16,1.2611472866386906e+17,1.953543718815933e+16,4.997929318067928e+16,23057940428463.445,157829031530651.5,6207125176981172.0,3.9531309374313624e+16
10.458942961066125,1.0760861773312722e+16,1.2844813364639235e+17,1.9682099156074332e+16,5.0354511911102056e+16,23931064077153.1,163805678329513.16,6442027644471294.0,4.102089641902522e+16
10.768121820287448,1.0839538865568914e+16,1.3081298230623171e+17,1.982600309155023e+16,5.072267453979882e+16,24825256477419.258,169926575096420.78,6682663257154177.0,4.254735072058574e+16
11.083484256693197,1.0916723145763636e+16,1.332101730672352e+17,1.9967176608070612e+16,5.108385171273952e+16,25740842995056.86,176193951438768.47,6929125986676716.0,4.411136081955089e+16
11.405153941827061,1.0992429295305452e+16,1.35640615448248e+17,2.0105646558581936e+16,5.143811213010686e+16,26678153924268.094,182610070745664.8,7181511279449050.0,4.571362796013475e+16
11.733257020663602,1.1066671644049596e+16,1.3810523075138686e+17,2.0241439153022036e+16,5.178552284698048e+16,27637524623629.58,189177231116231.72,7439916087245736.0,4.735486626434916e+16
12.067922161076874,1.1139464230019538e+16,1.406049527277604e+17,2.037458006755349e+16,5.212614955280017e+16,28619295662651.668,195897766360343.47,7704438900291444.0,4.9035802915072824e+16
12.409280604298411,1.1210820854597854e+16,1.4314072822307498e+17,2.0505094545510224e+16,5.246005682962714e+16,29623812978252.336,202774047067095.34,7975179782356823.0,5.07571783509375e+16
12.75746621638438,1.1280755133291658e+16,1.4571351780532077e+17,2.0633007490250004e+16,5.278730838969786e+16,30651428040649.035,209808481737572.97,8252240407625867.0,5.251974647467727e+16
13.112615540712067,1.1349280542395536e+16,1.483242963765153e+17,2.0758343550502776e+16,5.310796729377959e+16,31702498028742.336,217003517982446.1,8535724099520592.0,5.4324274874305544e+16
13.474867851526309,1.141641046203003e+16,1.509740537702842e+17,2.0881127199090308e+16,5.3422096152566584e+16,32777386015607.02,224361643788678.38,8825735871980010.0,5.617154505481302e+16
13.844365208556836,1.1482158216014252e+16,1.536637953369025e+17,2.1001382805854804e+16,5.3729757313260984e+16,33876461164852.594,231885388860646.7,9122382473685222.0,5.806235267806171e+16
14.221252512727972,1.1546537108852194e+16,1.563945425172547e+17,2.1119134705308816e+16,5.403101303264888e+16,35000098938286.062,239577326038677.97,9425772435420672.0,5.999750781004718e+16
14.605677562982532,1.1609560459890378e+16,1.5916733340705315e+17,2.123440725911103e+16,5.432592563693893e+16,36148681314731.73,247440072793997.5,9736016120371298.0,6.197783517663277e+16
14.997791114242183,1.16712416345648e+16,1.6198322331253034e+17,2.1347224913218348e+16,5.4614557667980856e+16,37322597019392.96,255476292795837.8,1.005322577692147e+16,6.400417443002969e+16
15.397746936527026,1.1731594072660368e+16,1.648432852987267e+17,2.145761224957384e+16,5.489697201550482e+16,38522241763038.94,263688697545742.1,1.037751559356991e+16,6.6077380428108936e+16
15.805701875257567,1.1790631313625062e+16,1.6774861073140346e+17,2.1565594032407572e+16,5.517323203557764e+16,39748018490571.336,272080048076018.9,1.0709001755851388e+16,6.8198323527375016e+16
16.221815912762718,1.184836701912569e+16,1.7070030981353808e+17,2.1671195249492e+16,5.544340165615236e+16,41000337638976.664,280653156712417.53,1.1047802505480126e+16,7.036788988893653e+16
16.64625223101797,1.1904814993115868e+16,1.7369951211728902e+17,2.177444114884739e+16,5.5707545470975256e+16,42279617405017.49,289410888903511.25,1.1394038202115972e+16,7.258698179592597e+16
17.079177275638333,1.1959989199670112e+16,1.767473671122539e+17,2.187535727136126e+16,5.5965728823041176e+16,43586284023072.1,298356165119665.5,1.1747831388112424e+16,7.485651798092622e+16
17.5207608211511,1.2013903778741646e+16,1.7984504469079594e+17,2.1973969479610064e+16,5.621801787833188e+16,44920772053290.8,307491962822785.6,1.2109306856380176e+16,7.71774339628561e+16
17.97117603757412,1.2066573059883224e+16,1.829937356911627e+17,2.2070303982955412e+16,5.6464479690023064e+16,46283524679838.17,316821318505270.2,1.2478591721223408e+16,7.955068239389246e+16
18.430599558325603,1.2118011573888712e+16,1.8619465241908538e+17,2.2164387358837016e+16,5.670518225296228e+16,47674994018637.5,326347329794153.8,1.2855815491819182e+16,8.197723341776536e+16
18.899211549492115,1.2168234062299082e+16,1.8944902916851318e+17,2.225624657015977e+16,5.694019454815254e+16,49095641433877.79,336073157615344.4,1.3241110147989572e+16,8.445807504086299e+16
19.37719578048196,1.2217255484762448e+16,1.927581227421106e+17,2.2345908978755548e+16,5.716958657719519e+16,50545937862614.69,346002028413366.4,1.363461021804598e+16,8.699421351707552e+16
19.864739696091597,1.226509102431248e+16,1.9612321297212586e+17,2.243340235503785e+16,5.739342938699107e+16,52026364147026.14,356137236423604.1,1.4036452858682904e+16,8.958667374653094e+16
20.36203449001343,1.2311756090693486e+16,1.995456032422138e+17,2.251875488408345e+16,5.7611795085301656e+16,53537411374126.67,366482145995760.1,1.444677793706284e+16,9.22364996877024e+16
20.869275179813698,1.2357266321888776e+16,2.0302662101078506e+17,2.2601995168428144e+16,5.782475684790313e+16,55079581222896.695,377040193968254.94,1.4865728115295394e+16,9.494475478207842e+16
21.38666068340997,1.2401637583996802e+16,2.0656761833643123e+17,2.268315222784014e+16,5.803238891800789e+16,56653386318775.5,387814892093289.8,1.5293448937459836e+16,9.771252239071456e+16
21.91439389707817,1.244488596955973e+16,2.1016997240596864e+17,2.2762255496262996e+16,5.823476659844539e+16,58259350595331.47,398809829511303.0,1.5730088919188616e+16,1.0054090624240525e+17
22.452681775019734,1.2487027794403932e+16,2.1383508606562912e+17,2.283933481603692e+16,5.843196623687923e+16,59898009662718.88,410028675272173.8,1.6175799639683706e+16,1.0343103089369043e+17
23.00173541052013,1.252807959301969e+16,2.1756438835592515e+17,2.2914420429448068e+16,5.862406520418865e+16,61569911182353.08,421475180899271.75,1.663073583593659e+16,1.0638404220125069e+17
23.561770118730532,1.2568058112498618e+16,2.2135933505071082e+17,2.298754296763997e+16,5.881114186610113e+16,63275615247134.875,433153182991755.9,1.7095055498894042e+16,1.0940110780733818e+17
24.133005521105144,1.2606980305060272e+16,2.2522140920095914e+17,2.3058733436944316e+16,5.8993275548222824e+16,65015694766558.805,445066605860559.94,1.7568919971353262e+16,1.1248341763875131e+17
24.715665631527248,1.2644863319224874e+16,2.291521216837796e+17,2.3128023202735664e+16,5.917054649473401e+16,66790735856116.82,457219464194035.8,1.8052494047451452e+16,1.1563218441958338e+17
25.309978944157795,1.2681724489717322e+16,2.3315301175719658e+17,2.3195443970965524e+16,5.934303582114759e+16,68601338230529.37,469615865750053.6,1.85459460736992e+16,1.1884864419768634e+17
25.91617852304095,1.2717581326207018e+16,2.3722564762121085e+17,2.32610277675669e+16,5.9510825461619256e+16,70448115600437.97,482260014072080.6,1.9049448051563532e+16,1.221340568845816e+17
26.53450209350177,1.2752451500996268e+16,2.4137162698566426e+17,2.33248069159361e+16,5.967399811133841e+16,72331696072259.78,495156211227201.8,1.95631757416205e+16,1.2548970680847358e+17
27.165192135371807,1.278635283576713e+16,2.4559257764543213e+17,2.338681401269214e+16,5.983263716451271e+16,74252722550917.61,508308860564142.1,2.0087308769273504e+16,1.2891690328007154e+17
27.808495978079243,1.2819303287486152e+16,2.4989015806345923e+17,2.3447081901895816e+16,5.9986826648411864e+16,76211853145130.64,521722469489148.0,2.0622030731985176e+16,1.3241698117104586e+17
28.464665897640828,1.285132093355459e+16,2.5426605796217088e+17,2.3505643647888984e+16,6.013665115388075e+16,78209761574906.89,535401652257273.1,2.1167529307921508e+16,1.3599130150509285e+17
29.133959215593645,1.2882423956282222e+16,2.5872199892378003e+17,2.3562532506896588e+16,6.028219576268791e+16,80247137580837.48,549351132776327.06,2.172399636586859e+16,1.396412520616875e+17
29.816638399905518,1.2912630626758564e+16,2.63259735000023e+17,2.36177818975263e+16,6.0423545972052856e+16,82324687334775.12,563575747420618.1,2.229162807626853e+16,1.4336824799266138e+17
30.51297116790363,1.29419592881954e+16,2.678810533318598e+17,2.3671425370301396e+16,6.056078761670086e+16,84443133851492.28,578080447851711.5,2.2870625023228836e+16,1.471737324517301e+17
31.223230591261704,1.29704283388191e+16,2.7258777477967245e+17,2.3723496576370084e+16,6.069400678880965e+16,86603217400956.12,592870303843700.1,2.3461192317383612e+16,1.510591772370454e+17
31.947695203086937,1.299805621439622e+16,2.7738175456450352e+17,2.3774029235544184e+16,6.082328975624119e+16,88805695920914.53,607950506110902.4,2.40635397095165e+16,1.550260834467735e+17
32.686649107148675,1.3024861370481644e+16,2.8226488292087098e+17,2.3823057103829984e+16,6.09487228794739e+16,91051345429560.6,623326369136364.9,2.4677881704886068e+16,1.5907598214763328e+17
33.44038208929165,1.3050862264480324e+16,2.8723908576169987e+17,2.387061394061871e+16,6.107039252766336e+16,93340960438103.58,639003334000009.4,2.5304437678215664e+16,1.6321043505628384e+17
34.20918973107749,1.3076077337614932e+16,2.9230632535590483e+17,2.3916733475704384e+16,6.1188384994262344e+16,95675354363134.61,654986971205644.1,2.594343198932348e+16,1.6743103523343104e+17
34.993373525699035,1.3100524996889218e+16,2.974686010191589e+17,2.396144937629408e+16,6.13027864126204e+16,98055359938724.17,671282983506402.6,2.6595094099372456e+16,1.7173940779053786e+17
35.793240996213015,1.3124223597132724e+16,3.0272794981837824e+17,2.4004795214167012e+16,6.141368267196483e+16,100481829628223.16,687897208728417.5,2.725965868771728e+16,1.7613721060903942e+17
36.60910581613728,1.3147191423208296e+16,3.0808644729045037e+17,2.4046804433131124e+16,6.152115933414249e+16,102955636035775.19,704835622592766.9,2.793736576932312e+16,1.8062613507201664e+17
