t(s),Total solute volume 1,Total retention volume 1,Total 1 volume 1,Total 2 volume 1,Total 3 volume 1,Total 4 volume 1,Total 5 volume 1,Total 6 volume 1
0.1,1012905215437994.5,1251976985692815.0,109237715628389.53,129834054626431.92,0.0,0.0,0.0,0.0
0.202,1271502251080083.8,2149312828904791.2,137126356926710.17,162980991501155.0,637458421484.4454,1359755733452.899,23060170681041.094,552645844560862.7
0.30604000000000003,1391834318089171.5,2997652225721230.0,150103682080130.12,178405140674321.4,1409212372144.3247,3006405750540.1826,50986914084606.586,1221906552670317.8
0.41216080000000005,1460976822381721.5,3836863289286945.0,157560420601296.38,187267818126641.3,2240577190687.394,4780730652308.987,81079674819377.05,1942957245514913.2
0.5204040160000001,1505610650828396.8,4679452232526773.0,162373997885455.3,192988976616977.0,3108970682662.2837,6634610449350.717,112522367245119.38,2696212658818808.5
0.6308120963200001,1536673970544138.5,5530878969968253.0,165724050870766.38,196970669021126.8,4005497772469.94,8549111771442.328,144993919832003.88,3473961750156302.5
0.7434283382464002,1559470083091994.0,6394052721449716.0,168182519110305.2,199892671859086.7,4926131277177.724,10515682787706.662,178349334197045.6,4272716299126404.0
0.8582969050113283,1576874503639816.5,7270760597653900.0,170059515246203.4,202123568299229.66,5868915661235.379,12530190826064.32,212518562982133.1,5090785340999210.0
0.9754628431115548,1590577497670327.0,8162228928375137.0,171537327551779.16,203880016356246.38,6832892279770.965,14590630709519.596,247467643376699.88,5927342920430805.0
1.094972099973786,1601635527329576.2,9069377572823346.0,172729891182464.6,205297433213880.9,7817628112592.679,16696119922267.303,283181655227977.6,6782019317834595.0
1.2168715419732616,1610741650486372.8,9992947672499756.0,173711949617077.22,206464654941888.1,8822988046028.203,18846413102136.2,319656486901913.8,7654703529404339.0
1.3412089728127268,1618368703965467.5,1.0933571097842842e+16,174534496388477.84,207442289704603.2,9849016269886.223,21041649207613.574,356894547302662.4,8545440395004137.0
1.4680331522689813,1624849918226834.2,1.1891810638619056e+16,175233469049598.97,208273050940260.7,10895870699990.926,23282211758435.926,394902395626041.25,9454373722317898.0
1.597393815314361,1630426641512843.5,1.2868184483795748e+16,175834896029050.3,208987874636100.3,11963784908373.793,25568647736887.113,433689366007278.06,1.0381713272965212e+16
1.729341691620648,1635277802330499.8,1.3863181784774988e+16,176358074040274.2,209609695825593.06,13053045112025.805,27901618603905.258,473266736844743.2,1.1327714812017964e+16
1.863928525453061,1639538756906514.8,1.4877272919276614e+16,176817600703088.2,210155864452834.0,14163975785952.121,30281869709790.555,513647212104440.4,1.2292667639613984e+16
2.001207095962122,1643313720760782.5,1.5910916480513082e+16,177224715238445.0,210639738850057.97,15296930409374.787,32710210655068.945,554844588346836.2,1.3276886576252534e+16
2.1412312378813647,1646684189609371.2,1.6964564174028384e+16,177588206628644.8,211071765127912.22,16452285370456.523,35187502390882.19,596873536063275.0,1.4280706688837852e+16
2.284055862638992,1649714778408767.2,1.8038664338408004e+16,177915043334564.12,211460225623409.56,17630435871781.99,37714648590161.31,639749453451742.2,1.530447975312755e+16
2.4297369798917723,1652457354805953.5,1.9133664537729628e+16,178210819071474.06,211811768725038.72,18831793136088.64,40292589795908.35,683488367299027.5,1.634857184489614e+16
2.578331719489608,1654954019712484.8,2.0250013513773748e+16,178480074251859.84,212131790922368.56,20056782476475.203,42922299417453.99,728106865211087.6,1.741336168178201e+16
2.7298983538794,1657239292462973.8,2.1388162687868416e+16,178726531645897.7,212424716899390.56,21305841953231.55,45604780982312.4,773622049144855.4,1.8499239474779788e+16
2.884496320956988,1659341736971342.5,2.2548567340347588e+16,178953271755806.44,212694207975018.94,22579421436164.938,48341066257545.01,820051503693482.0,1.960660613225825e+16
3.0421862473761276,1661285188425720.2,2.373168755561691e+16,179162865109914.84,212943319340690.12,23877981951982.867,51132213983959.45,867413274771942.5,2.0735872712032764e+16
3.2030299723236504,1663089690170495.2,2.493798899442989e+16,179357473301590.7,213174620149784.88,25201995235188.92,53979309049427.85,915725855756886.4,2.1887460050766508e+16
3.3670905717701234,1664772217397280.8,2.61679435372103e+16,179538927036374.66,213390286280247.1,26551943426369.73,56883461981830.58,965008179054355.4,2.3061798522033828e+16
3.5344323832055258,1666347242007407.2,2.7422029830085804e+16,179708787050105.4,213592172738583.72,27928318878666.84,59845808678208.31,1015279611680785.6,2.4259327889052068e+16
3.7051210308696363,1667827177757428.0,2.870073375682014e+16,179868392116061.2,213781870718563.56,29331624044661.57,62867510311106.766,1066559953856623.0,2.548049722801567e+16
3.879223451487029,1669222734190696.5,3.0004548853838624e+16,180018897215039.25,213960752968119.03,30762371423752.625,65949753369841.766,1118869439895898.6,2.672576490477527e+16
4.0568079205167695,1670543200374833.2,3.133397668125002e+16,180161304135293.34,214130010158782.03,32221083555567.945,69093749806077.47,1172228740872904.8,2.799559859234653e+16
4.237944078927105,1671796674118210.0,3.26895271596483e+16,180296486192600.94,214290680266621.2,33708293048800.2,72300737261320.02,1226658968686428.5,2.9290475320074336e+16
4.422702960505647,1672990248471903.8,3.4071718880193e+16,180425208343741.75,214443672478042.34,35224542637601.85,75571979359797.12,1282181681241521.2,3.06108815476604e+16
4.61115701971576,1674130164496275.2,3.548107939376435e+16,180548143661753.56,214589786771386.72,36770385259652.16,78908766054420.48,1338818888540420.0,3.195731325898044e+16
4.803380160110075,1675221937182050.8,3.691814548371781e+16,180665886916010.4,214729730057478.38,38346384151450.445,82312414016608.77,1396593059526654.2,3.333027607186754e+16
4.9994477633122765,1676270459857156.0,3.838346342579648e+16,180778965832075.2,214864129562484.6,39953112957447.016,85784267063017.92,1455527129564649.8,3.4730285360959704e+16
5.199436718578522,1677280091236867.2,3.987758923802306e+16,180887850479705.47,214993543985986.88,41591155850409.61,89325696613908.61,1515644508465983.2,3.615786639139017e+16
5.403425452950093,1678254728383525.2,4.140108892282395e+16,180992961141263.5,215118472852953.25,43261107661008.695,92938102179144.73,1576969088994544.8,3.76135544616115e+16
5.611493962009095,1679197868159798.2,4.295453870319973e+16,181094674939200.3,215239364390805.16,44963574015046.914,96622911868763.88,1639525255799361.8,3.9097895054026744e+16
5.823723841249277,1680112659233036.5,4.453852525440729e+16,181193331444514.4,215356622195333.38,46699171477092.53,100381582925794.72,1703337894735891.5,4.061144399239563e+16
6.040198318074262,1681001946279408.5,4.6153645932350136e+16,181289237443988.72,215470610896775.6,48468527699533.97,104215602279543.94,1768432402546200.5,4.215476760520475e+16
6.261002284435747,1681868307716531.0,4.780050899965519e+16,181382671009502.22,215581660996382.3,50272281576264.016,108126487118010.94,1834834696875739.5,4.372844289436279e+16
6.486222330124463,1682714088041507.0,4.9479733850243336e+16,181473884985554.7,215690073011500.06,52111083400359.766,112115785478420.42,1902571226610001.5,4.5333057708716e+16
6.715946776726952,1683541425651759.5,5.119195123306154e+16,181563109989632.38,215796121041645.94,53985595025234.57,116185076855127.3,1971668982519020.5,4.696921092197913e+16
6.950265712261491,1684352276867143.8,5.2937803475532904e+16,181650557002894.28,215900055847655.28,55896490028835.055,120335972824351.36,2042155508200979.0,4.863751261476102e+16
7.18927102650672,1685148436744473.5,5.4717944707188776e+16,181736419614934.9,216002107519688.1,57844453880521.74,124570117685369.48,2114058911319172.2,5.033858426042466e+16
7.433056447036854,1685931557173049.5,5.653304108387293e+16,181820875975312.62,216102487796709.47,59830184110331.33,128889189117917.67,2187407875128746.2,5.207305891457087e+16
7.681717575977592,1686703162656828.5,5.8383771012847224e+16,181904090495593.94,216201392089447.22,61854390480359.49,133294898855668.6,2262231670291457.0,5.384158140797781e+16
7.935351927497144,1687464664121317.5,6.027082537907383e+16,181986215338370.25,216299001250156.94,63917795158035.17,137788993375731.8,2338560166978258.0,5.564480854285198e+16
8.194058966047088,1688217371028222.8,6.219490777291284e+16,182067391723773.5,216395483125477.25,66021132891088.02,142373254604195.1,2416423847260586.0,5.748340929227948e+16
8.45794014536803,1688962502035508.8,6.415673471943036e+16,182147751079120.62,216490993922834.2,68165151184023.53,147049500637786.84,2495853817792500.0,5.935806500277855e+16
8.72709894827539,1689701194403418.8,6.615703590948938e+16,182227416053315.38,216585679416105.2,70350610475943.79,151819586481785.28,2576881822786342.0,6.126946959987252e+16
9.0016409272409,1690434512315988.5,6.81965544327663e+16,182306501414286.88,216679676012266.03,72578284319555.06,156685404804341.38,2659540257285635.5,6.321832979661425e+16
9.281673745785717,1691163454262079.8,7.0276047012814616e+16,182385114845008.2,216773111697494.62,74848959561217.72,161648886707419.75,2743862180739352.0,6.520536530500198e+16
9.567307220701432,1691888959598600.2,7.239628424427928e+16,182463357651310.28,216866106878442.16,77163436521895.72,166712002514589.62,2829881330882314.5,6.7231309050232136e+16
9.85865336511546,1692611914400651.2,7.455805083234906e+16,182541325392798.2,216958775132105.2,79522529178870.03,171876762575923.3,2917632137926909.5,6.929690738774178e+16
10.155826432417769,1693333156688454.5,7.67621458345179e+16,182619108446551.78,217051223875809.72,81927065348077.25,177145218090289.72,3007149739071797.0,7.140292032299701e+16
10.458942961066125,1694053481108167.0,7.900938290471694e+16,182696792511935.47,217143554967202.03,84377886866940.7,182519461945339.3,3098469993333627.5,7.355012173398382e+16
10.768121820287448,1694773643133151.5,8.130059053986352e+16,182774459063685.53,217235865242761.72,86875849777556.52,188001629575505.53,3191629496708101.0,7.573929959636264e+16
11.083484256693197,1695494362843099.5,8.363661232886827e+16,182852185759474.62,217328247002213.28,89421824510094.98,193593899838358.06,3286665597667156.0,7.79712562112479e+16
11.405153941827061,1696216328330852.5,8.60183072041266e+16,182930046807324.7,217420788445211.8,92016696066280.0,199298495909669.84,3383616412999162.0,8.024680843556806e+16
11.733257020663602,1696940198780145.8,8.84465496955182e+16,183008113297526.12,217513574065844.56,94661364202797.42,205117686197552.44,3482520843999539.0,8.256678791497491e+16
12.067922161076874,1697666607251874.8,9.092223018692432e+16,183086453503128.0,217606685009778.0,97356743614487.73,211053785276059.78,3583418593019324.5,8.493204131924966e+16
12.409280604298411,1698396163211816.5,9.344625517527142e+16,183165133152541.06,217700199398258.38,100103764117165.86,217109154838640.06,3686350180379454.0,8.734343058017346e+16
12.75746621638438,1699129454828440.2,9.601954753209731e+16,183244215677348.3,217794192622645.25,102903370829911.55,223286204671854.84,3791356961659003.5,8.980183313180821e+16
13.112615540712067,1699867051066077.2,9.864304676763312e+16,183323762438044.06,217888737612715.56,105756524356664.5,229587393649782.6,3898481145365604.0,9.23081421531442e+16
13.474867851526309,1700609503595524.0,1.0131770929738613e+17,183403832930085.4,217983905081561.2,108664200966952.19,236015230749542.2,4007765810996728.5,9.486326681306573e+16
13.844365208556836,1701357348541564.0,1.040445087112021e+17,183484484972353.97,218079763749589.53,111627392775573.66,242572276088376.1,4119254927500678.5,9.746813251757408e+16
14.221252512727972,1702111108084589.2,1.0682443604478203e+17,183565774879886.7,218176380549816.62,114647107921051.64,249261141982754.6,4232993372146411.0,1.0012368115921752e+17
14.605677562982532,1702871291931479.2,1.0965850005361718e+17,183647757622502.53,218273820816405.94,117724370742663.94,256084494029972.03,4349026949811509.0,1.0283087136866254e+17
14.997791114242183,1703638398669240.2,1.1254772748930762e+17,183730486970785.7,218372148458174.97,120860221955850.27,263045052212707.12,4467402412698002.5,1.0559067876834286e+17
15.397746936527026,1704412917013206.2,1.1549316337821498e+17,183814015630702.5,218471426118594.72,124055718825783.19,270145592027046.03,4588167480485865.0,1.0840409622811386e+17
15.805701875257567,1705195326960548.8,1.1849587130240205e+17,183898395368000.5,218571715323641.16,127311935338893.9,277388945634468.4,4711370860934297.0,1.1127213412284211e+17
16.221815912762718,1705986100858411.8,1.2155693368279867e+17,183983677123400.78,218673076618709.12,130629962372114.14,284778003038316.56,4837062270941322.0,1.1419582059184638e+17
16.64625223101797,1706785704395113.8,1.2467745206453456e+17,184069911119500.25,218775569695668.62,134010907859609.75,292315713285265.06,4965292458072130.0,1.171762018001072e+17
17.079177275638333,1707594597521981.5,1.2785854740436427e+17,184157146960181.9,218879253511021.62,137455896956752.44,300005085692338.5,5096113222567406.0,1.2021434220115445e+17
17.5207608211511,1708413235312462.8,1.3110136036011325e+17,184245433723271.12,218984186396024.94,140966072201076.12,307849191100029.5,5229577439842563.0,1.2331132480153789e+17
17.97117603757412,1709242068764619.0,1.3440705158205893e+17,184334820047077.8,219090426159550.53,144542593669955.8,315851163152071.0,5365739083489578.0,1.2646825142677594e+17
18.430599558325603,1710081545552335.2,1.3777680200615773e+17,184425354211414.06,219198030184380.25,148186639134725.72,324014199602444.44,5504653248793096.0,1.2968624298867926e+17
18.899211549492115,1710932110730188.8,1.4121181314902365e+17,184517084213609.4,219307055517552.94,151899404210955.47,332341563650218.0,5646376176772940.0,1.3296643975392827e+17
19.37719578048196,1711794207396299.2,1.4471330740455197e+17,184610057839998.6,219417558955327.28,155682102504584.4,340836585302800.0,5790965278765372.0,1.3631000161378758e+17
19.864739696091597,1712668277317149.2,1.482825283420787e+17,184704322733302.9,219529597123273.97,159535965753601.22,349502662768233.25,5938479161555674.0,1.3971810835482741e+17
20.36203449001343,1713554761517903.5,1.5192074100595683e+17,184799926456297.4,219643226551942.28,163462243964954.22,358343263877155.3,6088977653075248.0,1.4319195993051304e+17
20.869275179813698,1714454100841526.2,1.5562923221642355e+17,184896916552106.72,219758503748526.44,167462205546346.94,367361927535060.56,6242521828676242.0,1.4673277673352346e+17
21.38666068340997,1715366736479548.2,1.594093108716245e+17,184995340601445.34,219875485264897.7,171537137432590.94,376562265205513.56,6399174037997573.0,1.503417998686428e+17
21.91439389707817,1716293110477179.8,1.6326230825065034e+17,185095246277096.88,219994227762355.84,175688345206138.22,385947962424988.4,6558997932436097.0,1.5402029142606608e+17
22.452681775019734,1717233666215197.0,1.6718957831743296e+17,185196681395877.78,220114788073390.06,179917153211435.53,395522780350007.9,6722058493237275.0,1.5776953475494963e+17
23.00173541052013,1718188848870747.0,1.7119249802535187e+17,185299693968336.56,220237223260749.34,184224904662712.7,405290557337273.44,6888422060219980.0,1.6159083473703184e+17
23.561770118730532,1719159105859134.5,1.7527246762236214e+17,185404332246398.53,220361590674070.06,188612961744802.4,415255210557499.0,7058156361150219.0,1.6548551806013018e+17
24.133005521105144,1720144887258387.5,1.7943091095648778e+17,185510644769150.75,220487948004292.84,193082705706589.12,425420737643662.0,7231330541779389.0,1.6945493349132653e+17
24.715665631527248,1721146646218239.2,1.8366927578147104e+17,185618680406954.88,220616353336093.7,197635536946652.7,435791218374416.06,7408015196562301.0,1.735004521496262e+17
25.309978944157795,1722164839355171.8,1.8798903406239392e+17,185728488404043.56,220746865198512.38,202272875090676.12,446370816393399.7,7588282400071521.0,1.7762346777788032e+17
25.91617852304095,1723199927134770.0,1.9239168228105728e+17,185840118419762.16,220879542613967.66,206996159060156.16,457163780965221.2,7772205739123898.0,1.818253970137396e+17
26.53450209350177,1724252374242799.2,1.96878741740897e+17,185953620568584.1,221014445145820.56,211806847131953.84,468174448768881.2,7959860345636413.0,1.861076796594021e+17
27.165192135371807,1725322649946162.2,2.014517588712061e+17,186069045459039.84,221151632944640.9,216706416988201.7,479407245729437.25,8151322930228455.0,1.9047177894991027e+17
27.808495978079243,1726411228444775.0,2.0611230553042835e+17,186186444231666.7,221291166793311.9,221696365756067.1,490866688888709.56,8346671816587835.0,1.94919181819726e+17
28.464665897640828,1727518589215454.5,2.1086197930825456e+17,186305868596092.2,221433108151108.88,226778210036865.22,502557388315848.5,8545986976618883.0,1.9945139916732032e+17
29.133959215593645,1728645217348687.8,2.157024038262722e+17,186427370867356.94,221577519196867.53,231953485923983.3,514484049058605.44,8749350066390564.0,2.040699661174857e+17
29.816638399905518,1729791603879194.5,2.2063522903687542e+17,186551004001562.28,221724462871352.4,237223749009088.9,526651473136142.94,8956844462903657.0,2.0877644228107437e+17
30.51297116790363,1730958246111032.0,2.2566213152015613e+17,186676821630932.22,221874002918933.44,242590574376046.34,539064561574272.1,9168555301696022.0,2.1357241201184893e+17
31.223230591261704,1732145647938051.0,2.3078481477846176e+17,186804878098374.22,222026203928658.47,248055556581983.4,551728316483966.7,9384569515305622.0,2.1845948466012502e+17
31.947695203086937,1733354320160366.0,2.3600500952830634e+17,186935228491606.2,222181131374817.8,253620309624908.66,564647843184064.0,9604975872611158.0,2.2343929482285952e+17
32.686649107148675,1734584780797452.2,2.4132447398930253e+17,187067928676926.4,222338851657080.5,259286466897277.1,577828352369068.0,9829865019070986.0,2.2851350258983414e+17
33.44038208929165,1735837555398556.5,2.467449941697663e+17,187203035332688.0,222499432140279.6,265055681124891.25,591275162322947.1,1.0059329517880884e+16,2.33683793785566e+17
34.20918973107749,1737113177350924.8,2.5226838414863302e+17,187340605982540.44,222662941193922.22,270929624290491.03,604993701179885.4,1.029346389207225e+16,2.3895188020656326e+17
34.993373525699035,1738412188186396.5,2.5789648635330998e+17,187480699028494.78,222829448231488.0,276909987541389.8,618989509232935.5,1.0532364667572378e+16,2.4431949985351722e+17
35.793240996213015,1739735137886880.2,2.63631171833071e+17,187623373783866.78,222999023749585.6,282998481080491.06,633268241291517.8,1.0776130417248568e+16,2.497884171580302e+17
36.60910581613728,1741082585189159.5,2.694743405275832e+17,187768690506151.66,223171739367022.25,289196834040000.44,647835669088751.5,1.1024861805959802e+16,2.553604232034323e+17
37.44128793246003,1742455097889502.2,2.754279215301481e+17,187916710429871.44,223347667863848.7,295506794337144.75,662697683739608.8,1.1278661636637476e+16,2.6103733593925053e+17
38.29011369110923,1743853253148460.8,2.8149387334520646e+17,188067495799449.62,223526883220429.16,301930128511176.44,677860298250881.6,1.153763489742015e+16,2.6682100038885606e+17
39.15591596493141,1745277637796297.2,2.876741841396552e+17,188221109902147.84,223709460656587.9,308468621540966.4,693329650083980.5,1.180188880986525e+16,2.7271328884981014e+17
40.03903428423004,1746728848639383.0,2.939708719874964e+17,188377617101110.38,223895476670887.4,315124076642407.56,709112003771581.2,1.207153287826285e+16,2.7871610108640832e+17
40.93981496991464,1748207492767958.5,3.003859851073257e+17,188537082868555.62,224085009080074.75,321898315044922.7,725213753589146.5,1.2346678940075726e+16,2.848313645138995e+17
41.85861126931294,1749714187865579.5,3.069216020921458e+17,188699573819148.5,224278137058746.38,328793175746285.75,741641426282390.4,1.2627441217531378e+16,2.910610343738417e+17
