t(s),Total solute volume 1,Total retention volume 1,Total 1 volume 1,Total 2 volume 1,Total 3 volume 1,Total 4 volume 1,Total 5 volume 1,Total 6 volume 1
0.1,858476762157242.6,970941579421749.6,55300119698977.766,57164697565528.79,0.0,0.0,0.0,0.0
0.202,1293526497894916.0,1462985550036348.8,83324527134703.4,86134016244062.17,1174799.3739173093,2021163.8189069317,24840383.59701804,480726320.92402196
0.30604000000000003,1624839630185185.0,1837703168199512.5,104666579380326.73,108195667726278.33,2980847.811009869,5128349.855554406,63028216.70785769,1219770307.1915915
0.41216080000000005,1905078371858834.8,2154655611049769.0,122718595076031.67,126856351055686.02,5294906.706425939,9109534.13331247,111957651.85715826,2166697126.011519
0.5204040160000001,2153950790945228.2,2436132780004144.0,138750100171711.16,143428397350118.06,8062298.278505966,13870647.146616787,170472553.385768,3299131588.544087
0.6308120963200001,2381274654380215.0,2693238606657105.0,153393521440550.72,158565557192825.66,11253702.71917455,19361246.110506248,237952968.91774985,4605075596.91898
0.7434283382464002,2592755785235965.0,2932426398639357.5,167016408376714.22,172647772904293.0,14852365.285825135,25552505.603036672,314044628.1483622,6077672884.464194
0.8582969050113283,2792049278261580.0,3157830082593393.0,179854209610249.97,185918431838318.66,18848840.929459486,32428176.045337547,398547820.443998,7713058409.611648
0.9754628431115548,2981659763857050.0,3372282406181549.0,192068264815449.6,198544313629002.28,23238405.213658206,39980129.3591948,491362650.0123772,9509298861.776064
1.094972099973786,3163390714616449.5,3577823105448498.5,203774747492756.4,210645508849073.84,28019620.631385554,48205892.41018635,592458721.4097532,11465805977.964703
1.2168715419732616,3338591095478347.5,3775977867021606.5,215060553322975.2,222311843078666.03,33193475.218063805,57107165.04863772,701856925.966887,13582984052.20765
1.3412089728127268,3508300831208858.5,3967922852335468.0,225992670682117.7,233612563369887.47,38762833.062868364,66688874.75078827,819617823.1427252,15862005078.199154
1.4680331522689813,3673341547633463.5,4154587326267257.5,236624025879403.4,244602380571248.0,44732067.507951625,76958545.56241807,945833884.7189002,18304658650.240524
1.597393815314361,3834375787429729.5,4336720630389382.5,246997297634920.72,255325412419724.47,51106807.57662254,87925861.84537908,1080624133.1605375,20913248198.868088
1.729341691620648,3991947114451271.5,4514937541085585.0,257147500462213.44,265817854028372.9,57893757.86084145,99602358.40600173,1224130333.2351496,23690517286.894146
1.863928525453061,4146508132527323.0,4689749958899198.0,267103789542965.2,276109843616762.34,65100567.90469674,112001195.77805226,1376514230.1973457,26639596159.761883
2.001207095962122,4298440585223030.5,4861589641422354.0,276890755484414.0,286226800924278.8,72735736.02218543,125136994.74761921,1537955516.0684147,29763962386.792072
2.1412312378813647,4448070106770509.0,5030824886643042.0,286529374523580.0,296190409452806.94,80808537.74059616,139025713.24472046,1708650316.610818,33067411579.48765
2.284055862638992,4595677264196279.0,5197773021624160.0,296037719823139.44,306019351745671.6,89328972.28554754,153684554.27437478,1888810059.7837212,36554035492.67011
2.4297369798917723,4741505968258190.0,5362709915298593.0,305431503275036.94,315729869459479.75,98307722.57157701,169131897.0830772,2078660629.7659538,40228205652.223755
2.578331719489608,4885769979654210.0,5525877337028387.0,314724494610199.7,325336196610294.9,107756125.52722023,185387246.35032168,2278441797.3947864,44094568498.686844
2.7298983538794,5028658011576740.0,5687488727542410.0,323928850078954.56,334850899315436.1,117686150.30163144,202471193.7162337,2488406528.388927,48158007400.66073
2.884496320956988,5170337780918170.0,5847733780966102.0,333055373428779.0,344285145602436.3,128110383.05745463,220405393.08250794,2708821007.382312,52423679924.64922
3.0421862473761276,5310959261006109.0,6006782123608374.0,342113725425511.6,353648921973356.7,139042016.5867916,239212541.77378404,2939964188.505629,56896984658.077965
3.2030299723236504,5450657319588430.0,6164786297550868.0,351112593785516.1,362951209072048.1,150494844.19412002,258916370.25651658,3182127723.387567,61583565922.660164
3.3670905717701234,5589553878108200.0,6321884202797461.0,360059832268729.94,372200125467069.2,162483256.9750536,279541637.45727324,3435615903.6157,66489312660.93796
3.5344323832055258,5727759694087748.0,6478201113160023.0,368962575493724.56,381403046338011.9,175022243.96365556,301114131.0161933,3700745663.851297,71620358496.5357
3.7051210308696363,5865375843845269.0,6633851353219383.0,377827334449207.6,390566702207406.7,188127394.71824658,323660671.7357083,3977846636.5047526,76983082792.26688
3.879223451487029,6002494964766554.0,6788939703343031.0,386660076516890.25,399697261661751.4,201814904.00842017,347209121.64425164,4267261250.839814,82584112568.07468
4.0568079205167695,6139202303023450.0,6943562584662929.0,395466292961908.94,408800401117544.7,216101578.3368993,371788395.2167001,4569344870.874687,88430325169.81021
4.237944078927105,6275576602643689.0,7097809064621339.0,404251056203638.6,417881364023123.6,231004844.08469737,397428473.38758814,4884465967.606903,94528851602.27826
4.422702960505647,6411690864272545.0,7251761715138517.0,413019068692522.56,426945011383485.3,246542757.11078784,424160420.0667283,5213006321.992948,100887080457.48476
4.61115701971576,6547612996183371.0,7405497348913449.0,421774704845918.44,435995865110106.9,262734013.67123434,452016400.9248511,5555361255.8273,107512662382.8156
4.803380160110075,6683406375627781.0,7559087654319167.0,430522047208351.25,445038145400435.7,279597962.54949456,481029704.2630177,5911939888.230986,114413515044.84172
4.9994477633122765,6819130335140709.0,7712599745421893.0,439264917777613.75,454075803120216.6,297154618.31113005,511234763.8164768,6283165415.914984,121597828553.23933
5.199436718578522,6954840585686367.0,7866096640567488.0,448006905262366.5,463112547980153.06,315424675.6135174,542667183.3735942,6669475415.75131,129074071316.42484
5.403425452950093,7090589586373162.0,8019637680537509.0,456751388897909.25,472151873154683.56,334429524.51531696,575363763.1147969,7071322168.483189,136850996306.3019
5.611493962009095,7226426868747214.0,8173278895333970.0,465501559336051.94,481197076876204.0,354191266.7420948,609362527.5965134,7489173002.652714,144937647714.2726
5.823723841249277,7362399322295846.0,8327073327092569.0,474260437036264.44,490251281446323.0,374732732.87411916,644702755.3216621,7923510658.027205,153343367984.6065
6.040198318074262,7498551446680572.0,8481071315367296.0,483030888513653.56,499317450031679.9,396077500.4303584,681425009.8519858,8374833667.975576,162077805214.5522
6.261002284435747,7634925575316363.0,8635320750008069.0,491815640741186.44,508398401551767.0,418249912.82950324,719571172.4292616,8843656760.38852,171150920913.32266
6.486222330124463,7771562074178156.0,8789867296020376.0,500617293956103.0,517496823917147.6,441275099.2144854,759184476.082088,9330511276.857178,180572998114.43976
6.715946776726952,7908499519109979.0,8944754594111770.0,509438333081570.9,526615285836221.75,465178995.1318957,800309541.2034836,9835945609.92796,190354649837.90594
6.950265712261491,8045774854414604.0,9100024440066870.0,518281137942482.7,535756247375464.75,489988364.06184995,842992412.5916121,10360525658.339819,200506827900.38635
7.18927102650672,8183423535087641.0,9255716945624706.0,527147992427688.75,544922069430597.2,515730819.79751426,887280597.9523063,10904835300.226978,211040832073.07785
7.433056447036854,8321479654717028.0,9411870683143512.0,536041092728839.6,554115022243210.9,542434849.6766604,933223107.8674417,11469476884.337332,221968319588.23718
7.681717575977592,8459976060780270.0,9568522816013032.0,544962554767434.5,563337293078250.6,570129838.6704154,980870497.2380704,12055071739.376015,233301314996.48077
7.935351927497144,8598944458831275.0,9725709216501198.0,553914420906189.4,572590993161654.6,598846094.3368772,1030274908.2154839,12662260701.635822,245052220377.99063
8.194058966047088,8738415506864683.0,9883464572491834.0,562898666027650.6,581878163963941.9,628614872.649463,1081490114.6372168,13291704661.123417,257233825911.66748
8.45794014536803,8878418900973494.0,1.0041822484375404e+16,571917203051972.2,591200782904022.6,659468404.7118884,1134571567.9884279,13944085126.43309,269859320807.10876
8.72709894827539,9018983453269710.0,1.0200815553189624e+16,580971887956295.2,600560768537820.5,691439924.3735341,1189576444.9123452,14620104808.6584,282942304605.0209
9.0016409272409,9160137162913148.0,1.0360475460965756e+16,590064524350171.4,609959985287973.2,724563696.7605685,1246563696.2962208,15320488224.667511,296496798852.3714
9.281673745785717,9301907280986844.0,1.0520833044115918e+16,599196867654627.8,619400247763796.8,758875047.7398888,1305594097.9621139,16045982320.101557,310537259159.25934
9.567307220701432,9444320369866662.0,1.0681918360593252e+16,608370628926538.2,628883324714610.6,794410394.3342414,1366730302.994142,16797357112.486456,325078587645.01385
9.85865336511546,9587402357653328.0,1.084376075146889e+16,617587478364956.8,638410942654291.0,831207276.108449,1430036895.7364376,17575406354.876877,340136145781.67114
10.155826432417769,9731178588168532.0,1.100638889749138e+16,626849048531693.5,647984789190442.1,869304387.5477933,1495580447.498085,18380948220.480137,355725767643.4648
10.458942961066125,9875673866956766.0,1.11698308711297e+16,636156937314586.6,657606516087580.5,908741611.4510345,1563429574.003636,19214826008.732826,371863773571.49457
10.768121820287448,1.0020912503684574e+16,1.1334114184541946e+16,645512710658731.6,667277742090447.2,949560053.3616275,1633654994.6297581,20077908873.330624,388566984263.24316
11.083484256693197,1.0166918351284508e+16,1.1499265833862614e+16,654917905087988.2,677000055530543.4,991802077.0619148,1706329593.4707441,20971092572.733406,405852735297.0717
11.405153941827061,1.0313714842152234e+16,1.1665312340157534e+16,664374030036673.0,686775016736433.0,1035511341.1562445,1781528482.2773798,21895300243.6956,423738892102.31067
11.733257020663602,1.0461325021671512e+16,1.1832279787357282e+16,673882570009130.2,696604160266136.9,1080732836.7700477,1859329065.3157773,22851483198.392605,442243865386.00305
12.067922161076874,1.0609771579312726e+16,1.200019385744644e+16,683444986582986.2,706488996977927.6,1127512926.3930104,1939811106.194527,23840621745.738377,461386627027.8233
12.409280604298411,1.0759076877523754e+16,1.2169079863156786e+16,693062720270208.6,716431015954139.0,1175899383.8955963,2023056796.7105656,24863726037.513588,481186726455.14264
12.75746621638438,1.0909262978610402e+16,1.2338962778386866e+16,702737192248638.1,726431686291076.8,1225941435.7492275,2109150827.765847,25921836939.943825,501664307510.63763
13.112615540712067,1.1060351669782136e+16,1.2509867266547296e+16,712469805975356.9,736492458766795.0,1277689803.4816153,2198180462.4089265,27016026931.393757,522840125825.30676
13.474867851526309,1.1212364486521588e+16,1.2681817707010992e+16,722261948692077.2,746614767397236.0,1331196747.3995337,2290235611.057313,28147401026.86309,544735566710.18024
13.844365208556836,1.1365322734421604e+16,1.285483821983003e+16,732114992831793.4,756800030890309.0,1386516111.6128988,2385408908.9583745,29317097729.99456,567372663580.4712
14.221252512727972,1.1519247509617278e+16,1.3028952688864792e+16,742030297334957.8,767049654006451.5,1443703370.3945496,2483795795.948401,30526290013.327576,590774116926.3396
14.605677562982532,1.1674159717930294e+16,1.3204184783456796e+16,752009208882680.5,777365028833403.4,1502815675.9116616,2585494598.571478,31776186327.55252,614963313844.9152
14.997791114242183,1.1830080092830358e+16,1.3380557978764658e+16,762053063053762.2,787747535982247.6,1563911907.3656063,2690606614.621387,33068031640.54616,639964348148.6537
15.397746936527026,1.1987029212309486e+16,1.3558095574870678e+16,772163185411653.6,798198545711040.1,1627052721.5782466,2799236200.1721096,34403108506.99143,665802041065.5802
15.805701875257567,1.21450275147553e+16,1.3736820714756232e+16,782340892526976.5,808719418981775.6,1692300605.0637858,2911490859.1641145,35782738169.408226,692501962547.4099
16.221815912762718,1.230409531390196e+16,1.3916756401234702e+16,792587492940603.4,819311508455974.5,1759719927.6264243,3027481335.615698,37208281691.44627,720090453202.013
16.64625223101797,1.2464252812930622e+16,1.4097925512922842e+16,802904288071961.6,829976159433579.4,1829376997.525274,3147321708.5306225,38681141124.31652,748594646867.1987
17.079177275638333,1.262552011778382e+16,1.4280350819324282e+16,813292573076709.5,840714710739570.5,1901340118.2490387,3271129489.5753818,40202760707.26039,778042493843.1848
17.5207608211511,1.2787917249753726e+16,1.4464054995091786e+16,823753637657607.1,851528495562172.5,1975679646.944275,3399025723.6012735,41774628102.98259,808462784801.68
17.97117603757412,1.2951464157397196e+16,1.464906063352976e+16,834288766832062.8,862418842246290.1,2052468054.5421572,3531135092.08862,43398275668.99748,839885175389.9828
18.430599558325603,1.3116180727828022e+16,1.4835390259392262e+16,844899241659535.8,873387075045405.0,2131779987.629878,3667586019.5925727,45075281765.86399,872340211548.902
18.899211549492115,1.3282086797429726e+16,1.5023066341027076e+16,855586339931609.1,884434514834960.6,2213692332.114002,3808510783.271856,46807272103.31157,905859355563.9208
19.37719578048196,1.3449202162030424e+16,1.5212111301911626e+16,866351336827432.5,895562479789866.2,2298284278.7243414,3954045625.5839906,48595921125.280045,940475012869.4287
19.864739696091597,1.361754658657589e+16,1.5402547531622668e+16,877195505536818.4,906772286028622.4,2385637390.408047,4104330870.2324963,50442953434.92759,976220559626.321
20.36203449001343,1.3787139814333832e+16,1.5594397396276268e+16,888120117853151.8,918065248226222.5,2475835671.6646743,4259511041.4534955,52350145260.68013,1013130371093.8066
20.869275179813698,1.3958001575659208e+16,1.5787683248472456e+16,899126444738021.0,929442680197815.0,2568965639.8744674,4419734986.731419,54319325964.42205,1051239850816.6675
21.38666068340997,1.4130151596346128e+16,1.5982427436772836e+16,910215756859231.2,940905895454850.4,2665116398.6726627,4585156003.034844,56352379592.95099,1090585460649.6571
21.91439389707817,1.43036096055893e+16,1.6178652314737952e+16,921389325103623.2,952456207735212.0,2764379713.42412,4755931966.665775,58451246473.840004,1131204751641.1982
22.452681775019734,1.4478395343573626e+16,1.6376380249544452e+16,932648421066001.6,964094931508606.8,2866850088.853227,4932225466.816903,60617924856.8703,1173136395798.8281
23.00173541052013,1.4654528568707672e+16,1.6575633630201132e+16,943994317515071.1,975823382458225.5,2972624848.8848863,5114203942.933011,62854472602.21647,1216420218759.2522
23.561770118730532,1.4832029064512716e+16,1.6776434875375786e+16,955428288837216.5,987642877939481.6,3081804218.7532415,5302039825.973666,65163008916.57673,1261097233386.1099
24.133005521105144,1.5010916646174596e+16,1.6978806440841962e+16,966951611458531.1,999554737416270.9,3194491409.4349566,5495910683.675431,67545716138.456184,1307209674318.7314
24.715665631527248,1.5191211166761722e+16,1.7182770826549294e+16,978565564245387.4,1011560282875039.2,3310792704.464477,5695999369.91184,70004841573.81096,1354801033495.2876
25.309978944157795,1.5372932523107932e+16,1.738835058331559e+16,990271428883365.0,1023660839216503.5,3430817549.188458,5902494178.249993,72542699383.2661,1403916096673.7795
25.91617852304095,1.555610066135308e+16,1.7595568319132982e+16,1002070490234170.8,1035857734624591.9,3554678642.516244,6115588999.801488,75161672522.10838,1454600980974.0647
26.53450209350177,1.5740735582129386e+16,1.7804446705074586e+16,1013964036669718.6,1048152300911793.0,3682492031.2227097,6335483485.464234,77864214734.24341,1506903173463.93
27.165192135371807,1.5926857345374548e+16,1.8015008480780244e+16,1025953360382184.5,1060545873839662.1,3814377206.858361,6562383212.650218,80652852601.28024,1560871570811.6775
27.808495978079243,1.6114486074746886e+16,1.822727645949284e+16,1038039757668395.6,1073039793412800.6,3950457205.320081,6796499856.590546,83530187647.8692,1616556520026.9956
28.464665897640828,1.630364196160893e+16,1.8441273532608372e+16,1050224529186450.5,1085635404144135.6,4090858709.1334996,7038051366.305787,86498898504.37305,1674009860310.9631
29.133959215593645,1.6494345268539492e+16,1.8657022673693744e+16,1062508980181965.2,1098334055288779.0,4235712152.495093,7287262145.323987,89561743127.88469,1733284966034.826
29.816638399905518,1.6686616332324466e+16,1.887454694191537e+16,1074894420680706.1,1111137101043164.1,4385151829.118039,7544363237.222811,92721561082.52846,1794436790865.5376
30.51297116790363,1.6880475566367464e+16,1.90938694848144e+16,1087382165643896.0,1124045900705598.9,4539316002.92183,7809592516.063653,95981275879.88187,1857521913054.389
31.223230591261704,1.7075943462452586e+16,1.931501354034914e+16,1099973535081756.2,1137061818793604.5,4698347021.599296,8083194881.776601,99343897380.23923,1922598581902.4426
31.947695203086937,1.7273040591779872e+16,1.953800243811652e+16,1112669854120201.4,1150186225112892.8,4862391433.088887,8365422460.543475,102812524255.2942,1989726765414.2046
32.686649107148675,1.7471787605183824e+16,1.976285959965125e+16,1125472453014930.1,1163420494771916.0,5031600104.97168,8656534810.21258,106390346512.66457,2058968199147.3289
33.44038208929165,1.7672205232435586e+16,1.998960853768924e+16,1138382667106456.0,1176766008135375.8,5206128346.804035,8956799130.76433,110080648082.47943,2130386436262.9714
34.20918973107749,1.787431428051511e+16,2.0218272854267892e+16,1151401836708828.5,1190224150709200.8,5386136035.386449,9266490479.828152,113886809466.04826,2204046898776.8296
34.993373525699035,1.8078135630731676e+16,2.044887623752481e+16,1164531306924125.0,1203796312948779.0,5571787742.957586,9585891993.232176,117812310446.37491,2280016930006.4224
35.793240996213015,1.828369023455754e+16,2.068144245704216e+16,1177772427374071.0,1217483889981541.2,5763252868.289635,9915295110.544218,121860732860.0082,2358365848204.751
36.60910581613728,1.8490999108029212e+16,2.0915995357573176e+16,1191126551839418.0,1231288281234149.0,5960705770.646419,10254999805.538116,126035763429.42365,2439165001364.624
37.44128793246003,1.870008332456184e+16,2.1152558850973428e+16,1204595037797023.8,1245210889954005.2,6164325906.549973,10605314821.49193,130341196654.77797,2522487823171.3296
38.29011369110923,1.8910964006009376e+16,2.1391156906151104e+16,1218179245844021.5,1259253122613970.0,6374297969.283888,10966557911.194376,134780937763.52676,2608409890074.3374
39.15591596493141,1.9123662311798468e+16,2.163181353683836e+16,1231880538997827.8,1273416388188796.8,6590812031.042717,11339056081.503616,139359005715.98074,2697008979440.836
40.03903428423004,1.9338199425952816e+16,2.1874552786978824e+16,1245700281860336.8,1287702097291125.0,6814063687.616151,11723145842.267365,144079536264.45834,2788365128745.682
40.93981496991464,1.9554596541821876e+16,2.2119398713519036e+16,1259639839634149.0,1302111661154543.2,7044254205.475354,12119173459.375067,148946785063.21667,2882560695743.342
41.85861126931294,1.977287484432038e+16,2.23663753663862e+16,1273700576978533.2,1316646490450987.0,7281590671.104904,12527495211.674257,153965130825.86237,2979680419557.823
42.7957834946992,1.999305548948511e+16,2.261550676543202e+16,1287883856692541.5,1331307993929435.5,7526286142.399967,12948477651.439602,159139078526.4239,3079811482616.85
43.751699164593184,2.0215159581153576e+16,2.286681687412294e+16,1302191038212717.0,1346097576862977.2,7778559801.922388,13382497868.039913,164473262639.71716,3183043573345.679
44.72673314788505,2.0439208144571424e+16,2.3120329569756576e+16,1316623475912980.5,1361016639291364.2,8038637111.782346,13829943754.402428,169972450416.0828,3289468949525.283
