t(s),Total solute volume 1,Total retention volume 1,Total 1 volume 1,Total 2 volume 1,Total 3 volume 1,Total 4 volume 1,Total 5 volume 1,Total 6 volume 1
0.1,1301436301972856.8,2401541677724917.5,422763850992510.6,677341524759550.8,0.0,0.0,0.0,-2.162416271574588e-76
0.202,1954772108789070.2,3612106016107747.5,634996123110650.6,1017374803349430.5,1191656497.2987628,4022737040.616246,135168585114.91043,4822597879941.918
0.30604000000000003,2452238880315970.0,4537750318660778.0,796595254745758.1,1276284877925935.0,3019710360.622918,10193873920.1411,342653162252.1516,12275438926580.908
0.41216080000000005,2872157431690727.5,5322449338346592.0,933003306049191.1,1494834430599340.0,5358380123.573993,18088763376.581997,608120790262.4884,21822602073568.457
0.5204040160000001,3244194038650731.5,6020704999886986.0,1053857191441322.5,1688463488035746.0,8151103206.7357,27516456596.271317,925142963580.3038,33229471235798.297
0.6308120963200001,3583167830757224.0,6659732163884358.0,1163970817434360.0,1864884771324984.0,11367013289.976257,38372753406.4773,1290213192498.6665,46368791408596.445
0.7434283382464002,3897700797975184.0,7255364206788008.0,1266144986386752.5,2028585655952243.5,14987965382.05804,50596399241.8029,1701270499866.9294,61165911609335.49
0.8582969050113283,4193318373864523.0,7817751700438352.0,1362174602641385.5,2182441892672955.5,19003194613.80212,64151053757.48413,2157092263384.1875,77576584747736.94
0.9754628431115548,4473806620612880.5,8353855620792866.0,1453289546054969.0,2328423964136659.5,23406680290.205772,79016392206.84454,2656994702608.4834,95576072213252.55
1.094972099973786,4741890478678387.0,8868692721755384.0,1540374997378762.5,2467950084719159.0,28195683380.70521,95183168217.97653,3200666735506.8613,115153115391969.62
1.2168715419732616,4999606447781365.0,9366019514717924.0,1624092501471111.8,2602080164975919.5,33369865607.398052,112650239970.02116,3788069918527.87,136306310465426.67
1.3412089728127268,5248522544290075.0,9848735771874738.0,1704951419150827.2,2731630290012882.5,38930725621.14251,131422666813.35814,4419374409229.2295,159041790619286.28
1.4680331522689813,5489875590576744.0,1.0319136268837746e+16,1783353524830781.0,2857244172697463.5,44881220929.86224,151510432961.54837,5094916028752.124,183371673050105.88
1.597393815314361,5724660852632725.0,1.0779075082489278e+16,1859622124765863.0,2979439806185128.0,51225504936.589516,172927559775.96518,5815166398721.497,209312979442128.03
1.729341691620648,5953692774590859.0,1.1230076869514476e+16,1934021786302477.8,3098641073627853.0,57968738617.38359,195691470022.8045,6580711555414.506,236886863229230.72
1.863928525453061,6177647427255520.0,1.1673414614082592e+16,2006772127031854.5,3215199840809430.0,65116952439.90288,219822521734.43613,7392236269785.608,266118043241825.5
2.001207095962122,6397092969738390.0,1.2110165403501144e+16,2078057710071831.0,3329411810117411.5,72676943177.45938,245343659872.18478,8250512330451.297,297034380640013.9
2.1412312378813647,6612512011603030.0,1.2541251362994302e+16,2148035308276887.5,3441528159077976.5,80656195618.15166,272280152030.79028,9156389653845.03,329666558034917.75
2.284055862638992,6824318356967774.0,1.2967470300237632e+16,2216839343460699.0,3551764254941613.0,89062822450.80121,300659385504.7294,10110789458546.963,364047833201047.56
2.4297369798917723,7032869761616439.0,1.338951904985423e+16,2284586030467876.0,3660306294210789.0,97905517694.25632,330510710074.68787,11114698977584.424,400213848353784.75
2.578331719489608,7238477803045922.0,1.3808011533765044e+16,2351376583400431.5,3767316439575337.5,107193520400.3537,361865315476.19525,12169167337382.963,438202481570089.94
2.7298983538794,7441415622200245.0,1.4223492927574522e+16,2417299730474114.5,3872936849152124.0,116936586276.07628,394756135602.13916,13275302335992.254,478053730690187.4
2.884496320956988,7641924070944926.0,1.4636450911197134e+16,2482433710989059.5,3977292875981198.0,127144965498.78525,429217773612.08673,14434267924570.264,519809622618258.06
3.0421862473761276,7840216648031475.0,1.5047324704585432e+16,2546847878748541.0,4080495636983004.0,137829385438.5853,465286443607.2718,15647282246097.713,563514142747256.6
3.2030299723236504,8036483502362588.0,1.5456512398949858e+16,2610604002495946.0,4182644096485811.5,149001037315.8569,502999925590.0934,16915616120952.139,609213180521650.8
3.3670905717701234,8230894709672562.0,1.5864376960672636e+16,2673757330324974.5,4283826771596989.5,160671566049.65045,542397531195.43774,18240591894820.793,656954488086048.2
3.5344323832055258,8423602977053263.0,1.6271251190453802e+16,2736357468228837.5,4384123139792400.5,172853062720.12167,583520078246.622,19623582583455.7,706787649654887.4
3.7051210308696363,8614745892460378.0,1.667744185193277e+16,2798449110839057.5,4483604809687776.0,185558059193.12253,626409872610.4481,21066011262957.156,758764059750797.1
3.879223451487029,8804447809052542.0,1.7083233134082104e+16,2860072653541818.5,4582336501756094.0,198799524549.35596,671110696144.2014,22569350664982.14,812936908845983.8
4.0568079205167695,8992821434005830.0,1.7488889574681698e+16,2921264708594952.0,4680376875237318.0,212590863032.5116,717667799770.5448,24135122944449.96,869361175236349.0
4.237944078927105,9179969176302996.0,1.789465854447045e+16,2982058542949299.0,4777779229604609.0,226945913286.34525,766127900903.7104,25764899593625.605,928093622205719.9
4.422702960505647,9365984296525768.0,1.8300772370589252e+16,3042484451751861.0,4874592102981900.0,241878948693.93063,816539184596.5038,27460301481373.242,989192799715041.0
4.61115701971576,9550951892905180.0,1.8707450161881616e+16,3102570078658432.0,4970859785340552.0,257404678666.30457,868951307892.3867,29222999000233.453,1052719049990656.6
4.803380160110075,9734949751109820.0,1.9114899386230908e+16,3162340691882306.0,5066622760777734.0,273538250754.675,923415406957.8073,31054712307036.227,1118734516496298.9
4.9994477633122765,9918049079978256.0,1.952331724047101e+16,3221819423192520.5,5161918090433383.0,290295253481.8525,979984106642.603,32957211645203.535,1187303155861517.0
5.199436718578522,1.010031515125853e+16,1.993289184583626e+16,3281027475729504.0,5256779745447214.0,307691719805.8738,1038711532174.6537,34932317738860.234,1258490752410159.8
5.403425452950093,1.0281807858144698e+16,2.0343803295934084e+16,3339984305442288.5,5351238897652841.0,325744131142.78656,1099653322742.2417,36981902250460.07,1332364934989871.0
5.611493962009095,1.0462582204788662e+16,2.0756224579454092e+16,3398707780103632.0,5445324174347832.0,344469421886.9601,1162866646756.0732,39107888294931.11,1408995195850382.5
5.823723841249277,1.0642688736875632e+16,2.117032239600881e+16,3457214319179737.0,5539061882389418.0,363884984376.65894,1228410218614.512,41312251004405.6,1488452911356607.2
6.040198318074262,1.0822173921660612e+16,2.1586257880414844e+16,3515519017283028.5,5632476205987473.0,384008674260.30634,1296344316821.5752,43597018138472.51,1570811364354157.8
6.261002284435747,1.100108048449483e+16,2.2004187248223496e+16,3573635753490665.0,5725589381851804.0,404858816225.25574,1366730803328.7922,45964270735621.516,1656145768031054.0
6.486222330124463,1.1179447707750776e+16,2.24242623732666e+16,3631577288448555.0,5818421854769873.0,426454210056.21643,1439633143990.0183,48416143802144.88,1744533291141179.0
6.715946776726952,1.135731169713643e+16,2.284663130630594e+16,3689355350882026.0,5910992416211912.0,448814136994.92426,1515116430033.3154,50954827035273.89,1836053084473290.2
6.950265712261491,1.153470561963236e+16,2.3271438742496836e+16,3746980714888209.0,6003318328166920.0,471958366376.4024,1593247400466.656,53582565577750.44,1930786308464719.0
7.18927102650672,1.171165991665695e+16,2.3698826444225564e+16,3804463269181546.0,6095415434085985.0,495907162520.3273,1674094465344.9424,56301660801394.52,2028816161871839.2
7.433056447036854,1.1888202495542742e+16,2.4128933624933628e+16,3861812079293712.5,6187298258537505.0,520681291858.68024,1757727729834.8237,59114471117532.39,2130227911420430.5
7.681717575977592,1.2064358901969622e+16,2.4561897298738524e+16,3919035443587529.0,6278980096951242.0,546302030283.21246,1844219019021.6335,62023412812412.75,2235108922368391.2
7.935351927497144,1.2240152475633628e+16,2.499785259999736e+16,3976140943825057.0,6370473096637251.0,572791170698.153,1933641903409.387,65030960905958.97,2343548689921369.0
8.194058966047088,1.2415604491120898e+16,2.543693307639215e+16,4033135490929644.0,6461788330104685.0,600171030765.3325,2026071725070.4497,68139650032402.27,2455638871448697.0
8.45794014536803,1.259073428569407e+16,2.587927095863973e+16,4090025366496621.0,6552935861569158.0,628464460830.3418,2121585624406.4937,71352075341500.06,2571473319453130.0
8.72709894827539,1.276555937547686e+16,2.6324997409525424e+16,4146816260535088.5,6643924807421734.0,657694852019.6278,2220262567486.636,74670893419197.53,2691148115253026.5
9.0016409272409,1.294009556133174e+16,2.6774242754612584e+16,4203513305861753.5,6734763391333813.0,687886144499.5483,2322183373932.492,78098823226708.28,2814761603340114.5
9.281673745785717,1.3114357025565282e+16,2.7227136696686824e+16,4260121109515014.0,6825458994588043.0,719062835889.3585,2427430745323.0503,81638647057109.98,2942414426380154.0
9.567307220701432,1.3288356420455134e+16,2.7683808515740096e+16,4316643781512453.0,6916018202152801.0,751249989821.0571,2536089294095.43,85293211508641.73,3074209560827171.5
9.85865336511546,1.3462104949473974e+16,2.8144387256082524e+16,4373084961235965.0,7006446844955780.0,784473244639.6716,2648245572919.9824,89065428473986.25,3210252353125253.0
10.155826432417769,1.3635612441982218e+16,2.8609001901981984e+16,4429447841695195.5,7096750038758337.0,818758822238.3992,2763988104530.698,92958276144891.73,3350650556474570.0
10.458942961066125,1.3808887422071558e+16,2.9077781543069744e+16,4485735191891018.5,7186932219985563.0,854133537023.5146,2883407411994.055,96974800031564.11,3495514368141057.0
10.768121820287448,1.3981937172164506e+16,2.955085553060909e+16,4541949377475423.0,7276997178827141.0,890624805004.6761,3006596049401.121,101118113996325.98,3644956467291293.0
11.083484256693197,1.4154767791907042e+16,3.0028353625601452e+16,4598092379882444.0,7366948089888434.0,928260653006.6191,3133648632969.9214,105391401301097.27,3799092053336456.5
11.405153941827061,1.432738425283235e+16,3.0510406139598256e+16,4654165814085400.0,7456787540640513.0,967069727998.928,3264661872546.349,109797915668306.89,3958038884771120.5
11.733257020663602,1.4499790449223052e+16,3.0997144068993544e+16,4710170945119103.0,7546517557891927.0,1007081306540.8252,3399734603493.7695,114340982354901.4,4121917318494551.0
12.067922161076874,1.467198924555251e+16,3.1488699223489504e+16,4766108703490966.0,7636139632479754.0,1048325304338.5083,3538967818962.674,119023999239163.67,4290850349603828.0
12.409280604298411,1.484398252084787e+16,3.1985204349357216e+16,4821979699592036.0,7725654742358664.0,1090832285912.9158,3682464702533.3657,123850437920098.75,4464963651650060.5
12.75746621638438,1.501577121028055e+16,3.2486793248049804e+16,4877784237207414.0,7815063374246912.0,1134633474376.2,3830330661225.859,128823844829195.4,4644385617350171.0
13.112615540712067,1.5187355344260086e+16,3.2993600890672188e+16,4933522326215682.0,7904365543973243.0,1179760761315.5652,3982673358872.5347,133947842354408.98,4829247399748580.0
13.474867851526309,1.5358734085279924e+16,3.350576352875872e+16,4989193694558010.0,7993560815653209.0,1226246716783.5955,4139602749850.3584,139226129976262.84,5019682953824639.0
13.844365208556836,1.5529905762737872e+16,3.4023418801770532e+16,5044797799549371.0,8082648319811929.0,1274124599394.3845,4301231113170.7383,144662485415995.3,5215829078542770.0
14.221252512727972,1.5700867905934008e+16,3.454670584168347e+16,5100333838597785.0,8171626770558054.0,1323428366525.3652,4467673086926.318,150260765795734.72,5417825459344461.0
14.605677562982532,1.5871617275428488e+16,3.5075765375003444e+16,5155800759390613.0,8260494481904115.0,1374192684624.9175,4639045703095.258,156024908810711.44,5625814711081804.0
14.997791114242183,1.6042149892924506e+16,3.561073982251641e+16,5211197269601920.0,8349249383319308.0,1426452939626.342,4815468422704.657,161958933913576.4,5839942421394757.0
15.397746936527026,1.6212461069825796e+16,3.615177339705207e+16,5266521846169236.0,8437889034592482.0,1480245247468.9956,4997063171356.393,168066943510914.8,6060357194534746.0
15.805701875257567,1.638254543460547e+16,3.669901219951747e+16,5321772744184075.0,8526410640076372.0,1535606464727.965,5183954375119.305,174353124172103.22,6287210695639637.0
16.221815912762718,1.6552396959108102e+16,3.725260431343374e+16,5376948005436065.0,8614811062376818.0,1592574199353.7964,5376268996793.49,180821747850695.06,6520657695465922.0
16.64625223101797,1.6722008983898166e+16,3.781269989818929e+16,5432045466647272.0,8703086835545439.0,1651186821524.3723,5574136572553.39,187477173118554.7,6760856115585809.0
17.079177275638333,1.6891374242755558e+16,3.837945128120855e+16,5487062767429335.0,8791234177828520.0,1711483474611.2952,5777689248977.698,194323846413022.66,7007967074058570.0
17.5207608211511,1.7060484886410928e+16,3.895301304921567e+16,5541997357993828.0,8879249004020206.0,1773504086263.5054,5987061820475.714,201366303297413.3,7262154931586522.0
17.97117603757412,1.7229332505604272e+16,3.953354213876092e+16,5596846506642690.0,8967126937463569.0,1837289379611.4495,6202391767120.574,208609169735212.0,7523587338168411.0
18.430599558325603,1.7397908153543264e+16,4.012119792616563e+16,5651607307063616.0,9054863321739114.0,1902880884595.2249,6423819292901.751,216057163378381.84,7792435280263838.0
18.899211549492115,1.756620236782955e+16,4.071614231702723e+16,5706276685452754.0,9142453232076586.0,1970320949420.7693,6651487364410.01,223715094870214.12,8068873128484384.0
19.37719578048196,1.7734205191916378e+16,4.13185398354184e+16,5760851407485119.0,9229891486522624.0,2039652752148.5,6885541749969.987,231587869163245.53,8353078685828928.0
19.864739696091597,1.7901906196153466e+16,4.192855771290437e+16,5815328085150738.0,9317172656893708.0,2110920312419.2139,7126131059236.502,239680486852767.06,8645233236482017.0
20.36203449001343,1.806929449846986e+16,4.2546365977493256e+16,5869703183473567.0,9404291079540838.0,2184168503322.466,7373406783272.311,247998045526533.47,8945521595195874.0
20.869275179813698,1.8236358784741624e+16,4.31721375426279e+16,5923973027127638.0,9491240865949922.0,2259443063413.1904,7627523335126.843,256545741131311.44,9254132157278884.0
21.38666068340997,1.840308732888488e+16,4.38060482963199e+16,5978133806964237.0,9578015913199266.0,2336790608882.6367,7888638090936.205,265328869356964.56,9571256949214678.0
21.91439389707817,1.8569468012711292e+16,4.444827719052072e+16,6032181586461823.0,9664609914293656.0,2416258645890.201,8156911431566.906,274352827038819.53,9897091679937790.0
22.452681775019734,1.8735488345578304e+16,4.509900633082031e+16,6086112308109371.0,9751016368391472.0,2497895583063.227,8432506784827.19,283623113579108.56,1.0231835792794094e+16
23.00173541052013,1.8901135483864956e+16,4.575842106655497e+16,6139921799732811.0,9837228590940744.0,2581750744172.1616,8715590668270.7295,293145332388337.2,1.0575692518215736e+16
23.561770118730532,1.906639625029608e+16,4.642671008140879e+16,6193605780772545.0,9923239723736912.0,2667874380989.1235,9006332732620.117,302925192347480.94,1.0928868927142086e+16
24.133005521105144,1.9231257153139716e+16,4.710406548457772e+16,6247159868519489.0,1.0009042744913998e+16,2756317686338.1626,9304905805838.15,312968509291954.56,1.129157598522037e+16
24.715665631527248,1.939570440529498e+16,4.779068290257486e+16,6300579584315710.0,1.0094630478879066e+16,2847132807346.1685,9611485937876.734,323281207518367.94,1.1664028607821496e+16
25.309978944157795,1.9559723943287852e+16,4.848676157174049e+16,6353860359725158.0,1.0179995606198982e+16,2940372858903.685,9926252446135.307,333869321315119.2,1.2046445715908324e+16
25.91617852304095,1.9723301446188108e+16,4.919250443152448e+16,6406997542678546.0,1.0265130673445302e+16,3036091937345.4067,10249387961661.562,344738996517939.7,1.2439050292795576e+16
26.53450209350177,1.98864223544576e+16,4.990811821860295e+16,6459986403596292.0,1.0350028103004482e+16,3134345134360.691,10581078476128.918,355896492091549.94,1.2842069441842528e+16
27.165192135371807,2.004907188873984e+16,5.063381356188992e+16,6512822141492055.0,1.0434680202857046e+16,3235188551144.655,10921513389627.342,367348181738636.2,1.3255734445121622e+16
27.808495978079243,2.0211235068595732e+16,5.1369805078500376e+16,6565499890059059.0,1.051907917632827e+16,3338679312801.1304,11270885559304.662,379100555537426.9,1.3680280823107802e+16
28.464665897640828,2.0372896731190916e+16,5.211631147072227e+16,6618014723740414.0,1.0603217131814612e+16,3444875583008.943,11629391348898.146,391160221609170.7,1.4115948395435266e+16
29.133959215593645,2.053404154993582e+16,5.287355562405014e+16,6670361663784350.0,1.0687086092484768e+16,3553836578963.7964,11997230679196.229,403533907816887.25,1.456298134277027e+16
29.816638399905518,2.0694654053078868e+16,5.364176470633351e+16,6722535684284121.0,1.0770678005956932e+16,3665622586607.9272,12374607079473.873,416228463496823.4,1.5021628269850576e+16
30.51297116790363,2.0854718642252548e+16,5.442117026808918e+16,6774531718202398.0,1.0853984753950798e+16,3780294976160.71,12761727739943.459,429250861224044.6,1.5492142269743296e+16
31.223230591261704,2.1014219610966516e+16,5.521200834403083e+16,6826344663378930.0,1.0936998161912856e+16,3897916217963.389,13158803565267.854,442608198613719.3,1.5974780989375544e+16
31.947695203086937,2.117314116304619e+16,5.6014519555859304e+16,6877969388519932.0,1.1019710008612536e+16,4018549898651.798,13566049229180.967,456307700159617.5,1.6469806696393196e+16
32.686649107148675,2.1331467431007664e+16,5.682894921636529e+16,6929400739167256.0,1.1102112035705866e+16,4142260737670.9985,13983683230263.928,470356719111450.25,1.6977486347405234e+16
33.44038208929165,2.1489182494363016e+16,5.765554743488835e+16,6980633543644748.0,1.118419595726242e+16,4269114604146.539,14411927948926.148,484762739392689.0,1.7498091657672384e+16
34.20918973107749,2.1646270397847196e+16,5.8494569224178824e+16,7031662618978996.0,1.1265953469251548e+16,4399178534127.231,14851009705640.87,499533377560554.3,1.80318991723007e+16
34.993373525699035,2.1802715169555164e+16,5.934627460870931e+16,7082482776791213.0,1.134737625898218e+16,4532520748214.368,15301158820487.566,514676384809917.56,1.857919033900211e+16
35.793240996213015,2.195850083897897e+16,6.0210928734476856e+16,7133088829156468.0,1.1428456014490176e+16,4669210669593.374,15762609674052.83,530199649022845.75,1.9140251582484764e+16
36.60910581613728,2.211361145493283e+16,6.108880198034327e+16,7183475594426444.0,1.1509184433867748e+16,4809318942483.539,16235600769743.953,546111196865656.8,1.9715374380538416e+16
37.44128793246003,2.226803110335241e+16,6.198017007095569e+16,7233637903011552.0,1.1589553234527072e+16,4952917451021.824,16720374797570.06,562419195935248.94,2.0304855341880844e+16
38.29011369110923,2.242174392495516e+16,6.288531419129155e+16,7283570603117704.0,1.1669554162391696e+16,5100079338597.779,17217178699445.781,579131956956643.0,2.0908996285832292e+16
39.15591596493141,2.257473413274614e+16,6.3804521102870056e+16,7333268566432967.0,1.1749179001007662e+16,5250879027655.588,17726263736074.293,596257936033576.8,2.1528104323885984e+16
40.03903428423004,2.2726986029354796e+16,6.473808326167532e+16,7382726693759404.0,1.18284195805667e+16,5405392239980.716,18247885555467.36,613805736954143.2,2.2162491943244844e+16
40.93981496991464,2.2878484024186924e+16,6.568629893783205e+16,7431939920584704.0,1.190726778683266e+16,5563696017488.117,18782304263159.37,631784113553343.4,2.281247709239381e+16
41.85861126931294,2.3029212650374836e+16,6.664947233707918e+16,7480903222588317.0,1.1985715569963772e+16,5725868743529.278,19329784494175.348,650201972134607.0,2.347838326877999e+16
