t(s),Total solute volume 1,Total retention volume 1,Total 1 volume 1,Total 2 volume 1,Total 3 volume 1,Total 4 volume 1,Total 5 volume 1,Total 6 volume 1
0.1,839524706393360.9,941664656952722.2,50673114377222.37,51466836182138.266,0.0,0.0,0.0,0.0
0.202,1264971516598695.0,1418938467096474.0,76352781439789.89,77548738683842.03,165811749.9808461,277639349.21569735,3276281503.0514765,61710641545.47444
0.30604000000000003,1588936495445071.8,1782418912856886.5,95907077258645.0,97409324637381.98,420708762.87922686,704445404.503422,8312812926.232971,156577548695.7917
0.41216080000000005,1862935785193770.5,2089882930127591.5,112445479599507.48,114206777436058.75,747289013.759488,1251279795.8561745,14765742573.09762,278123586874.1775
0.5204040160000001,2106246114516432.2,2362949484020465.0,127131518104851.17,129122851761790.17,1137828919.5095947,1905209991.6429894,22482459325.376526,423474139155.52155
0.6308120963200001,2328470161913366.0,2612387918153054.5,140544803623190.42,142746237241423.8,1588184315.7489884,2659296929.7567463,31381078474.304615,591086815354.4507
0.7434283382464002,2535188671789370.0,2844457017227119.0,153022185919665.38,155419059911311.56,2095984529.6999435,3509571127.7224646,41414757994.97991,780079293125.2687
0.8582969050113283,2729976554409598.5,3063166101043005.0,164779444036546.25,167360478684538.16,2659890482.0517416,4453790430.130568,52557039261.74136,989953192143.3865
0.9754628431115548,2915283434277333.5,3271262559694452.0,175964435567428.0,178720667132869.22,3279229172.154645,5490827981.755957,64794624792.76764,1220458034872.712
1.094972099973786,3092873115716004.5,3470724706424315.5,186683622487386.22,189607754806238.28,3953791264.074168,6620333300.812317,78123378729.72415,1471515911391.6406
1.2168715419732616,3264064831037576.0,3663032329019425.5,197016632720921.38,200102616886894.56,4683709460.693502,7842528625.712573,92545923619.45628,1743176212331.3652
1.3412089728127268,3429875522522996.5,3849326251767904.5,207024848181160.1,210267596747989.06,5469380906.793163,9158078985.035809,108070107169.78366,2035586748691.332
1.4680331522689813,3591108596915534.5,4030507867736661.0,216756761927975.03,220151947023930.4,6311415380.954425,10568005448.93735,124707978569.73938,2348974469819.0415
1.597393815314361,3748411844948711.5,4207304090885094.5,226251474149519.06,229795380351483.56,7210599470.887776,12073625143.602077,142475080628.16498,2683632130141.5957
1.729341691620648,3902316667917025.0,4380311345052961.0,235541059850148.2,239230474144141.56,8167871117.892405,13676508628.029606,161389946797.15347,3039908815102.452
1.863928525453061,4053265483323299.0,4550026296600651.0,244652223035812.47,248484350687971.4,9184301147.470104,15378448968.613436,181473736235.73596,3418203067217.8633
2.001207095962122,4201631384827183.5,4716867900895598.0,253607483374569.94,257579882389469.16,10261079659.74017,17181438951.096264,202749964898.9672,3818957820861.9795
2.1412312378813647,4347732570416213.5,4881193581873332.0,262426047070735.3,266536576290712.44,11399505894.854258,19087654111.15774,225244305289.98126,4242656630382.462
2.284055862638992,4491843142301751.0,5043311343625529.0,271124458740836.88,275371236160487.6,12600980645.221907,21099440056.801785,248984442513.56317,4689821559240.814
2.4297369798917723,4634201336257914.0,5203488995803606.0,279717098122903.78,284098466965699.25,13867000565.79762,23219302832.391422,273999937989.4043,5161008215707.745
2.578331719489608,4775015881665742.0,5361961290134835.0,288216563976017.7,292731064811737.5,15199153951.726236,25449902012.304222,300322181757.60315,5656808443610.855
2.7298983538794,4914470994802348.0,5518935517093304.0,296633975463697.25,301280323027934.8,16599117631.14168,27794045389.581856,327984307302.1213,6177846329000.234
2.884496320956988,5052730340715085.0,5674595949643225.0,304979211291849.8,309756275056012.8,18068654756.38832,30254685304.89318,357021153848.3679,6724778086374.042
3.0421862473761276,5189940214563924.0,5829107411046178.0,313261101732324.75,318167889481413.0,19609613308.892605,32834916143.298973,387469236823.8836,7298291502248.029
3.2030299723236504,5326232121707881.0,5982618168490976.0,321487584355103.44,326523228204814.5,21223925186.107994,35537972805.66607,419366729820.3989,7899105595352.12
3.3670905717701234,5461724889511861.0,6135262301660713.0,329665831495452.25,334829575905865.4,22913605769.128803,38367229984.938515,452753456053.6508,8527970455724.015
3.5344323832055258,5596526410481856.0,6287161657933232.0,337802355468330.0,343093546905640.6,24680753892.794716,41326202116.36333,487670887776.23334,9185667233603.586
3.7051210308696363,5730735092263681.0,6438427478915331.0,345903096089276.94,351321174058403.0,26527552157.43877,44418543899.7859,524162152441.1764,9873008255480.998
3.879223451487029,5864441072433002.0,6589161763268320.0,353973493998282.4,359517983223993.8,28456267534.522068,47648051314.0525,562272044672.6755,10590837249525.662
4.0568079205167695,5997727242965879.0,6739458416159617.0,362018552496086.9,367689056072717.7,30469252228.406204,51018663060.312065,602047043298.0709,11340029666345.814
4.237944078927105,6130670119508990.0,6889404224721360.0,370042890012731.25,375839083375721.94,32568944764.24652,54534462383.957695,643535332847.9794,12121493083907.092
4.422702960505647,6263340583171632.0,7039079690600809.0,378050784881579.6,383972410480350.7,34757871278.018265,58199679235.041756,686786829050.6189,12936167687682.7
4.61115701971576,6395804516902678.0,7188559744342869.0,386046213750588.7,392093076323072.8,37038646989.44178,62018692734.960014,731853207940.2864,13785026818876.314
4.803380160110075,6528123354148815.0,7337914361447573.0,394032884698926.3,400204847064818.8,39413977842.34514,65996033923.51921,778787938274.516,14669077584963.918
4.9994477633122765,6660354554089541.0,7487209096132490.0,402014265921819.06,408311245225138.8,41886662300.033165,70136388765.56949,827646317014.2563,15589361527927.225
5.199436718578522,6792552015074972.0,7636505545837057.0,409993610685362.3,416415575027895.75,44459593285.66966,74444601400.47403,878485507669.6923,16546955346460.178
5.403425452950093,6924766435782521.0,7785861757138474.0,417973979125679.75,424520944541875.0,47135760259.67653,78925677621.02571,931364581353.6538,17542971669172.227
5.611493962009095,7057045631926323.0,7935332581865021.0,425958257365284.8,432630285096577.75,49918251427.77908,83584788571.14586,986344560416.8162,18578559876417.652
5.823723841249277,7189434815006148.0,8084969990679321.0,433949174338163.0,440746368370840.1,52810256074.6821,88427274653.96677,1043488464565.5328,19654906968883.97
6.040198318074262,7321976838494402.0,8234823350186654.0,441949316649441.75,448871821485266.8,55815067019.47817,93458649643.7747,1102861359385.3733,20773238481489.137
6.261002284435747,7454712415977133.0,8384939668631570.0,449961141742231.9,457009140375303.06,58936083189.835365,98684604996.86588,1164530407211.9485,21934819441488.07
6.486222330124463,7587680315044587.0,8535363814439907.0,457986989600721.06,465160701677647.0,62176812312.802605,104111014357.70068,1228564920306.404,23140955369984.703
6.715946776726952,7720917530135293.0,8686138711199192.0,466029093182913.8,473328773326403.6,65540873720.7478,109743938257.87154,1295036416306.209,24392993326296.707
6.950265712261491,7854459437050269.0,8837305512123863.0,474089587747017.4,481515524025546.25,69032001271.52425,115589629006.36842,1364018675933.404,25692322994835.582
7.18927102650672,7988339931449720.0,8988903756599575.0,482170519210981.25,489723031739410.44,72654046382.4554,121654535770.4591,1435587802952.2537,27040377814351.863
7.433056447036854,8122591553308104.0,9140971511021976.0,490273851664529.6,497953291322379.44,76410981178.16557,127945309847.23715,1509822286376.8406,28438636149553.594
7.681717575977592,8257245599022186.0,9293545495831816.0,498401474135923.8,506208221391645.25,80306901752.66507,134468810126.50926,1586803064936.668,29888622505250.64
7.935351927497144,8392332222630874.0,9446661200382252.0,506555206701513.7,514489670532453.3,84346031546.42603,141232108746.2736,1666613593814.9685,31391908783300.895
8.194058966047088,8527880527405856.0,9600352987051216.0,514736806014090.75,522799422913051.25,88532724839.4927,148242496942.5303,1749339913680.1797,32950115582744.72
8.45794014536803,8663918648904642.0,9754654185823912.0,522947970315902.75,531139203376228.2,92871470361.93022,155507491095.60654,1835070722036.5435,34564913543614.02
8.72709894827539,8800473830433365.0,9909597180408358.0,531190343993538.6,539510682065541.6,97366895023.15765,163034838975.59647,1923897446924.3413,36238024734991.93
9.0016409272409,8937572491746112.0,1.006521348681255e+16,539465521724576.25,547915478636913.56,102023767761.9354,170832526189.8707,2015914323004.6992,37971224087981.07
9.281673745785717,9075240291702500.0,1.022153382519261e+16,547775052259538.6,556355166099832.94,106847003518.9683,178908782835.95404,2111218470067.926,39766340874311.695
9.567307220701432,9213502185516004.0,1.0378588185683432e+16,556120441877371.25,564831274326954.9,111841667334.28317,187272090363.3783,2209909974007.8516,41625260231392.57
9.85865336511546,9352382477149160.0,1.0536405888835484e+16,564503157547973.0,573345293266167.6,117012978571.7038,195931188648.40823,2312091970308.302,43549924734669.61
10.155826432417769,9491904867344754.0,1.06950156412081e+16,572924629831332.0,581898675885136.6,122366315272.91373,204895083285.81046,2417870730090.7515,45542336018218.805
10.458942961066125,9632092497725350.0,1.0854445586604588e+16,581386255539333.2,590492840874810.4,127907218643.74368,214173053102.09146,2527355748775.5713,47604556444556.6
10.768121820287448,9772967991343198.0,1.101472335337953e+16,589889400183326.0,599129175135323.4,133641397675.47794,223774657894.86954,2640659837411.757,49738710824706.6
11.083484256693197,9914553490019608.0,1.1175876098199258e+16,598435400227906.9,607809036065083.2,139574733904.09857,233709746403.29187,2757899216733.2363,51946988189609.31
11.405153941827061,1.0056870688775304e+16,1.133793054659475e+16,607025565169099.1,616533753671498.0,145713286310.53177,243988464514.61765,2879193614002.046,54231643614015.61
11.733257020663602,1.0199940867619254e+16,1.1500913030609032e+16,615661179453123.0,625304632519802.1,152063296365.08414,254621263712.31137,3004666362701.5596,56595000094052.05
12.067922161076874,1.0343784920936166e+16,1.1664849523808818e+16,624343504250177.0,634122953534627.4,158631193219.3835,265618909771.20123,3134444505145.2886,59039450479689.41
12.409280604298411,1.0488423384685724e+16,1.1829765673901604e+16,633073779096193.1,642989975667463.2,165423599049.26007,276992491705.4658,3268658898069.2017,61567459463395.81
12.75746621638438,1.06338764616055e+16,1.1995686833174362e+16,641853223414048.4,651906937441707.2,172447334552.12994,288753430975.40045,3407444321277.9414,64181565626299.14
13.112615540712067,1.0780164044589466e+16,1.2162638086948208e+16,650683037924680.6,660875058385874.8,179709424602.55194,300913490959.13574,3550939589417.5557,66884383543224.68
13.474867851526309,1.0927305738395918e+16,1.2330644280223402e+16,659564405957362.5,669895540364402.2,187217104069.7512,313484786695.6468,3699287666949.8374,69678605948022.49
13.844365208556836,1.1075320879824274e+16,1.249973004267218e+16,668498494667564.1,678969568814583.0,194977823801.01706,326479794905.6149,3852635786405.3804,72567005960635.66
14.221252512727972,1.1224228556485712e+16,1.2669919812121388e+16,677486456169921.4,688098313897282.4,202999256774.99652,339911364296.866,4011135569995.0293,75552439377408.73
14.605677562982532,1.1374047624280492e+16,1.284123785665348e+16,686529428593170.8,697282931568404.1,211289304429.0124,353792726161.31726,4174943154661.252,78637847026173.42
14.997791114242183,1.1524796723684396e+16,1.3013708295441628e+16,695628537063180.6,706524564577300.1,219856103164.66028,368137505270.5597,4344219320653.6396,81826257187692.06
15.397746936527026,1.167649429493653e+16,1.3187355118424992e+16,704784894619672.8,715824343397871.9,228708031036.03632,382959731077.35944,4519129623714.606,85120788085082.62
15.805701875257567,1.1829158592212258e+16,1.3362202204919066e+16,713999603071695.6,725183387097432.5,237853714625.0661,398273849230.572,4699844530963.538,88524650442885.1
16.221815912762718,1.1982807696856952e+16,1.3538273341248908e+16,723273753796400.4,734602804148002.2,247302036108.51236,414094733411.1568,4886539560570.184,92041150117476.62
16.64625223101797,1.2137459529749794e+16,1.3715592237483276e+16,732608428485311.8,744083693184254.1,257062140521.3483,430437697497.1283,5079395425309.703,95673690800577.58
17.079177275638333,1.2293131862859608e+16,1.3894182543342408e+16,742004699841840.2,753627143711963.8,267143443221.29813,447318508065.4918,5278598180094.555,99425776797633.0
17.5207608211511,1.2449842330049778e+16,1.407406786334486e+16,751463632233438.4,763234236770381.6,277555637559.4334,464753397239.36566,5484339373579.702,103301015882895.88
17.97117603757412,1.2607608437183388e+16,1.4255271771252316e+16,760986282301556.0,772906045551739.8,288308702761.84265,482759075888.69446,5696816203940.501,107303122233071.1
18.430599558325603,1.2766447571574856e+16,1.4437817823867226e+16,770573699532136.0,782643635980670.2,299412912027.4659,501352747193.0923,5916231678924.005,111435919441418.98
18.899211549492115,1.2926377010830446e+16,1.4621729574231782e+16,780226926789198.8,792448067256175.9,310878840847.3024,520552120575.5284,6142794780276.54,115703343614255.62
19.37719578048196,1.308741393111438e+16,1.4807030584272596e+16,789947000813813.2,802320392358387.6,322717375550.27203,540375426015.7319,6376720632652.128,120109446551816.19
19.864739696091597,1.3249575414874846e+16,1.4993744436930904e+16,799734952690408.2,812261658522194.4,334939722081.1137,560841428752.3099,6618230677108.076,124658399015478.1
20.36203449001343,1.3412878458059082e+16,1.5181894747812982e+16,809591808282266.1,822272907679567.4,347557415015.73865,581969444382.6963,6867552849295.147,129354494083368.72
20.869275179813698,1.357733997684266e+16,1.5371505176392516e+16,819518588637722.4,832355176872094.9,360582326819.567,603779354370.1525,7124921762451.472,134202150596404.81
21.38666068340997,1.3742976813895352e+16,1.5562599436790264e+16,829516310368350.5,842509498635117.2,374026677354.37244,626291621967.124,7390578895309.416,139205916696826.58
21.91439389707817,1.3909805744200998e+16,1.575520130815427e+16,839585986000245.8,852736901354500.2,387903043639.21576,649527308564.296,7664772785025.96,144370473461296.72
22.452681775019734,1.4077843480444602e+16,1.5949334644656926e+16,849728624299192.9,863038409596894.8,402224369871.02686,673508090474.6383,7947759225246.793,149700638630637.75
23.00173541052013,1.424710667797651e+16,1.61450233851224e+16,859945230570289.4,873415044414063.6,417003977710.39,698256276161.818,8239801469413.234,155201370438263.4
23.561770118730532,1.4417611939357888e+16,1.6342291562291282e+16,870236806932324.0,883867823621542.6,432255576838.00867,723794823922.0823,8541170439421.26,160877771539357.12
24.133005521105144,1.4589375818487748e+16,1.654116331172459e+16,880604352566868.8,894397762051650.5,447993275787.21716,750147360028.68,8852144939738.314,166735093042777.8
24.715665631527248,1.4762414824305634e+16,1.6741662880343026e+16,891048863941774.2,905005871780464.4,464231593057.79297,777338197347.6069,9173011877081.832,172778738647655.5
25.309978944157795,1.4936745424059518e+16,1.6943814634591356e+16,901571335008412.6,915693162328177.4,480985468516.0749,805392354433.0514,9504066485758.98,179014268886537.97
25.91617852304095,1.5112384046121148e+16,1.7147643068210262e+16,912172757371616.5,926460640831677.8,498270275086.15015,834335575110.5615,9845612558761.293,185447405476853.25
26.53450209350177,1.5289347082325508e+16,1.735317280959071e+16,922854120430887.5,937309312187975.5,516101830736.5373,864194348555.3608,10197962684702.355,192084035782341.6
27.165192135371807,1.5467650889803614e+16,1.7560428628678448e+16,933616411491007.2,948240179166561.4,534496410766.3488,894995929872.4589,10561438490677.236,198930217385937.28
27.808495978079243,1.5647311792269996e+16,1.7769435443386194e+16,944460615839782.1,959254242488330.6,553470760394.4171,926768361184.4747,10936370891112.639,205992182775386.66
28.464665897640828,1.5828346080719114e+16,1.7980218325463684e+16,955387716790037.5,970352500868283.4,573042107654.2697,959540493231.9658,11323100342665.256,213276344142687.84
29.133959215593645,1.6010770013475214e+16,1.8192802505763884e+16,966398695682655.9,981535951018567.9,593228176597.0714,993342007489.8422,11721977105210.002,220789298298128.78
29.816638399905518,1.6194599815532542e+16,1.840721337883532e+16,977494531846741.1,992805587608050.6,614047200803.8375,1028203438802.1049,12133361508944.49,228537831699415.56
30.51297116790363,1.6379851677112798e+16,1.862347650675855e+16,988676202512547.9,1004162403173862.6,635517937207.2445,1064156198535.4222,12557624227616.312,236528925596002.97
31.223230591261704,1.6566541751357918e+16,1.8841617622134776e+16,999944682672223.1,1015607387979972.8,657659680222.2068,1101232598250.2134,12995146557856.775,244769761288328.44
31.947695203086937,1.675468615106628e+16,1.906166263012196e+16,1011300944882799.0,1027141529817080.6,680492276183.1803,1139465873885.812,13446320704581.523,253267725501177.53
32.686649107148675,1.694430094437131e+16,1.928363760940525e+16,1022745959005372.0,1038765813737720.6,704036138084.6622,1178890210453.8792,13911550072387.875,262030415869877.97
33.44038208929165,1.713540214925249e+16,1.9507568811974124e+16,1034280691873762.2,1050481221719731.6,728312260619.8342,1219540767231.5542,14391249562850.139,271065646537435.28
34.20918973107749,1.732800572675849e+16,1.9733482661571404e+16,1045906106885503.5,1062288732250824.6,753342235510.5074,1261453703442.9846,14885845877577.207,280381453860060.78
34.993373525699035,1.7522127572816062e+16,1.996140575066617e+16,1057623163507403.2,1074189319826427.8,779148267119.6072,1304666204414.5203,15395777826860.479,289986102217844.0
35.793240996213015,1.7717783508488178e+16,2.0191364835794896e+16,1069432816687536.4,1086183954352439.2,805753188335.384,1349216508185.581,15921496643697.723,299888089926531.56
36.60910581613728,1.7914989268539622e+16,2.042338683110674e+16,1081336016165095.1,1098273600444280.5,833180476714.2439,1395143932553.1748,16463466302935.621,310096155245548.75
37.44128793246003,1.811376048816305e+16,2.065749879994041e+16,1093333705669156.5,1110459216613104.6,861454270866.7062,1442488902524.231,17022163845223.855,320619282476488.7
38.29011369110923,1.831411268771205e+16,2.0893727944255096e+16,1105426821997182.5,1122741754329888.6,890599387068.4022,1491292978145.5095,17598079705424.594,331466708145347.44
39.15591596493141,1.8516061255287996e+16,2.1132101591734456e+16,1117616293963997.2,1135122156957908.5,920641336075.3575,1541598882676.2422,18191718045067.457,342647927260775.2
40.03903428423004,1.8719621427023724e+16,2.13726471803786e+16,1129903041211704.2,1147601358544047.2,951606340119.876,1593450531064.0498,18803597088382.523,354172699639554.7
40.93981496991464,1.8924808264910332e+16,2.1615392240400604e+16,1142287972871322.2,1160180282459448.0,983521350060.4996,1646893058679.61,19434249461387.125,366051056289390.3
41.85861126931294,1.913163663201367e+16,2.1860364373245116e+16,1154771986066895.0,1172859839880206.2,1016414062656.3064,1701972850260.412,20084222533440.03,378293305838004.06
42.7957834946992,1.9340121164935536e+16,2.210759122755167e+16,1167355964253244.8,1185640928099072.5,1050312937932.7985,1758737569008.7239,20754078760616.117,390910040996316.6
43.751699164593184,1.955027624337849e+16,2.2357100471891988e+16,1180040775378938.5,1198524428659657.5,1085247216603.3453,1817236185783.5771,21444396030189.684,403912145042302.0
44.72673314788505,1.9762115956685988e+16,2.2608919764120052e+16,1192827269866673.5,1211511205305169.5,1121246937506.9421,1877519008320.9473,22155768005452.06,417310798310957.06
