t(s),Total solute volume 1,Total retention volume 1,Total 1 volume 1,Total 2 volume 1,Total 3 volume 1,Total 4 volume 1,Total 5 volume 1,Total 6 volume 1
0.1,1171626138357391.5,1690659390667246.5,218249522949102.88,300783729360751.56,0.0,0.0,0.0,0.0
0.202,1763641373470251.2,2545101176503442.0,328529621691688.6,452767853441323.0,82106869.91930696,219867164.3067113,5243304000.245021,156782622145.8885
0.30604000000000003,2214860946253291.0,3196461818724433.5,412582422014141.1,568606438619204.6,208286676.31120053,557754470.7611202,13301826556.601782,397943970090.804
0.41216080000000005,2596550348682460.0,3747560497571330.5,483683200877358.0,666595006988959.6,369941348.6496048,990637414.9041319,23626123554.829685,706954320232.58
0.5204040160000001,2935506177752784.5,4237057195101516.5,546823605818900.9,753612870523911.0,563250734.4144626,1508286243.1330366,35972169566.397026,1076497299373.8634
0.6308120963200001,3245090633046624.0,4684229536225576.0,604492736097337.2,833090417562470.6,786164773.5886757,2105211235.0491378,50209018114.01322,1502649125013.7273
0.7434283382464002,3533072674593810.5,5100285826105598.0,658137787021121.2,907022121326086.9,1037510729.4206,2778271998.6255903,66261762679.17664,1983165619183.4517
0.8582969050113283,3804430096577844.0,5492407721844939.0,708686017881337.2,976685897654843.5,1316626259.7690964,3525694893.580952,84088097341.43394,2516779312427.1704
0.9754628431115548,4062574303815674.5,5865517229632244.0,756772902281513.9,1042957533707173.9,1623178605.0041246,4346588846.166801,103666767237.55708,3102853293197.959
1.094972099973786,4309961837688504.5,6223158939763144.0,802856042671689.8,1106467680930897.1,1957064447.620516,5240677189.846601,124991172204.50061,3741189558205.795
1.2168715419732616,4548430170093066.0,6567984458935369.0,847277721761906.1,1167688061202002.2,2318349736.297124,6208136524.210567,148065523179.9071,4431913868945.259
1.3412089728127268,4779395783741944.0,6902038164563856.0,890301800753116.8,1226982318656998.8,2707231292.3048425,7249493903.408994,172902389930.12857,5175402296662.49
1.4680331522689813,5003977750541476.0,7226935477914306.0,932136739412917.4,1284637745144132.2,3124011175.167361,8365558191.732597,199521063750.07965,5972232182657.598
1.597393815314361,5223078385195947.0,7543979212347381.0,972950620160717.9,1340885985884199.2,3569078956.642323,9557372596.346487,227946425285.30792,6823148229671.049
1.729341691620648,5437437873296029.0,7854238376841550.0,1012881324141848.5,1395917063774583.8,4042899125.3624687,10826180939.066456,258208140057.99503,7729038408959.452
1.863928525453061,5647672439863631.0,8158603235200375.0,1052043641231790.8,1449889178144622.0,4546001948.346469,12173403185.047712,290340074787.5827,8690916480411.813
2.001207095962122,5854301731814909.0,8457824805679695.0,1090534370818232.6,1502935734472310.0,5078976737.292268,13600617411.073605,324379867307.0676,9709909112801.043
2.1412312378813647,6057768914528749.0,8752543850456347.0,1128436065372822.2,1555170503641948.8,5642466834.457351,15109546378.606384,360368606310.42,10787246293308.004
2.284055862638992,6258455716146308.0,9043312577154786.0,1165819832890576.5,1606691484166599.2,6237165858.169831,16702047479.915504,398350591553.14484,11924254146413.354
2.4297369798917723,6456693887358895.0,9330611169781412.0,1202747471609438.8,1657583844182798.8,6863814891.054436,18380105208.63545,438373154264.22955,13122349555917.229
2.578331719489608,6652774066241065.0,9614860576557152.0,1239273121343918.5,1707922197259907.0,7523200387.602059,20145825556.604385,480486523502.62256,14383036162808.574
2.7298983538794,6846952730575850.0,9896432539102768.0,1275444558558328.2,1757772387224056.0,8216152640.4839525,22001431906.924828,524743728200.6596,15707901431788.945
2.884496320956988,7039457717908274.0,1.0175657555726452e+16,1311304224637684.8,1807192905284597.0,8943544688.10099,23949262108.57794,571200527389.0804,17098614561684.633
3.0421862473761276,7230492657428540.0,1.045283127517937e+16,1346890051455174.2,1856236027801824.2,9706291576.044231,25991766498.751804,619915363026.2408,18556925072722.21
3.2030299723236504,7420240564288284.0,1.0728219682371022e+16,1382236130918313.0,1904948739031760.8,10505349906.675705,28131506696.70659,670949331229.4353,20084661944830.473
3.3670905717701234,7608866781571835.0,1.1002063343219866e+16,1417373262996886.2,1953373486398771.8,11341717626.653122,30371155034.814133,724366168703.5688,21683733211000.086
3.5344323832055258,7796521408670536.0,1.127458090877699e+16,1452329408078448.0,2001548803915839.5,12216434013.715666,32713494523.184166,780232251896.5176,23356125931716.605
3.7051210308696363,7983341321277528.0,1.1545972030392064e+16,1487130063251255.8,2049509830764358.8,13130579832.623764,35161419267.257835,838616606958.2434,25103906492883.29
3.879223451487029,8169451863697702.0,1.1816419802317462e+16,1521798577546317.0,2097288745749525.2,14085277636.624866,37717935275.09459,899590928994.535,26929221182045.402
4.0568079205167695,8354968276004087.0,1.2086092821946048e+16,1556356417786885.2,2144915133684653.0,15081692195.769238,40386161604.34262,963229609422.5719,28834297007196.812
4.237944078927105,8539996904964502.0,1.2355146938250694e+16,1590823394158844.0,2192416296264283.8,16121031037.225866,43169331809.127014,1029609770479.8485,30821442729768.152
4.422702960505647,8724636237357051.0,1.2623726744129242e+16,1625217852695856.2,2239817517340373.5,17204545085.73328,46070795655.08392,1098811306128.5992,32893050089105.277
4.61115701971576,8908977786411651.0,1.2891966856988494e+16,1659556840404912.2,2287142290492467.5,18333529394.67208,49094021077.06346,1170916928748.213,35051595200243.367
4.803380160110075,9093106856030056.0,1.315999302312733e+16,1693856247624626.5,2334412515220839.0,19509323960.114437,52242596359.032326,1246012221127.2322,37299640110356.59
4.9994477633122765,9277103202700352.0,1.3427923074644378e+16,1728130931326090.2,2381648666875316.5,20733314611.703175,55520232519.71327,1324185693362.4653,39639834502127.19
5.199436718578522,9461041611303228.0,1.3695867762233884e+16,1762394822373571.0,2428869944478258.0,22006933975.423107,58930765890.7427,1405528844349.7405,42074917534591.98
5.403425452950093,9644992398066964.0,1.3963931482991124e+16,1796661019214552.8,2476094399844726.0,23331662504.312912,62478160876.75943,1490136227614.005,44607719813907.07
5.611493962009095,9829021851585716.0,1.4232212918971916e+16,1830941870032237.2,2523339050802215.5,24709029573.973366,66166512889.01009,1578105521277.8682,47241165488020.77
5.823723841249277,1.0013192620938066e+16,1.4500805599540404e+16,1865249045043961.0,2570619980829763.5,26140614640.395863,70000051445.83777,1669537602010.518,49978274460516.766
6.040198318074262,1.0197564058427452e+16,1.4769798398356048e+16,1899593600346561.0,2617952427047340.0,27628048458.19071,73983143434.91338,1764536622834.342,52822164719956.766
6.261002284435747,1.038219252323597e+16,1.503927597407521e+16,1933986034480777.8,2665350858170894.0,29173014357.762474,78120296533.31705,1863210094696.376,55776054781944.04
6.486222330124463,1.056713165127954e+16,1.5309319162395662e+16,1968436338699626.0,2712829043790474.5,30777249580.37046,82416162782.62814,1965668971736.9165,58843266241875.28
6.715946776726952,1.07524325957284e+16,1.5580005325884352e+16,2002954041772357.2,2760400116117408.0,32442546670.34975,86875542317.08212,2072027740208.9067,62027226436999.75
6.950265712261491,1.093814424197756e+16,1.5851408667048966e+16,2037548250028976.2,2808076625172297.5,34170754924.053745,91503387243.62045,2182404511020.0776,65331471216940.96
7.18927102650672,1.1124313400289014e+16,1.612360050930093e+16,2072227683245471.5,2855870588240684.5,35963781895.327095,96304805673.32007,2296921115885.6533,68759647822318.66
7.433056447036854,1.1310984978858224e+16,1.6396649549783482e+16,2107000706882479.0,2903793534303305.0,37823594957.53274,101285065904.26662,2415703207093.14,72315517871516.78
7.681717575977592,1.149820213966623e+16,1.667062208747105e+16,2141875361117291.8,2951856544046955.5,39752222922.34537,106449600756.44093,2538880360892.7856,76002960456001.66
7.935351927497144,1.1686006439149078e+16,1.6945582229473548e+16,2176859387047644.0,3000070285977587.0,41751757715.69063,111804012059.63327,2666586184537.843,79825975344917.4
8.194058966047088,1.187443795543946e+16,1.7221592078078236e+16,2211960250394173.5,3048445049086231.0,43824356111.356804,117354075295.79668,2798958427008.4434,83788686299968.16
8.45794014536803,1.2063535403700106e+16,1.749871190072369e+16,2247185162984621.2,3096990772457748.0,45972241522.9387,123105744397.60576,2936139093461.024,87895344501841.42
8.72709894827539,1.225333624086997e+16,1.7777000284813206e+16,2282541102265882.0,3145717072161639.0,48197705854.893166,129065156705.30865,3078274563453.276,92150332089674.16
9.0016409272409,1.2443876760974062e+16,1.8056514279030268e+16,2318034829058216.0,3194633265720249.5,50503111413.595276,135238638084.25377,3225515713001.2856,96558165815253.77
9.281673745785717,1.2635192182002144e+16,1.833730952260919e+16,2353672903738939.5,3243748394412634.5,52890892879.3844,141632708205.737,3378018040532.122,101123500813849.4
9.567307220701432,1.2827316725238326e+16,1.8619440363834416e+16,2389461701019914.0,3293071243640263.5,55363559340.683556,148254085994.07614,3535941796800.9277,105851134493743.39
9.85865336511546,1.3020283687815068e+16,1.8902959968888316e+16,2425407423462753.0,3342610361553311.5,57923696391.35716,155109695243.02722,3699452118847.2363,110746010546697.36
10.155826432417769,1.321412550917325e+16,1.9187920422033428e+16,2461516113859100.0,3392374076112565.0,60573968292.56178,162206670404.90323,3868719168070.239,115813223081743.17
10.458942961066125,1.3408873832030688e+16,1.947437281799984e+16,2497793666587623.0,3442370510741392.0,63317120200.41205,169552362555.94537,4043918272507.8022,121058020884836.23
10.768121820287448,1.3604559558390708e+16,1.976236734734904e+16,2534245838047336.5,3492607598704508.5,66155980460.86462,177154345541.68307,4225230073408.6865,126485811807049.3
11.083484256693197,1.3801212901063038e+16,2.0051953375498076e+16,2570878256254914.5,3543093096334587.5,69093462973.28696,185020422306.23825,4412840676191.674,132102167284115.89
11.405153941827061,1.3998863431117032e+16,2.0343179516012812e+16,2607696429684091.0,3593834595214526.5,72132569624.25166,193158631409.6696,4606941805889.907,137912826990263.97
11.733257020663602,1.4197540121639348e+16,2.063609369871059e+16,2644705755416948.5,3644839533411191.0,75276392793.15416,201577253737.66446,4807730967182.855,143923703629405.9
12.067922161076874,1.4397271388130562e+16,2.0930743233058824e+16,2681911526668881.5,3696115205846071.0,78528117931.32304,210284819408.02777,5015411609121.957,150140887866867.16
12.409280604298411,1.4598085125837236e+16,2.122717486730003e+16,2719318939742819.0,3747668773879303.5,81891026216.3494,219290114878.59888,5230193294660.783,156570653404963.62
12.75746621638438,1.4800008744286594e+16,2.1525434843692976e+16,2756933100462288.5,3799507274175607.5,85368497283.42448,228602190261.39072,5452291875103.662,163219462205844.88
13.112615540712067,1.5003069199262788e+16,2.18255689502176e+16,2794759030127965.0,3851637626913230.0,88964012035.53215,238230366847.8898,5681929669590.816,170093969865139.44
13.474867851526309,1.5207293022439206e+16,2.212762256905821e+16,2832801671037513.0,3904066643391320.0,92681155534.40866,248184244850.64548,5919335649742.042,177201031140057.12
13.844365208556836,1.5412706348860092e+16,2.2431640722146668e+16,2871065891604858.5,3956801033085088.0,96523619974.23242,258473711366.39633,6164745629584.664,184547705635703.75
14.221252512727972,1.561933494244587e+16,2.273766811402146e+16,2909556491111307.0,4009847410193579.0,100495207740.07014,269108948566.16846,6418402460894.639,192141263653482.28
14.605677562982532,1.582720421967905e+16,2.304574917223353e+16,2948278204117705.5,4063212299720444.5,104599834553.16464,280100442117.9217,6680556234084.482,199989192205575.12
14.997791114242183,1.6036339271612646e+16,2.3355928085507772e+16,2987235704564179.0,4116902143124026.0,108841532705.20116,291458989847.4796,6951464484774.383,208099201199589.06
15.397746936527026,1.6246764884330066e+16,2.3668248839850028e+16,3026433609581380.0,4170923303569817.0,113224454383.75668,303195710643.62665,7231392406187.083,216479229797578.97
15.805701875257567,1.6458505557972414e+16,2.3982755252772556e+16,3065876483034875.0,4225282070815295.5,117752875091.18774,315322053613.4272,7520613067510.776,225137452953772.06
16.221815912762718,1.667158552443948e+16,2.4299491005794444e+16,3105568838822438.5,4279984665754107.5,122431197159.26752,327849807493.9595,7819407638377.845,234082288135403.53
16.64625223101797,1.6886028763859728e+16,2.4618499675360716e+16,3145515143942107.5,4335037244644338.0,127263953361.95381,340791110326.82367,8128065619611.077,243322402231229.6
17.079177275638333,1.7101859019917304e+16,2.4939824762310804e+16,3185719821347308.5,4390445903043345.0,132255810628.7145,354158459401.93335,8446885080392.753,252866718652347.7
17.5207608211511,1.7319099814115194e+16,2.526350972001572e+16,3226187252603699.0,4446216679469361.0,137411573860.9029,367964721477.2773,8776172902015.589,262724424630103.8
17.97117603757412,1.7537774459046884e+16,2.5589597981294532e+16,3266921780361464.0,4502355558808706.0,142736189853.73395,382223143281.44904,9116245028378.545,272904978715956.84
18.430599558325603,1.775790607074309e+16,2.5918132984209148e+16,3307927710655270.5,4558868475485446.0,148234751326.46848,396947362305.96655,9467426723394.18,283418118488298.0
18.899211549492115,1.7979517580153468e+16,2.6249158196831284e+16,3349209315043007.5,4615761316409017.0,153912501063.47742,412151417894.5067,9830052835477.93,294273868471322.56
19.37719578048196,1.820263174381857e+16,2.6582717141065704e+16,3390770832593825.5,4673039923714007.0,159774836168.9115,427849762636.3732,10204468069293.508,305482548271184.75
19.864739696091597,1.842727115378316e+16,2.6918853415609124e+16,3432616471734678.0,4730710097305077.0,165827312437.77054,444057274071.6603,10591027264933.164,317054780934761.9
20.36203449001343,1.8653458246795704e+16,2.725761071811526e+16,3474750411964122.0,4788777597218725.0,172075648846.21564,460789266715.7512,10990095684714.104,329001501536490.1
20.869275179813698,1.8881215312838244e+16,2.759903286663561e+16,3517176805441130.5,4847248145813059.0,178525732164.04276,478061504410.9515,11402049307777.457,341333965998830.5
21.38666068340997,1.9110564503023604e+16,2.7943163820394708e+16,3559899778456305.0,4906127429795263.0,185183621692.28622,495890213013.20074,11827275132679.693,354063760152068.8
21.91439389707817,1.9341527836897164e+16,2.8290047699960108e+16,3602923432791893.5,4965421102096067.0,192055554128.9861,514292093422.0056,12266171488170.059,367202809039224.4
22.452681775019734,1.957412720917444e+16,2.8639728806858856e+16,3646251846977009.0,5025134783599505.0,199147948566.21442,533284334961.8776,12719148352352.064,380763386472031.8
23.00173541052013,1.9808384395945916e+16,2.8992251642690212e+16,3689889077443365.0,5085274064735736.0,206467411621.52527,552884629123.737,13186627680430.404,394758124843998.9
23.561770118730532,2.004432106037543e+16,2.9347660927780776e+16,3733839159586810.0,5145844506944099.0,214020742707.04065,573111183674.9017,13669043741249.53,409200025206728.9
24.133005521105144,2.028195875791857e+16,2.9706001619425776e+16,3778106108739374.5,5206851644012655.0,221814939439.4603,593982737146.4513,14166843462833.066,424102467615774.6
24.715665631527248,2.0521318941083356e+16,3.0067318929756344e+16,3822693921056097.0,5268300983300446.0,229857203194.34064,615518573706.9583,14680486787138.28,439479221752439.75
25.309978944157795,2.07624229637555e+16,3.0431658343269716e+16,3867606574320799.5,5330198006847907.0,238154944808.05453,637738538431.6707,15210447034243.076,455344457828032.44
25.91617852304095,2.1005292085107988e+16,3.079906563405945e+16,3912848028674194.0,5392548172380425.0,246715790430.8943,660663052976.4557,15757211276187.406,471712757777234.0
26.53450209350177,2.1249947473111972e+16,3.1169586882777176e+16,3958422227268084.5,5455356914209874.0,255547587534.86862,684313131666.0148,16321280720694.783,488599126747324.25
27.165192135371807,2.1496410207667444e+16,3.1543268493358228e+16,4004333096848410.0,5518629644038120.0,264658411079.775,708710398005.9376,16903171105003.85,506019004890171.25
27.808495978079243,2.1744701283367904e+16,3.192015720954044e+16,4050584548270273.0,5582371751666867.0,274056569841.21698,733877101628.4462,17503413100043.902,523988279463964.7
28.464665897640828,2.1994841611912944e+16,3.230030013120311e+16,4097180476947446.5,5646588605617096.0,283750612904.2909,759836135681.7819,18122552725191.66,542523297251844.5
29.133959215593645,2.2246852024183484e+16,3.2683744730553476e+16,4144124763238782.0,5711285553661704.0,293749336326.71716,786611054673.3645,18761151773852.105,561640877304635.9
29.816638399905518,2.250075327198955e+16,3.307053886818562e+16,4191421272773908.5,5776467923274220.0,304061789975.27747,814226092777.0642,19419788250107.746,581358324015079.6
30.51297116790363,2.2756566029502736e+16,3.3460730809034324e+16,4239073856720047.5,5842141021996661.0,314697284539.4554,842706182614.9865,20099056816687.62,601693440531026.9
31.223230591261704,2.3014310894384064e+16,3.385436923824799e+16,4287086351992067.0,5908310137728938.0,325665398726.2522,872076974524.4863,20799569254507.906,622664542515183.2
31.947695203086937,2.3274008388615012e+16,3.425150327700078e+16,4335462581407362.0,5974980538942293.0,336975986640.21844,902364856321.1263,21521954934043.35,644290472259128.4
32.686649107148675,2.353567895904208e+16,3.465218249826545e+16,4384206353787168.5,6042157474819024.0,348639185352.7666,933596973568.5771,22266861298788.973,666590613159440.6
33.44038208929165,2.3799342977641216e+16,3.505645694256562e+16,4433321464005995.0,6109846175320506.0,360665422664.9531,965801250366.579,23034954361078.906,689584904563843.5
34.20918973107749,2.4065020741510692e+16,3.5464377133727748e+16,4482811692990134.0,6178051851185221.0,373065425067.8894,999006410668.1804,23826919210529.395,713293856995428.5
34.993373525699035,2.433273247259835e+16,3.5875994094648596e+16,4532680807666934.0,6246779693858739.0,385850225905.0857,1033242000137.7316,24643460535379.324,737738567763126.5
35.793240996213015,2.4602498317169308e+16,3.629135936309807e+16,4582932560865647.0,6316034875357208.0,399031173741.02045,1068538408561.1505,25485303157004.035,762940736966662.0
36.60910581613728,2.4874338345020308e+16,3.671052500757288e+16,4633570691171045.0,6385822548065499.0,412619940940.32635,1104926892820.2173,26353192577881.69,788922683904374.1
37.44128793246003,2.514827254844541e+16,3.713354364321663e+16,4684598922730803.0,6456147844471837.0,426628532462.0042,1142439600442.7214,27247895543294.77,815707363892349.6
38.29011369110923,2.542432084095826e+16,3.756046844782431e+16,4736020965017372.0,6527015876839507.0,441069294873.1597,1181109593740.4614,28170200617052.938,843318385503444.9
39.15591596493141,2.570250305577426e+16,3.799135317794365e+16,4787840512545386.0,6598431736817546.0,455954925586.77203,1220970874547.2346,29120918771526.633,871780028234821.4
40.03903428423004,2.598283894405816e+16,3.8426252185090856e+16,4840061244545110.0,6670400494990591.0,471298482328.08966,1262058409569.0754,30100883992282.95,901117260612745.9
40.93981496991464,2.626534817293947e+16,3.886522043209211e+16,4892686824592848.0,6742927200369488.0,487113392834.2564,1304408156359.08,31110953897620.266,931355758743484.9
41.85861126931294,2.6550050323299668e+16,3.930831350956864e+16,4945720900198612.0,6816016879823221.0,503413464791.8461,1348057089929.3591,32152010373297.773,962521925319150.0
42.7957834946992,2.6836964887334236e+16,3.975558765257574e+16,4999167102352177.0,6889674537452994.0,520212896016.9984,1393043230012.7087,33224960222761.605,994642909087502.8
43.751699164593184,2.7126111265892176e+16,4.020709975741052e+16,5053029045027258.0,6963905153909298.0,537526284882.92444,1439405668986.6555,34330735833170.605,1027746624794719.8
