t(s),Total solute volume 1,Total retention volume 1,Total 1 volume 1,Total 2 volume 1,Total 3 volume 1,Total 4 volume 1,Total 5 volume 1,Total 6 volume 1
0.1,1144268928618327.0,1596229672649425.0,193012778181123.2,258947965849975.12,0.0,0.0,0.0,0.0
0.202,1474653343493785.8,2687049819263753.5,248741301075503.66,333713949568814.8,366676487165.0506,942182548120.4335,21122636767348.6,607509729323015.1
0.30604000000000003,1638757048435742.8,3700789338884938.0,276421955725850.7,370850610017627.7,823059672647.163,2114945479389.3428,47417332134823.19,1364404387418854.5
0.41216080000000005,1736881934239567.5,4695086826380368.0,292973447204165.5,393056266809820.2,1321555865691.271,3396011260966.6943,76140972542971.3,2191316638457184.0
0.5204040160000001,1801921864302210.5,5688537807555720.0,303944240601869.56,407774799826457.2,1846336035881.823,4744716343956.444,106381598763253.2,3061924251682088.0
0.6308120963200001,1848029275536545.0,6689364620121191.0,311721538070983.8,418208904815187.9,2390716499911.913,6143894515947.872,137754238396608.78,3965116052285999.5
0.7434283382464002,1882315615012444.5,7701955136437993.0,317504882970742.25,425967901869457.6,2951487460546.258,7585305281508.352,170074090769772.56,4895555853073512.0
0.8582969050113283,1908743954608502.8,8728982977516769.0,321962757609618.5,431948633944252.25,3526992685546.955,9064700020449.346,203245878582551.4,5850490060065861.0
0.9754628431115548,1929694782837347.8,9772253634319184.0,325496697590786.9,436689805464597.6,4116353036908.356,10579827022752.838,237219108737742.44,6828457059629045.0
1.094972099973786,1946682197598253.2,1.083309256074695e+16,328362097641233.94,440534056706643.56,4719111946276.782,12129520623539.906,271967645198267.7,7828697931032751.0
1.2168715419732616,1960713865695623.2,1.1912542086106602e+16,330728928797027.4,443709422616953.06,5335058323459.827,13713246215189.283,307479505295053.3,8850862059163300.0
1.3412089728127268,1972485584491168.5,1.3011469332850172e+16,332714556637796.94,446373362103724.3,5964131709112.2705,15330856569405.03,343751394872024.4,9894849446466934.0
1.4680331522689813,1982492737128715.8,1.4130629090153252e+16,334402541310606.5,448637980348115.56,6606368558381.679,16982453837639.068,380785613396549.2,1.0960721395573216e+16
1.597393815314361,1991097257487354.8,1.5270702320048012e+16,335853933031970.1,450585182969529.1,7261870394131.815,18668307741799.867,418588219220280.25,1.2048647549202966e+16
1.729341691620648,1998569502152933.0,1.6432320746009156e+16,337114334960561.06,452276151650541.3,7930784192345.349,20388805193937.758,457167899690684.06,1.315887326816815e+16
1.863928525453061,2005115336021931.5,1.761608312477006e+16,338218471937709.1,453757473607641.0,8613289907459.144,22144418261408.67,496535252698420.0,1.4291698882335506e+16
2.001207095962122,2010894173169529.8,1.8822566354329976e+16,339193233581633.1,455065224238731.94,9309592320194.736,23935683238674.496,536702317318137.8,1.5447466130463074e+16
2.1412312378813647,2016031303580510.2,2.0052333268797692e+16,340059753533484.44,456227756661715.4,10019915586302.57,25763186659411.11,577682260105151.5,1.6626549092671116e+16
2.284055862638992,2020626506639293.2,2.1305938246107184e+16,340834862362043.5,457267650946844.8,10744499520400.588,27627555767449.414,619489161395762.6,1.7829348009475412e+16
2.4297369798917723,2024760190878781.0,2.258393133555856e+16,341532123203142.9,458203103541587.3,11483597022129.414,29529451923536.69,662137867454105.9,1.9056285001535256e+16
2.578331719489608,2028497848911250.8,2.3886861361434892e+16,342162583207686.6,459048935421266.5,12237472271015.01,31469565988020.53,705643886937339.9,2.03078010686983e+16
2.7298983538794,2031893341939981.5,2.5215278304437052e+16,342735327565898.44,459817335373880.4,13006399448928.209,33448615059990.75,750023317785964.1,2.1584353967262412e+16
2.884496320956988,2034991356585137.0,2.656973516490188e+16,343257893919350.9,460518415979685.44,13790661831204.148,35467340164546.45,795292795381136.2,2.2886416701040816e+16
3.0421862473761276,2037829266878595.2,2.7950789448413444e+16,343736586438181.0,461160634980534.94,14590551139627.66,37526504613832.66,841469455815703.4,2.421447644854698e+16
3.2030299723236504,2040438562452881.8,2.9359004372479784e+16,344176716724892.3,461751118478971.5,15406367084273.84,39626892854289.48,888570910072346.1,2.556903380481215e+16
3.3670905717701234,2042845956086723.2,3.0794949864646764e+16,344582790632708.5,462295911575727.4,16238417043494.639,41769309669862.17,936615226187476.1,2.695060225345078e+16
3.5344323832055258,2045074251314858.0,3.225920340298678e+16,344958654612115.3,462800174709794.0,17087015846320.441,43954579649403.94,985620917342691.5,2.835970780951156e+16
3.7051210308696363,2047143028448402.0,3.375235073633569e+16,345307611427268.94,463268338904795.25,17952485631765.594,46183546852766.17,1035606934414568.1,2.9796888790656124e+16
3.879223451487029,2049069191716280.0,3.5274986512046644e+16,345632512446622.8,463704229587064.56,18835155766600.684,48457074628244.47,1086592661921269.2,3.1262695685980584e+16
4.0568079205167695,2050867409156137.5,3.6827714832134104e+16,345935831842762.8,464111166132945.94,19735362808117.39,50776045546808.51,1138597916590541.8,3.275769110005678e+16
4.237944078927105,2052550468928993.2,3.841114975366928e+16,346219726694791.06,464492042502780.8,20653450501937.73,53141361427595.984,1191642947976810.2,3.4282449755636364e+16
4.422702960505647,2054129569955808.2,4.00259157456029e+16,346486086012262.94,464849393011951.1,21589769807451.02,55553943435667.56,1245748440701171.0,3.583755854267861e+16
4.61115701971576,2055614560533783.8,4.167264811145114e+16,346736570984464.9,465185446329735.4,22544678945302.484,58014732237744.555,1300935517994075.0,3.742361660442607e+16
4.803380160110075,2057014135445639.0,4.335199338522428e+16,346972648228377.8,465502170085134.06,23518543462706.89,60524688205119.62,1357225746298368.0,3.904123545349894e+16
4.9994477633122765,2058335999720827.8,4.506460970641773e+16,347195617411562.5,465801307926021.4,24511736313358.56,63084791655503.24,1414641140747945.2,4.069103911264244e+16
5.199436718578522,2059587005429175.2,4.681116717869521e+16,347406634326208.8,466084410475543.5,25524637949457.176,65696043127485.34,1473204171380367.5,4.2373664276006936e+16
5.403425452950093,2060773266532854.2,4.859234821597308e+16,347606730262118.6,466352861323112.6,26557636423928.39,68359463682740.05,1532937769974216.8,4.408976048777412e+16
5.611493962009095,2061900255782442.0,5.040884787890256e+16,347796828350922.5,466607898951982.9,27611127501348.324,71076095232198.03,1593865337426610.5,4.583999033565704e+16
5.823723841249277,2062972886838448.0,5.226137420418773e+16,347977757418155.8,466850635323347.2,28685514776403.32,73847000883253.9,1656010751605223.0,4.762502965734287e+16
6.040198318074262,2063995584172952.2,5.415064852873849e+16,348150263774118.56,467082071695075.06,29781209798970.45,76673265305721.31,1719398375623527.2,4.944556775836813e+16
6.261002284435747,2064972342814664.5,5.6077405810307e+16,348315021291538.9,467303112142019.8,30898632205097.305,79555995114753.42,1784053066499486.0,5.130230764023944e+16
6.486222330124463,2065906779612979.5,5.804239494597963e+16,348472640052683.4,467514575157068.5,32038209853312.137,82496319269336.56,1850000184166495.5,5.319596623786765e+16
6.715946776726952,2066802177388726.8,6.004637908967245e+16,348623673796608.6,467717203642457.06,33200378965813.26,85495389485275.52,1917265600812477.0,5.512727466558113e+16
6.950265712261491,2067661523093618.5,6.209013596960074e+16,348768626355816.8,467911673545251.6,34385584274181.973,88554380661832.62,1985875710528435.8,5.709697847114156e+16
7.18927102650672,2068487540903158.0,6.4174458206541096e+16,348907957238286.44,468098601346271.44,35594279169336.54,91674491321373.84,2055857439252125.5,5.910583789731065e+16
7.433056447036854,2069282721008523.2,6.630015363359519e+16,349042086484037.4,468278550575691.1,36826925855504.46,94856944061538.05,2127238254996043.5,6.115462815061385e+16
7.681717575977592,2070049344743979.5,6.8468045618057e+16,349171398903556.25,468452037499376.1,38083995508037.44,98102986019560.64,2200046178351713.2,6.324413967703075e+16
7.935351927497144,2070789506581213.8,7.06789733859145e+16,349296247787759.06,468619536096194.1,39365968434932.26,101413889348494.27,2274309793264513.0,6.53751784444013e+16
8.194058966047088,2071505133435908.5,7.293379234944365e+16,349416958164579.9,468781482427096.3,40673334241951.01,104790951705144.23,2350058258075212.5,6.754856623139386e+16
8.45794014536803,2072198001661231.5,7.52333744383042e+16,349533829665397.7,468938278480742.7,42006592001258.39,108235496749607.31,2427321316825856.5,6.976514092292011e+16
8.72709894827539,2072869752044571.2,7.75786084344946e+16,349647139054649.5,469090295567261.4,43366250423516.27,111748874656362.36,2506129310828907.0,7.202575681191923e+16
9.0016409272409,2073521903075412.2,7.997040031149346e+16,349757142467831.2,469237877320770.5,44752828033390.34,115332462636897.52,2586513190499647.0,7.433128490745955e+16
9.281673745785717,2074155862712207.0,8.240967357787758e+16,349864077396301.75,469381342362217.8,46166853348436.84,118987665473910.97,2668504527452667.5,7.668261324913178e+16
9.567307220701432,2074772938842365.2,8.48973696256817e+16,349968164451658.2,469520986666478.8,47608865061351.51,122715916067140.98,2752135526864040.0,7.908064722772864e+16
9.85865336511546,2075374348601514.5,8.743444808374181e+16,350069608937683.56,469657085671303.9,49079412225567.75,126518675990924.08,2837439040101404.0,8.152630991221333e+16
10.155826432417769,2075961226694532.0,9.002188717625074e+16,350168602253921.8,469789896160366.1,50579054444202.7,130397436063588.77,2924448577624804.0,8.40205423830092e+16
10.458942961066125,2076534632840852.5,9.266068408672909e+16,350265323151535.2,469919657948136.5,52108362062352.555,134353716928824.67,3013198322161395.5,8.656430407163603e+16
10.768121820287448,2077095558449834.8,9.535185532761075e+16,350359938859292.06,470046595390519.3,53667916362746.375,138389069649180.27,3103723142157810.5,8.915857310674142e+16
11.083484256693197,2077644932617609.2,9.809643711562251e+16,350452606095102.4,470170918741934.5,55258309764769.79,142505076311856.2,3196058605514161.5,9.180434666657714e+16
11.405153941827061,2078183627524679.0,1.0089548575313715e+17,350543471976469.56,470292825376799.9,56880146026874.67,146703350646981.16,3290240993603959.0,9.450264133798131e+16
11.733257020663602,2078712463303174.0,1.0375007801565918e+17,350632674841493.4,470412500890987.25,58534040452393.09,150985538658564.1,3386307315584808.0,9.725449348192779e+16
12.067922161076874,2079232212433832.5,1.066613115456092e+17,350720344990539.06,470530120096860.2,60220620098775.66,155353319268330.25,3484295323004467.5,1.0006095960571611e+17
12.409280604298411,2079743603725078.0,1.0963030525255002e+17,350806605357423.4,470645847923739.3,61940523990278.14,159808404972664.06,3584243524707796.0,1.0292311674187302e+17
12.75746621638438,2080247325920153.5,1.1265819972001386e+17,350891572117853.5,470759840234196.1,63694403334118.47,164352542512878.8,3686191202049685.5,1.0584206283384498e+17
13.112615540712067,2080744030972455.5,1.1574615761906229e+17,350975355241905.44,470872244565258.06,65482921740130.13,168987513559060.38,3790178424419814.5,1.0881891712856376e+17
13.474867851526309,2081234337024516.2,1.1889536412872568e+17,351058058996513.44,470983200802558.94,67306755443937.53,173715135407720.34,3896246065084824.0,1.1185482057596555e+17
13.844365208556836,2081718831121741.8,1.2210702736345509e+17,351139782403217.75,471092841794454.2,69166593533678.98,178537261693524.28,4004435817354132.5,1.1495093623555429e+17
14.221252512727972,2082198071688420.2,1.2538237880771973e+17,351220619655806.4,471201293912337.25,71063138180304.58,183455783115345.72,4114790211075494.5,1.1810844969009221e+17
14.605677562982532,2082672590790233.2,1.2872267375788302e+17,351300660501959.56,471308677562652.6,72997104871474.3,188472628176924.38,4227352629466617.0,1.21328569466513e+17
14.997791114242183,2083142896204868.5,1.3212919177148058e+17,351379990592510.5,471415107655472.56,74969222649084.88,193589763942402.88,4342167326289571.0,1.2461252746414667e+17
15.397746936527026,2083609473319793.8,1.3560323712403486e+17,351458691801556.3,471520694033961.4,76980234350448.19,198809196807023.06,4459279443374593.5,1.2796157939034752e+17
15.805701875257567,2084072786874114.8,1.3914613927352211e+17,351536842520277.5,471625541868560.75,79030896853151.23,204132973283279.6,4578735028500278.0,1.313770052036224e+17
16.221815912762718,2084533282559736.2,1.4275925333262262e+17,351614517927011.0,471729752019331.7,81121981323618.56,209563180802824.6,4700581053637178.0,1.3486010956435306e+17
16.64625223101797,2084991388495181.8,1.4644396054887293e+17,351691790235855.06,471833421369479.4,83254273469404.1,215101948534430.88,4824865433562231.0,1.3841222229320666e+17
17.079177275638333,2085447516584205.2,1.5020166879284083e+17,351768728925837.3,471936643132806.6,85428573795235.6,220751448218328.06,4951637044851160.0,1.4203469883733338e+17
17.5207608211511,2085902063769892.8,1.540338130544433e+17,351845400952450.8,472039507137518.3,87645697862832.27,226513895017225.2,5080945745256875.0,1.4572892074444646e+17
17.97117603757412,2086355413193946.8,1.579418559475276e+17,351921870943202.06,472142100088565.44,89906476554520.6,232391548384356.53,5212842393481205.0,1.494962961448819e+17
18.430599558325603,2086807935269795.2,1.6192728822283104e+17,351998201378618.44,472244505810490.5,92211756340663.89,238386712948874.62,5347378869348318.0,1.5333826024173408e+17
18.899211549492115,2087259988677277.8,1.6599162928943542e+17,352074452760034.2,472346805472527.25,94562399550927.83,244501739418935.6,5484608094387736.0,1.5725627580916813e+17
19.37719578048196,2087711921285985.2,1.701364277448365e+17,352150683765331.7,472449077797548.4,96959284649398.3,250739025502826.03,5624584052835302.0,1.6125183369900003e+17
19.864739696091597,2088164071013458.5,1.7436326191373462e+17,352226951393705.2,472551399256279.4,99403306513564.2,257101016848482.94,5767361813060661.0,1.653264533556487e+17
20.36203449001343,2088616766624042.2,1.7867374039567062e+17,352303311100406.2,472653844248077.3,101895376717184.48,263590208001772.4,5912997549429968.0,1.6948168333954893e+17
20.869275179813698,2089070328473467.5,1.830695026216083e+17,352379816922339.3,472756485269427.75,104436423817045.39,270209143383895.06,6061548564612551.0,1.737191018591294e+17
21.38666068340997,2089525069203819.0,1.8755221941958534e+17,352456521595291.5,472859393071222.44,107027393643621.84,276960418288295.84,6213073312340732.0,1.7804031731144253e+17
21.91439389707817,2089981294393178.8,1.92123593589535e+17,352533476663504.4,472962636805766.8,109669249595647.61,283846679897464.44,6367631420632060.0,1.8244696883154707e+17
22.452681775019734,2090439303163673.8,1.967853604873891e+17,352610732582246.0,473066284164384.44,112362972938602.55,290870628320014.06,6525283715483304.0,1.8694072685073664e+17
23.00173541052013,2090899388751455.8,2.01539288618574e+17,352688338813950.5,473170401506401.94,115109563107116.19,298035017648447.0,6686092245046041.0,1.9152329366370086e+17
23.561770118730532,2091361839041764.8,2.0638718024100253e+17,352766343918471.0,473275053980234.6,117910038011290.0,305342657038006.5,6850120304293439.0,1.9619640400471926e+17
24.133005521105144,2091826937071938.0,2.1133087197766054e+17,352844795637927.94,473380305637220.94,120765434346936.83,312796411807039.3,7017432460188685.0,2.0096182563297072e+17
24.715665631527248,2092294961505013.5,2.1637223543890502e+17,352923740976594.2,473486219538789.4,123676807909727.1,320399204559283.56,7188094577364926.0,2.0582135992705085e+17
25.309978944157795,2092766187076269.0,2.2151317785456147e+17,353003226276216.06,473592857857521.5,126645233913239.28,328154016328525.25,7362173844327491.0,2.107768424887822e+17
25.91617852304095,2093240885014948.5,2.2675564271592438e+17,353083297287151.1,473700281972580.9,129671807310897.86,336063887746058.75,7539738800189086.0,2.158301437564036e+17
26.53450209350177,2093719323443093.8,2.3210161042776208e+17,353163999235639.0,473808552559971.75,132757643121785.97,344131920231396.56,7720859361948784.0,2.209831696272215e+17
27.165192135371807,2094201767753408.0,2.3755309897041248e+17,353245376887541.6,473917729678049.3,135903876760312.05,352361277206697.4,7905606852326036.0,2.262378620898004e+17
27.808495978079243,2094688480967726.0,2.4311216457206867e+17,353327474608807.2,474027872848640.56,139111664369709.56,360755185335371.25,8094054028161246.0,2.3159619986577712e+17
28.464665897640828,2095179724077702.8,2.4878090239134262e+17,353410336422937.94,474139041134143.0,142382183159339.62,369316935785339.7,8286275109394302.0,2.3706019906136845e+17
29.133959215593645,2095675756369110.2,2.5456144721019043e+17,353494006065692.4,474251293210912.56,145716631745772.28,378049885517435.56,8482345808633100.0,2.4263191382864858e+17
29.816638399905518,2096176835731038.5,2.6045597413729098e+17,353578527037238.44,474364687439237.6,149116230497597.97,386957458599442.0,8682343361324214.0,2.4831343703666237e+17
30.51297116790363,2096683218951204.2,2.664666993219485e+17,353663942651966.7,474479281930161.7,152582221883946.97,396043147546265.0,8886346556538022.0,2.5410690095244694e+17
31.223230591261704,2097195161998456.0,2.725958806786067e+17,353750296086144.25,474595134609423.4,156115870826654.03,405310514686761.06,9094435768380918.0,2.600144779320181e+17
31.947695203086937,2097712920293538.5,2.7884581862203997e+17,353837630423583.25,474712303278721.5,159718465056031.44,414763193557737.06,9306692988047604.0,2.6603838112138275e+17
32.686649107148675,2098236748968984.5,2.852188568133014e+17,353925988699482.9,474830845674533.1,163391315470188.2,424404890325662.8,9523201856526514.0,2.72180865167636e+17
33.44038208929165,2098766903119081.5,2.917173829164811e+17,354015413942589.6,474950819524682.3,167135756497833.0,434239385236629.2,9744047697971868.0,2.7844422694018813e+17
34.20918973107749,2099303638040656.8,2.983438293663448e+17,354105949215814.0,475072282602823.3,170953146464503.5,444270534095112.0,9969317553756138.0,2.8483080626217002e+17
34.993373525699035,2099847209465464.2,3.0510067414691584e+17,354197637655430.8,475195292781040.3,174844867962136.88,454502269772102.44,1.0199100217216768e+16,2.913429866520628e+17
35.793240996213015,2100397873784857.5,3.119904415810291e+17,354290522508971.9,475319908080679.56,178812328221910.88,464938603743178.75,1.043348626911166e+16,2.979831960755779e+17
36.60910581613728,2100955888267381.5,3.190157031309366e+17,354384647171934.7,475446186721597.94,182856959490267.66,475583627657103.1,1.0672568113797628e+16,3.047539077078299e+17
37.44128793246003,2101521511269898.8,3.2617907820997203e+17,354480055223388.75,475574187169936.0,186980219408023.97,486441514935534.6,1.0916440016147296e+16,3.116576407058179e+17
38.29011369110923,2102095002442788.8,3.3348323500534125e+17,354576790460593.4,475703968184561.6,191183591392474.3,497516522404476.0,1.116519813921896e+16,3.1869696099123757e+17
39.15591596493141,2102676622929773.5,3.4093089131204154e+17,354674896932700.06,475835588862280.0,195468585022371.56,508812991958058.5,1.1418940582695474e+16,3.258744820436406e+17
40.03903428423004,2103266635562801.2,3.4852481537794586e+17,354774418973627.4,475969108681946.2,199836736425678.4,520335352255296.5,1.1677767422107574e+16,3.331928657039394e+17
40.93981496991464,2103865305052497.5,3.5626782676007046e+17,354875401234186.6,476104587547558.25,204289608669958.25,532088120450459.0,1.1941780748858008e+16,3.406548229882577e+17
41.85861126931294,2104472898174588.8,3.64162797192019e+17,354977888713522.8,476242085830446.1,208828792155278.4,544075903957704.44,1.2211084711062912e+16,3.48263114912124e+17
42.7957834946992,2105089683952674.5,3.722126514626231e+17,355081926789948.7,476381664410632.7,213455905009483.4,556303402250634.2,1.2485785555227128e+16,3.5602055332498246e+17
