t(s),Total solute volume 1,Total retention volume 1,Total 1 volume 1,Total 2 volume 1,Total 3 volume 1,Total 4 volume 1,Total 5 volume 1,Total 6 volume 1
0.1,919935341976466.9,1072551036543860.6,72903600131805.52,79712094435588.67,0.0,0.0,0.0,0.0
0.202,1384627534469668.2,1617063529187290.5,109729812189673.31,119977520719061.28,4683643597.518305,8784562436.858524,122889293586.13933,2592304309266.797
0.30604000000000003,1737499253727648.8,2032663980420971.2,137694406677555.92,150553739303596.38,11871801716.892721,22266587721.640606,311493400748.7914,6570948921980.662
0.41216080000000005,2035076328860426.2,2384965480717018.5,161276977275794.16,176338695096354.12,21066339821.800266,39511802019.989174,552742124480.3267,11660159218123.854
0.5204040160000001,2298534845661595.5,2698526707533657.0,182155699430759.66,199167289008897.47,32043305191.88996,60100180794.82555,840759575468.6036,17735970370947.98
0.6308120963200001,2538428519765077.5,2985580797408042.0,201166940475147.12,219953997041231.53,44680110058.95732,83801817268.50365,1172329514596.755,24730528684664.453
0.7434283382464002,2760891802681119.5,3253237681758883.0,218796847186009.62,239230367403606.88,58904295335.7604,110480825144.67094,1545550994254.3345,32603728373411.24
0.8582969050113283,2969853846118328.0,3506053065290939.0,235356799388492.4,257336859801489.28,74672456823.066,140055813297.03253,1959285421071.3337,41331546291441.09
0.9754628431115548,3168005908080312.0,3747150264803866.5,251060075547891.06,274506670856992.5,91959847265.24043,172480383778.10684,2412883734733.6055,50900286352890.336
1.094972099973786,3357284360788612.5,3978779985805719.0,266060130477906.0,290907586587028.06,110754606896.0699,207732310885.74756,2906035029878.8384,61303386004515.664
1.2168715419732616,3539135940148174.5,4202627551193921.5,280471615993037.2,306664966182462.2,131054287458.3027,245807021797.6641,3438675354360.5566,72539492206634.2
1.3412089728127268,3714674237945696.5,4419994058451799.5,294382782698323.94,321875302005735.8,152863626443.33655,286713422079.207,4010929310846.3765,84611229442673.66
1.4680331522689813,3884777353195878.5,4631909361066263.0,307863218723143.75,336614681047947.75,176193053640.56662,330471094688.02454,4623070872776.353,97524373078193.05
1.597393815314361,4050151637921496.0,4839205783882180.0,320968901485901.2,350944308479774.44,201057651450.95544,377108350045.08417,5275496106199.634,111287273887324.52
1.729341691620648,4211374882747956.0,5042568038780789.0,333745620092515.6,364914249669049.1,227476409398.68634,426660827895.3777,5968703610795.929,125910445423184.75
1.863928525453061,4368926497250444.0,5242568092921911.0,346231367087086.8,378566045297927.5,255471676640.30447,479170470528.0383,6703280155976.77,141406260983311.56
2.001207095962122,4523209166306255.0,5439690178983854.0,358458054687791.4,391934587878702.44,285068751968.41614,534684753878.9059,7479889924596.832,157788726680667.75
2.1412312378813647,4674564747481309.0,5634349148170016.0,370452774632720.6,405049499257125.2,316295571879.33325,593256102561.1405,8299266329700.67,175073308794716.72
2.284055862638992,4823286174193718.0,5826904208058666.0,382238741489087.06,417936162017616.56,349182470214.0547,654941439139.2585,9162205709250.15,193276800739634.8
2.4297369798917723,4969626524477570.0,6017669386886723.0,393836011340181.94,430616505288666.56,383761991101.56244,719801833378.3705,10069562419441.855,212417219536394.9
2.578331719489608,5113806037421087.0,6206921628573793.0,405262037828373.44,443109612714902.94,420068742310.05865,787902227284.5898,11022244988296.658,232513724651525.53
2.7298983538794,5256017616725603.0,6394907142015630.0,416532108304516.4,455432199338657.0,458139279720.2587,859311218520.63,12021213085883.191,253586554062725.28
2.884496320956988,5396431201056248.0,6581846443338704.0,427659690172192.4,467598990289420.7,498012016112.31964,934100889427.1064,13067475132538.578,275656973782782.75
3.0421862473761276,5535197273276195.0,6767938405390951.0,438656708989657.1,479623024857849.5,539727149193.50543,1012346672135.2941,14162086411989.078,298747238033942.7
3.2030299723236504,5672449706759619.0,6953363543310105.0,449533774036185.6,491515903127821.1,583326605031.8098,1094127242579.1561,15306147588756.502,322880557950126.4
3.3670905717701234,5808308095295758.0,7138286705277352.0,460300362953755.7,503287987861882.1,628853993958.4205,1179524437898.1184,16500803552790.338,348081077181307.1
3.5344323832055258,5942879676356779.0,7322859295113076.0,470964974163344.6,514948571151761.2,676354576662.441,1268623192960.9858,17747242531596.65,374373853139979.06
3.7051210308696363,6076260930988410.0,7507221122747558.0,481535253654048.8,526506013048375.06,725875238694.045,1361511492665.495,19046695423062.56,401784842902311.75
3.879223451487029,6208538924190148.0,7691501956205671.0,492018101206362.0,537967857705325.4,777464471964.066,1458280337365.5166,20400435311933.45,430340892982560.1
4.0568079205167695,6339792435286060.0,7875822832161910.0,502419759972481.6,549340931325163.44,831172362112.2484,1559023719310.9126,21809777140355.242,460069732356426.0
4.237944078927105,6470092917022852.0,8060297169699603.0,512745892483516.4,560631425264915.9,887050580835.3871,1663838608395.852,23276077508641.336,490999968230454.94
4.422702960505647,6599505313979348.0,8245031722501842.0,523001645507286.6,571844966951007.0,945152382437.4713,1772824945831.856,24800734586907.777,523161084149018.75
4.61115701971576,6728088764634710.0,8430127397509296.0,533191705686269.9,582986680713233.2,1005532603998.003,1886085644613.4336,26385188121738.426,556583440104739.0
4.803380160110075,6855897206627882.0,8615679962528175.0,543320347503567.06,594061240230289.6,1068247668661.198,2003726595843.7737,28030919524834.44,591298274377082.0
4.9994477633122765,6982979900991548.0,8801780660949246.0,553391474827714.94,605072913954481.1,1133355591633.6033,2125856680147.2097,29739452032832.414,627337706870881.9
5.199436718578522,7109381888200038.0,8988516748347729.0,563408657053857.8,616025604628119.0,1200915988546.1003,2252587783523.537,31512350929267.37,664734743764389.2
5.403425452950093,7235144386543141.0,9175971963051140.0,573375160674309.1,626922883802476.1,1270990085891.6675,2384034817103.1562,33351223821112.78,703523283307108.6
5.611493962009095,7360305141482574.0,9364226940626416.0,583293976964576.9,637768022109416.2,1343640733295.359,2520315740346.5015,35257720963513.42,743738122632704.1
5.823723841249277,7484898733160850.0,9553359580525498.0,593167846353010.2,648564015906937.5,1418932417410.1047,2661551587301.1094,37233535627298.77,785414965472705.5
6.040198318074262,7608956848032423.0,9743445371746808.0,602999279947192.4,659313610815912.9,1496931277262.438,2807866495586.692,39280404504669.04,828590430673743.9
6.261002284435747,7732508519612076.0,9934557683248766.0,612790578612912.2,670019322580870.0,1577705120897.7368,2959387737826.4844,41400108149111.42,873302061435076.1
6.486222330124463,7855580342540664.0,1.0126768023937434e+16,622543849938590.6,680683455618706.9,1661323443195.633,3116245755282.5977,43594471446158.02,919588335194838.4
6.715946776726952,7978196663515272.0,1.0320146276297928e+16,632261023366213.8,691308119562737.6,1747857444744.082,3278574193486.7334,45865364112067.82,967488674103390.6
6.950265712261491,8100379752092451.0,1.0514760907122024e+16,641943863727259.5,701895244062732.5,1837380051675.5872,3446509939685.572,48214701217903.26,1017043456030329.8
7.18927102650672,8222149953926717.0,1.0710679158270342e+16,651593983386644.1,712446592062976.8,1929965936381.7544,3620193161944.0557,50644443736811.56,1068294026058845.0
7.433056447036854,8343525828635245.0,1.0907967219980208e+16,661212853168293.5,722963771748212.2,2025691539033.1523,3799767349769.9893,53156599112598.81,1121282708427048.1
7.681717575977592,8464524274168318.0,1.1106690388874918e+16,670801812211344.5,733448247320286.2,2124635089840.7922,3985379356141.104,55753221847933.4,1176052818881050.5
7.935351927497144,8585160639304791.0,1.130691321252848e+16,680362076885239.0,743901348745855.8,2226876632003.4688,4177179440830.2764,58436414110723.57,1232648677409013.5
8.194058966047088,8705448825671048.0,1.1508699622188746e+16,689894748874597.5,754324280596288.0,2332498045292.14,4375321314937.982,61208326357394.15,1291115621329170.2
8.45794014536803,8825401380496399.0,1.1712113055048152e+16,699400822529943.8,764718130084890.0,2441583070228.5737,4579962186552.177,64071157971947.625,1351500018708188.0
8.72709894827539,8945029581158908.0,1.1917216567268826e+16,708881191567857.8,775083874392775.0,2554217332820.6807,4791262807465.594,67027157919833.234,1413849282089182.8
9.0016409272409,9064343512441618.0,1.2124072938815804e+16,718336655193419.0,785422387363092.4,2670488369821.664,5009387520889.612,70078625415767.0,1478211882511198.2
9.281673745785717,9183352137303162.0,1.2332744771018744e+16,727767923708667.6,795734445633270.9,2790485654484.235,5234504310110.802,73227910604758.66,1544637363804293.2
9.567307220701432,9302063361867708.0,1.2543294577669996e+16,737175623662985.6,806020734266381.4,2914300622784.6963,5466784848044.196,76477415255692.17,1613176357146410.2
9.85865336511546,9420484095254852.0,1.2755784870369432e+16,746560302594526.5,816281851935378.4,3042026700095.208,5706404547642.501,79829593466901.28,1683880595870022.8
10.155826432417769,9538620304795432.0,1.2970278238741744e+16,755922433405983.0,826518315707523.9,3173759328285.2495,5953542613126.799,83286952383248.9,1756802930508161.0
10.458942961066125,9656477067115932.0,1.3186837426080328e+16,765262418412973.5,836730565470850.2,3309595993236.3687,6208382092009.134,86852052924302.9,1831997344071045.2
10.768121820287448,9774058615519558.0,1.340552540090783e+16,774580593098905.6,846918968039696.8,3449636252756.3145,6471109927882.068,90527510523258.6,1909518967545765.8
11.083484256693197,9891368384042470.0,1.362640542488903e+16,783877229606384.8,857083820972172.0,3593981764881.4663,6741917013954.619,94315995876320.1,1989424095612872.5
11.405153941827061,1.0008409048522528e+16,1.384954111748423e+16,793152539991857.1,867225356128762.5,3742736316558.3066,7020998247318.188,98220235702311.95,2071770202574880.8
11.733257020663602,1.0125182564981422e+16,1.4074996517688606e+16,802406679267331.6,877343742998112.0,3896005852696.7007,7308552583929.666,102243013512345.39,2156615958492753.0
12.067922161076874,1.0241690205587466e+16,1.4302836143167914e+16,811639748250379.8,887439091813194.4,4053898505589.7524,7604783094302.819,106387170389408.86,2244021245527569.5
12.409280604298411,1.0357932592438864e+16,1.4533125047066854e+16,820851796241428.6,897511456478625.0,4216524624696.8423,7909897019901.949,110655605777807.75,2334047174485533.0
12.75746621638438,1.0473909729382296e+16,1.476592887274021e+16,830042823545325.6,907560837327722.5,4383996806787.9365,8224105830235.669,115051278282417.77,2426756101565426.5
13.112615540712067,1.0589621032058356e+16,1.5001313906630158e+16,839212783852395.1,917587183725943.2,4556429926449.309,8547625280651.399,119577206477765.78,2522211645308638.0
13.474867851526309,1.070506535634687e+16,1.5239347129492586e+16,848361586492705.1,927590396535665.5,4733941166951.978,8880675470834.479,124236469726986.56,2620478703752589.5
13.844365208556836,1.0820241025367306e+16,1.5480096266154606e+16,857489098575802.2,937570330455744.0,4916650051486.116,9223480904018.367,129032209010758.25,2721623471789469.0
14.221252512727972,1.0935145855173302e+16,1.572362983396916e+16,866595147026962.5,947526796247946.1,5104678474765.965,9576270546915.982,133967627766344.48,2825713458732910.5
14.605677562982532,1.1049777179267088e+16,1.597001719011655e+16,875679520529938.4,957459562861127.9,5298150735011.5,9939277890384.348,139045992736927.22,2932817506096080.5
14.997791114242183,1.116413187204731e+16,1.621932857788961e+16,884741971385160.2,967368359462967.0,5497193566314.143,10312741010837.797,144270634831434.66,3043005805585569.5
15.397746936527026,1.1278206371291714e+16,1.647163517208629e+16,893782217291450.6,977252877388077.6,5701936171395.995,10696902632428.34,149644949995132.4,3156349917316092.5
15.805701875257567,1.13919966997669e+16,1.672700912362409e+16,902799943058582.5,987112772010498.4,5912510254772.637,11092010190013.19,155172400091252.2,3272922788252031.0
16.221815912762718,1.1505498486048176e+16,1.6985523603478884e+16,911794802257210.0,996947664547718.0,6129050056331.77,11498315892933.588,160856513794005.6,3392798770882505.5
16.64625223101797,1.1618706984623798e+16,1.7247252846044316e+16,920766418812106.0,1006757143802712.4,6351692385340.73,11916076789630.773,166700887493337.75,3516053642137388.5
17.079177275638333,1.173161709535162e+16,1.7512272191998096e+16,929714388544086.5,1016540767849841.6,6580576654897.689,12345554833128.168,172709186211831.75,3642764622552683.0
17.5207608211511,1.1844223382328382e+16,1.7780658130756236e+16,938638280665345.4,1026298065669877.5,6815844916842.66,12787016947411.113,178885144534203.8,3773010395694205.0
17.97117603757412,1.1956520092226036e+16,1.8052488342588664e+16,947537639232619.1,1036028538738844.1,7057641897145.823,13240735094738.293,185232567549869.72,3906871127849411.5
18.430599558325603,1.2068501172144908e+16,1.832784174046469e+16,956411984562002.6,1045731662574965.1,7306115031791.797,13706986343921.938,191755331809097.7,4044428487998004.5
18.899211549492115,1.2180160287026666e+16,1.8606798511691772e+16,965260814608903.8,1055406888247527.9,7561414503180.286,14186052939615.58,198457386293296.0,4185765668072552.5
19.37719578048196,1.229149083666749e+16,1.888944015940588e+16,974083606316320.9,1065053643851033.6,7823693277064.458,14678222372651.69,205342753400030.44,4330967403521288.0
19.864739696091597,1.2402485972365618e+16,1.9175849543968304e+16,982879816934143.8,1074671335947734.0,8093107140050.052,15183787451473.727,212415529943386.8,4480119994185862.5
20.36203449001343,1.2513138613235472e+16,1.9466110924319064e+16,991648885311996.9,1084259350981212.5,8369814737679.267,15703046374709.145,219679888170344.2,4633311325507640.0
20.869275179813698,1.2623441462215034e+16,1.976030999933501e+16,1000390233167842.1,1093817056663450.8,8653977613124.838,16236302804933.236,227140076793849.22,4790630890076735.0
21.38666068340997,1.2733387021791996e+16,2.005853394923609e+16,1009103266334218.4,1103343803337460.0,8945760246521.283,16783865943675.54,234800422043319.0,4952169809538911.0
21.91439389707817,1.284296760946888e+16,2.036087147708192e+16,1017787375983862.4,1112838925317369.4,9245330094961.016,17346050607723.086,242665328733333.94,5118020856875810.0
22.452681775019734,1.2952175372987134e+16,2.0667412850397228e+16,1026441939836157.8,1122301742207540.1,9552857633184.574,17923177306777.508,250739281351323.1,5288278479075139.0
23.00173541052013,1.30610023053247e+16,2.0978249942962724e+16,1035066323345713.6,1131731560202144.0,9868516394995.463,18515572322524.4,259026845165051.9,5463038820207573.0
23.561770118730532,1.3169440259482012e+16,2.129347627680619e+16,1043659880874111.0,1141127673366340.2,10192483015431.07,19123567789176.773,267532667350793.44,5642399744928318.0
24.133005521105144,1.3277480963067278e+16,2.1613187064426824e+16,1052221956845770.2,1150489364900100.5,10524937273722.408,19747501775555.465,276261478143050.75,5826460862421366.0
24.715665631527248,1.3385116032690568e+16,2.193747925128289e+16,1060751886888659.4,1159815908385425.2,10866062137076.062,20387718368772.816,285218092006767.8,6015323550805625.0
25.309978944157795,1.3492336988174254e+16,2.2266451558572524e+16,1069248998960459.2,1169106569017712.5,11216043805313.766,21044567759586.156,294407408832960.75,6209090982022197.0
25.91617852304095,1.3599135266585904e+16,2.2600204526335976e+16,1077712614460640.9,1178360604821666.8,11575071756404.744,21718406329491.63,303834415158755.8,6407868147223092.0
26.53450209350177,1.3705502236097412e+16,2.293884055690552e+16,1086142049328804.4,1187577267852218.2,11943338792928.037,22409596739628.81,313504185412831.25,6611761882681658.0
27.165192135371807,1.3811429209673726e+16,2.3282463958728304e+16,1094536615129456.6,1196755805380622.8,12321041089501.979,23118508021570.316,323421883187284.6,6820880896246162.0
27.808495978079243,1.3916907458591842e+16,2.363118099058727e+16,1102895620123399.0,1205895461065886.2,12708378241219.549,23845515670070.066,333592762536981.7,7035335794357873.0
28.464665897640828,1.40219282257908e+16,2.3985099906242076e+16,1111218370325693.9,1214995476111550.0,13105553313128.72,24591001737847.098,344022169307449.2,7255239109655605.0
29.133959215593645,1.41264827390515e+16,2.4344330999514316e+16,1119504170550140.5,1224055090407699.2,13512772890797.523,25355354932482.92,354715542492413.6,7480705329189280.0
29.816638399905518,1.4230562224004218e+16,2.4708986649837056e+16,1127752325440095.5,1233073543658069.5,13930247132004.748,26138970715510.902,365678415622076.1,7711850923265058.0
30.51297116790363,1.4334157916960516e+16,2.507918136828982e+16,1135962140485401.0,1242050076491918.8,14358189819596.645,26942251403777.906,376916418183265.2,7948794374945375.0
31.223230591261704,1.4437261077566382e+16,2.5455031844140028e+16,1144132923025117.8,1250983931560437.2,14796818415551.846,27765606273159.746,388435277072602.9,8191656210226768.0
31.947695203086937,1.4539863001271074e+16,2.5836656991908296e+16,1152263983235663.0,1259874354617145.2,15246354116295.992,28609451664711.9,400240818083815.9,8440559028919591.0
32.686649107148675,1.4641955031606772e+16,2.6224177998978612e+16,1160354635103960.8,1268720595581931.2,15707021909308.3,29474211093338.79,412338967430384.7,8695627536252940.0
33.44038208929165,1.4743528572272758e+16,2.661771837376961e+16,1168404197385097.8,1277521909588155.5,16179050631062.783,30360315359064.125,424735753304670.0,8956988575228813.0
34.20918973107749,1.484457509901768e+16,2.7017403994485388e+16,1176411994543968.5,1286277558012212.5,16662673026346.11,31268202660986.316,437437307474694.9,9224771159749486.0
34.993373525699035,1.49450861713125e+16,2.7423363158462696e+16,1184377357680339.2,1294986809485022.5,17158125808994.97,32198318714002.96,450449866919777.4,9499106508542072.0
35.793240996213015,1.5045053443806868e+16,2.7835726632130948e+16,1192299625436769.0,1303648940884696.0,17665649724095.465,33151116868387.004,463779775506157.9,9780128079903958.0
36.60910581613728,1.5144468677561016e+16,2.8254627701600732e+16,1200178144888693.5,1312263238309789.2,18185489611686.562,34127058232299.492,477433485703815.2,1.006797160729342e+16
37.44128793246003,1.5243323751044738e+16,2.8680202223896856e+16,1208012272416100.5,1320828998032357.0,18717894472009.305,35126611797320.844,491417560345634.8,1.0362775135788724e+16
38.29011369110923,1.5341610670895342e+16,2.9112588678850324e+16,1215801374556076.5,1329345527430127.8,19263117532344.02,36150254567083.914,505738674430080.25,1.0664679059439268e+16
39.15591596493141,1.5439321582426112e+16,2.9551928221664136e+16,1223544828835584.5,1337812145897055.2,19821416315475.797,37198471689090.26,520403616968521.56,1.0973826159532306e+16
40.03903428423004,1.5536448779876072e+16,2.999836473616696e+16,1231242024583742.5,1346228185731453.0,20393052709829.402,38271756589790.27,535419292878360.25,1.1290361643797718e+16
40.93981496991464,1.5632984716392932e+16,3.0452044888768144e+16,1238892363722967.8,1354592993001026.8,20978293041312.477,39370611113007.1,550792724923060.9,1.1614433186573814e+16
41.85861126931294,1.572892201374055e+16,3.0913118183127668e+16,1246495261538265.8,1362905928384019.2,21577408146906.49,40495545661782.93,566531055700187.2,1.1946190969955944e+16
42.7957834946992,1.5824253471721796e+16,3.138173701555327e+16,1254050147423990.5,1371166367985673.0,22190673450043.457,41647079343722.57,582641549678543.4,1.22857877259495e+16
43.751699164593184,1.5918972077308976e+16,3.1858056731137996e+16,1261556465607416.0,1379373704129426.5,22818369037804.52,42825740119912.25,599131595285438.0,1.2633378779649018e+16
44.72673314788505,1.6013071013473396e+16,3.2342235680649148e+16,1269013675848460.8,1387527346121947.5,23460779739977.668,44032064957484.086,616008707045141.0,1.2989122093462732e+16
