t(s),Total solute volume 1,Total retention volume 1,Total 1 volume 1,Total 2 volume 1,Total 3 volume 1,Total 4 volume 1,Total 5 volume 1,Total 6 volume 1
0.1,803801399340899.0,888695292650996.4,42833262785020.44,42060630525076.21,0.0,0.0,0.0,0.0
0.202,1206456572326231.5,1342971617755575.0,64290098888941.4,63130425413534.96,27534321609.772064,43773401457.14509,477852982068.8828,8545360421735.892
0.30604000000000003,1509435589387802.8,1691838856512035.0,80435355522924.22,78984451748109.8,69583222851.86505,110623928459.00041,1207630273822.9133,21595622428065.305
0.41216080000000005,1762622716975335.8,1989442957298128.0,93927283743574.48,92233010756865.23,123098158207.2024,195706331169.11707,2136439154357.5054,38204702178619.39
0.5204040160000001,1984732374637581.0,2256007113792525.0,105763144384333.42,103855374553859.95,186662706579.89496,296769888888.01373,3239710328917.6313,57933077292367.47
0.6308120963200001,2185109345011433.2,2501594665116022.0,116440905639351.25,114340528917254.55,259464027307.8795,412523375041.7643,4503348834508.789,80528549311124.45
0.7434283382464002,2369195195154768.5,2732051905013340.5,126250539723599.2,123973215504599.28,340987223083.56464,542149207412.7702,5918430256189.121,105831387943686.6
0.8582969050113283,2540480956710057.5,2951125360291609.5,135378078007611.38,132936110027687.84,430889284060.2851,685103070095.0007,7479013305709.457,133735209886383.2
0.9754628431115548,2701361236612312.5,3161385504288630.0,143951125181221.03,141354515425848.94,528936703686.80505,841014750268.7756,9181057311626.926,164167618303667.6
1.094972099973786,2853561117794578.0,3364687273749383.5,152061608094454.56,149318700360243.84,634970747111.733,1009632932034.0198,11021819565769.023,197079424255191.53
1.2168715419732616,2998370853506839.5,3562422612685595.5,159778282234208.97,156896180097051.4,748886444961.6686,1190791808172.7852,12999490844414.273,232438127749946.22
1.3412089728127268,3136784485303486.0,3755669268005600.5,167154118450249.34,164138969990722.22,870619081348.0221,1384389604696.94,15112960974900.646,270223724600195.44
1.4680331522689813,3269586436651179.5,3945283518322707.0,174230917387045.88,171088116680072.78,1000135078475.9971,1590374094180.0874,17361660694969.87,310425877736786.06
1.597393815314361,3397408103161491.0,4131960631710383.0,181042325084779.12,177776659293479.47,1137425609624.8938,1808732446070.3657,19745450856550.43,353041935258390.56
1.729341691620648,3520766233364622.0,4316275775884847.5,187615878228044.1,184231637805108.7,1282501983582.9604,2039483892892.891,22264542369064.758,398075498241535.8
1.863928525453061,3640089781362977.0,4498712577015894.0,193974435079869.44,190475498157558.72,1435392222879.6428,2282674294120.9434,24919436858560.086,445535359039930.7
2.001207095962122,3755739197225615.5,4679683591740547.0,200137203435310.9,196527101673088.0,1596138472057.779,2538372019507.91,27710881730694.773,495434697184271.2
2.1412312378813647,3868020603862201.5,4859545321350185.0,206120496083891.9,202402466888921.7,1764794998633.7515,2806664774603.0347,30639835519067.117,547790459222851.25
2.284055862638992,3977196424343025.5,5038609444569491.0,211938297122119.47,208115325654545.75,1941426627100.977,3087657114695.435,33707440748787.18,602622872959221.4
2.4297369798917723,4083493488247790.5,5217151369737921.0,217602693927563.06,213677547313781.56,2126107495746.1611,3381468471977.3706,36915002402641.25,659955061878417.1
2.578331719489608,4187109311099912.5,5395416848033598.0,223124211779641.38,219099467289635.78,2318920058405.3447,3688231572151.8013,40263970638673.65,719812735595183.4
2.7298983538794,4288217025947847.0,5573627158859020.0,228512076655533.9,224390145139866.12,2519954275026.348,4008091151265.327,43755926785240.77,782223938904235.6
2.884496320956988,4386969304493965.5,5751983226818678.0,233774424180729.94,229557569738448.62,2729306949845.2266,4341202907297.0728,47392571898849.92,847218846649540.6
3.0421862473761276,4483501509730574.0,5930668927659597.0,238918467627850.28,234608824244017.06,2947081186462.2876,4687732637688.785,51175717351907.81,914829594881092.6
3.2030299723236504,4577934256446533.0,6109853770491899.0,243950634361857.3,239550220083855.12,3173385936585.102,5047855525894.568,55107277047330.4,985090141089850.1
3.3670905717701234,4670375510063625.0,6289695094648295.0,248876677683615.22,244387406780007.56,3408335624636.3135,5421755548660.168,59189260951196.195,1058036147996547.0
3.5344323832055258,4760922321609382.0,6470339884760707.0,253701769283759.22,249125462735453.7,3652049834424.0005,5809624982099.972,63423769704028.734,1133704886611550.5
3.7051210308696363,4849662273057790.0,6651926282554177.0,258430576262535.2,253768970864652.78,3904653047058.5127,6211663989386.586,67812990123115.21,1212135155209646.0
3.879223451487029,4936674690013797.0,6834584855524768.0,263067325751780.0,258322082049863.22,4166274421556.2466,6628080276454.71,72359191447421.11,1293367211563903.8
4.0568079205167695,5022031665929398.0,7018439669099475.0,267615859493717.66,262788568735443.34,4437047611295.815,7059088804863.051,77064722206599.8,1377442716318158.5
4.237944078927105,5105798932450345.0,7203609198714874.0,272079680220317.72,267171870470606.16,4717110610823.862,7504911553075.713,81932007618700.38,1464404685790981.2
4.422702960505647,5188036603226479.0,7390207110560131.0,276461991289724.72,271475132830887.94,5006605628546.343,7965777319074.458,86963547439207.23,1554297452826197.8
4.61115701971576,5268799812957123.0,7578342933851799.0,280765730739952.6,275701240857573.06,5305678981657.856,8441921558512.74,92161914198215.73,1647166634558767.0
4.803380160110075,5348139269147405.0,7768122642971338.0,284993600691072.44,279852847929522.53,5614481010309.572,8933586253652.115,97529751773796.23,1743059106165583.8
4.9994477633122765,5426101730703904.0,7959649164267387.0,289148092848789.1,283932400806715.4,5933166008533.571,9441019809144.066,103069774258577.98,1842022979831729.8
5.199436718578522,5502730424868972.0,8153022819555248.0,293231510722197.3,287942161447234.06,6261892169858.749,9964476971384.293,108784765083825.3,1944107588291770.2
5.403425452950093,5578065411913179.0,8348341716157780.0,297245989057635.6,291884226090571.3,6600821545890.024,10504218768701.5,114677576371131.53,2049363472410667.0
5.611493962009095,5652143905346319.0,8545702091589168.0,301193510902219.06,295760542013367.94,6950120016398.818,11060512470081.992,120751128486640.34,2157842372354156.8
5.823723841249277,5725000554077937.0,8745198619587085.0,305075922639704.56,299572922294059.1,7309957269697.525,11633631560489.898,127008409776621.9,2269597221968576.0
6.040198318074262,5796667691883813.0,8946924683072352.0,308894947284153.3,303323058866741.0,7680506792257.156,12223855731138.068,133452476466457.47,2384682146047785.5
6.261002284435747,5867175558662293.0,9150972618702202.0,312652196270326.2,307012534098893.25,8061945866681.576,12831470883311.48,140086452707777.3,2503152460212905.0
6.486222330124463,5936552497252820.0,9357433936937460.0,316349179941808.1,310642831090315.5,8454455577279.508,13456769144548.393,146913530760714.38,2625064673169984.5
6.715946776726952,6004825129002847.0,9566399520933248.0,319987316906693.5,314215342860055.4,8858220822583.596,14100048896155.713,153936971300117.2,2750476491144775.5
6.950265712261491,6072018510787991.0,9777959807058316.0,323567942404927.8,317731380562818.2,9273430334255.424,14761614811178.934,161160103836115.72,2879446824321023.5
7.18927102650672,6138156275788785.0,9992204949431824.0,327092315810076.06,321192180855412.7,9700276701891.297,15441777902068.39,168586327240791.16,3012035795132796.0
7.433056447036854,6203260759995378.0,1.0209224970518126e+16,330561627370544.4,324598912516378.56,10138956403308.879,16140855577385.512,176219110373777.28,3148304748281351.5
7.681717575977592,6267353116131377.0,1.042910989953037e+16,333977004280398.75,327952682407303.75,10589669839947.875,16859171706982.008,184061992800616.7,3288316262363763.0
7.935351927497144,6330453416455135.0,1.0651949900150702e+16,337339516157480.5,331254540852109.9,11052621377066.113,17597056695156.523,192118585598490.38,3432134163015248.5
8.194058966047088,6392580745698386.0,1.0877835388868606e+16,340650179995948.06,334505486500279.3,11528019388451.215,18354847561360.457,200392572244632.84,3579823537479548.0
8.45794014536803,6453753285235468.0,1.1106857145067172e+16,343909964651521.7,337706470731175.8,12016076305402.246,19132888028076.664,208887709583351.03,3731450750532182.5
8.72709894827539,6513988389434240.0,1.1339106413837686e+16,347119794910099.94,340858401649280.9,12517008669765.92,19931528615543.934,217607828868088.06,3887083461690685.5
9.0016409272409,6573302655019011.0,1.1574675002379776e+16,350280555183993.94,343962147713754.0,13031037190836.107,20751126743040.145,226556836875400.1,4046790643653746.0
9.281673745785717,6631711984172025.0,1.1813655370735596e+16,353393092874503.2,347018541040351.44,13558386805947.9,21592046836471.855,235738717088122.62,4210642601918192.5
9.567307220701432,6689231642011572.0,1.205614071751587e+16,356458221434828.56,350028380409093.2,14099286744616.836,22454660442050.305,245157530945324.7,4378710995528409.0
9.85865336511546,6745876309008252.0,1.2302225061195612e+16,359476723163254.06,352992434007056.25,14653970596089.406,23339346345860.32,254817419156948.2,4551068858918157.0
10.155826432417769,6801660128835179.0,1.2552003317490256e+16,362449351752999.9,355911441932239.06,15222676380186.148,24246490699150.31,264722603081294.53,4727790624809234.0
10.458942961066125,6856596752090724.0,1.2805571373263818e+16,365376834622144.0,358786118481446.1,15805646621330.781,25176487149194.848,274877386163727.72,4908952148135243.0
10.768121820287448,6910699376283087.0,1.3063026157368758e+16,368259875044321.5,361617154242569.4,16403128425669.803,26129736975597.86,285286155435183.4,5094630730962356.0
11.083484256693197,6963980782422655.0,1.3324465708774874e+16,371099154098689.56,364405218009362.94,17015373561196.615,27106649231921.203,295953383069233.75,5284905148381822.0
11.405153941827061,7016453368531246.0,1.358998924230346e+16,373895332455563.7,367150958534877.0,17642638540803.074,28107640892536.242,306883627996623.25,5479855675351808.0
11.733257020663602,7068129180343420.0,1.3859697212251348e+16,376649052012448.1,369855006137980.9,18285184708187.6,29133137004611.746,318081537576322.4,5679564114468381.0
12.067922161076874,7119019939447378.0,1.4133691374158522e+16,379360937393620.56,372517974175889.7,18943278326557.348,30183570845158.3,329551849322273.8,5884113824647641.0
12.409280604298411,7169137069087005.0,1.4412074844947466e+16,382031597325074.7,375140460394312.94,19617190670066.055,31259384083064.82,341299392685121.6,6093589750702810.0
12.75746621638438,7218491717824771.0,1.4694952161640044e+16,384661625895480.7,377723048165665.8,20307198117934.984,32361026946065.98,353329090888296.44,6308078453801817.0
13.112615540712067,7267094781245070.0,1.4982429338836636e+16,387251603712724.25,380266307624746.2,21013582251209.87,33488958392593.43,365645962817958.06,6527668142792310.0
13.474867851526309,7314956921861084.0,1.5274613925125556e+16,389802098964700.7,382770796710398.75,21736629952108.434,34643646288466.867,378255124966314.94,6752448706382464.0
13.844365208556836,7362088587371745.0,1.5571615058574072e+16,392313668392211.7,385237062120852.3,22476633505919.723,35825567588389.29,391161793427997.6,6982511746166951.0
14.221252512727972,7408500027402845.0,1.5873543521439394e+16,394786858181060.2,387665640189735.8,23233890705417.215,37035208522218.45,404371285949161.5,7217950610488963.0
14.605677562982532,7454201308853344.0,1.6180511794224596e+16,397222204779836.7,390057057689105.0,24008704957751.953,38273064785989.04,417889024029090.25,7458860429129478.0
14.997791114242183,7499202329957560.0,1.6492634109194352e+16,399620235649269.7,392411832565276.75,24801385393794.19,39539641737669.445,431720535074137.2,7705338148816649.0
15.397746936527026,7543512833164126.0,1.6810026503455058e+16,401981469948522.94,394730474612746.6,25612246979894.254,40835454597637.86,445871454603870.94,7957482569548272.0
15.805701875257567,7587142416923731.0,1.7132806871694932e+16,404306419163341.44,397013486091012.75,26441610632035.79,42161028653870.1,460347528509377.2,8215394381721569.0
16.221815912762718,7630100546470418.0,1.7461095018672482e+16,406595587680578.5,399261362288719.0,27289803332356.246,43516899471836.02,475154615363673.4,8479176204064920.0
16.64625223101797,7672396563673349.0,1.7795012711534188e+16,408849473313172.1,401474592039191.6,28157158248011.35,44903613109101.664,490298688784293.94,8748932622367072.0
17.079177275638333,7714039696030957.0,1.813468373203604e+16,411068567779428.56,403653658191050.0,29044014852361.39,46321726334643.266,505785839848093.25,9024770228999512.0
17.5207608211511,7755039064872087.0,1.8480233928738012e+16,413253357140053.75,405799038037367.25,29950719048459.81,47771806852880.55,521622279558397.5,9306797663228760.0
17.97117603757412,7795403692825142.0,1.8831791269235264e+16,415404322196167.2,407911203706506.0,30877623294824.37,49254433532438.45,537814341364646.7,9595125652315526.0
18.430599558325603,7835142510610598.0,1.9189485892485524e+16,417521938851266.4,409990622517548.0,31825086733473.926,50770196639655.32,554368483734741.6,9889867053398244.0
18.899211549492115,7874264363208522.0,1.95534501612875e+16,419606678439878.75,412037757303024.7,32793475320212.547,52319698076851.9,571291292780302.6,1.0191136896158684e+16
19.37719578048196,7912778015448519.0,1.9923818714961696e+16,421659008025451.4,414053066701424.2,33783161957147.88,53903551625384.75,588589484935123.4,1.0499052426268606e+16
19.864739696091597,7950692157066629.0,2.030072852228193e+16,423679390669809.9,416037005421800.94,34794526627426.164,55522383193508.87,606269909687132.8,1.081373314961563e+16
20.36203449001343,7988015407269538.0,2.0684318934701556e+16,425668285676392.75,417990024482611.06,35827956532172.03,57176831069074.125,624339552364178.6,1.113530087730763e+16
20.869275179813698,8024756318844852.0,2.107473173991721e+16,427626148809270.9,419912571426791.56,36883846229618.04,58867546177089.13,642805536974040.2,1.1463879771455542e+16
21.38666068340997,8060923381852194.0,2.147211121580822e+16,429553432489842.8,421805090514898.0,37962597776413.42,60595192342184.4,661675129099040.6,1.1799596391733616e+16
21.91439389707817,8096525026928144.0,2.1876604184790292e+16,431450585972954.56,423668022898055.1,39064620871097.77,62360446556011.61,680955738845741.1,1.2142579742718306e+16
22.452681775019734,8131569628236089.0,2.2288360068617116e+16,433318055504082.3,425501806772302.1,40190332999729.98,64163999249617.48,700654923850166.6,1.2492961322005114e+16
23.00173541052013,8166065506088846.0,2.2707530943662412e+16,435156284459099.0,427306877515834.7,41340159583659.44,66006554570835.91,720780392339065.2,1.2850875169105086e+16
23.561770118730532,8200020929271281.0,2.313427159671486e+16,436965713468031.56,429083667810535.6,42514534129430.81,67888830666740.836,741340006247758.6,1.3216457915121114e+16
24.133005521105144,8233444117087336.0,2.3568739581313776e+16,438746780524153.9,430832607749092.2,43713898380810.22,69811559971209.26,762341784395143.4,1.3589848833206058e+16
24.715665631527248,8266343241154992.0,2.4011095274653876e+16,440499921079632.06,432554124928926.4,44938702472922.51,71775489497644.0,783793905716447.6,1.3971189889803308e+16
25.309978944157795,8298726426970684.0,2.4461501935085504e+16,442225568128889.0,434248644534046.25,46189405088491.16,73781381136908.69,805704712554371.5,1.4360625796672106e+16
25.91617852304095,8330601755263362.0,2.492012576023494e+16,443924152280761.9,435916589405907.06,47466473616167.766,75830011960530.38,828082714009282.8,1.475830406369894e+16
26.53450209350177,8361977263157235.0,2.538713594576869e+16,445596101820463.75,437558380104253.5,48770384310943.945,77922174529228.42,850936589349159.8,1.516437505249739e+16
27.165192135371807,8392860945160836.0,2.5862704744823732e+16,447241842762288.0,439174434958873.25,50101622456632.9,80058677206829.94,874275191479985.2,1.5578992030798284e+16
27.808495978079243,8423260753998971.0,2.634700752812595e+16,448861798893939.3,440765170113130.4,51460682530411.66,82240344479633.84,898107550477384.8,1.6002311227632456e+16
28.464665897640828,8453184601302915.0,2.6840222844816068e+16,450456391813319.06,442330999560086.75,52848068369411.3,84468017281290.44,922442877180258.2,1.64344918893088e+16
29.133959215593645,8482640358173547.0,2.7342532484003284e+16,452026040958522.94,443872335171952.75,54264293339347.45,86742553323265.28,947290566847221.1,1.6875696336189444e+16
29.816638399905518,8511635855630428.0,2.7854121537063876e+16,453571163631787.3,445389586723611.4,55709880505174.586,89064827430951.81,972660202876707.2,1.732609002026523e+16
30.51297116790363,8540178884960134.0,2.837517846070338e+16,455092175018039.4,446883161910824.75,57185362803755.69,91435731885514.58,998561560591598.8,1.7785841583533538e+16
31.223230591261704,8568277197975027.0,2.8905895140797984e+16,456589488198688.44,448353466363784.25,58691283218532.94,93856176771529.33,1025004611089263.0,1.8255122917181224e+16
31.947695203086937,8595938507193749.0,2.9446466957031464e+16,458063514161246.9,449800903656553.25,60228194956185.414,96327090330502.5,1051999525157938.0,1.8734109221575324e+16
32.686649107148675,8623170485953645.0,2.999709284834191e+16,459514661805319.56,451225875312948.0,61796661625259.67,98849419320346.47,1079556677260409.1,1.9222979067064016e+16
33.44038208929165,8649980768464618.0,3.0557975379192656e+16,460943337945476.1,452628780809361.4,63397257416757.62,101424129380892.6,1107686649585945.1,1.9721914455589584e+16
34.20918973107749,8676376949813487.0,3.1129320806681116e+16,462349947311476.44,454010017574983.25,65030567286664.695,104052205405526.88,1136400236171508.2,2.023110088311752e+16
34.993373525699035,8702366585926972.0,3.171133914849743e+16,463734892546306.7,455369980989870.4,66697187140401.3,106734651919030.6,1165708447093265.2,2.0750727402881588e+16
35.793240996213015,8727957193501058.0,3.2304244251744404e+16,465098574202412.44,456709064381246.5,68397724019176.664,109472493461716.33,1195622512729405.0,2.1280986689449384e+16
36.60910581613728,8753156249904134.0,3.290825386263097e+16,466441390736528.8,458027659018431.25,70132796288226.695,112266774979945.81,1226153888095446.2,2.182207510360826e+16
37.44128793246003,8777971193059985.0,3.352358969704798e+16,467763738503462.4,459326154106727.44,71903033826911.14,115118562223123.94,1257314257252991.0,2.2374192758074756e+16
38.29011369110923,8802409421317658.0,3.4150477512036972e+16,469066011749137.94,460604936780600.06,73709078220647.94,118028942147256.1,1289115537793155.0,2.2937543584028476e+16
39.15591596493141,8826478293312986.0,3.4789147178159464e+16,470348602603232.0,461864392096438.8,75551582954658.67,120999023325169.72,1321569885395789.0,2.3512335398471212e+16
40.03903428423004,8850185127827827.0,3.5439832752776216e+16,471611901071669.7,463104903025182.8,77431213609495.66,124029936363491.62,1354689698465621.8,2.4098779972412884e+16
40.93981496991464,8873537203651255.0,3.610277255424177e+16,472856295029223.8,464326850445069.94,79348648058322.47,127122834326477.45,1388487622846546.5,2.469709309988492e+16
41.85861126931294,8896541759447644.0,3.677820923702261e+16,474082170212485.6,465530613134723.9,81304576665915.3,130278893166797.97,1422976556615247.2,2.530749466777978e+16
42.7957834946992,8919205993635417.0,3.746638986774229e+16,475289910213408.0,466716567766811.94,83299702489350.47,133499312163373.98,1458169654955392.5,2.593020872651861e+16
43.751699164593184,8941537064280427.0,3.816756600216091e+16,476479896473623.0,467885088902470.1,85334741480339.27,136785314366369.25,1494080335113609.2,2.656546356154415e+16
44.72673314788505,8963542089007467.0,3.8881993763090264e+16,477652508279720.56,469036548986666.6,87410422689171.97,140138147049436.77,1530722281438553.5,2.7213491765639308e+16
