t(s),Total solute volume 1,Total retention volume 1,Total 1 volume 1,Total 2 volume 1,Total 3 volume 1,Total 4 volume 1,Total 5 volume 1,Total 6 volume 1
0.1,1038034012882719.0,1307672365282961.0,121693262551923.95,147945089848319.12,0.0,0.0,0.0,0.0
0.202,1531061553421251.5,1999532583017969.8,179493035957727.2,218213507550632.5,69285900497.75461,152984426131.821,2733248505347.3486,67808967256383.19
0.30604000000000003,1883879084960230.8,2549129529804888.5,220855376960509.84,268498587103069.94,172203582475.57874,380232846664.03204,6793396905391.245,168550647446549.44
0.41216080000000005,2164511648922792.5,3032956281845900.0,253755158757258.8,308495553003109.06,299751370892.5943,661871537748.368,11825339793720.93,293406958460377.1
0.5204040160000001,2399092876539990.5,3479334693895896.0,281256141160995.28,341929083436010.75,447426571734.34735,987960186050.3075,17651475682768.1,437969730318348.1
0.6308120963200001,2600961427976525.5,3902224348519878.0,304922073593495.3,370700261910478.75,612445213473.7126,1352353236943.22,24162005065242.473,599513781523724.8
0.7434283382464002,2778048737640186.5,4309665930515030.0,325682792768993.56,395939510734788.4,792897276629.9512,1750834722009.9573,31281604129727.273,776169553242692.0
0.8582969050113283,2935544818839667.5,4706775499988379.0,344146746626153.1,418386533031389.06,987390457352.1423,2180331732805.1387,38955371816727.35,966574307484280.1
0.9754628431115548,3077076122428881.5,5097044109290367.0,360739079844573.8,438558186244256.56,1194869874335.5999,2638516360779.444,47141717734931.0,1169695616802609.5
1.094972099973786,3205300359515097.0,5482982278424032.0,375771367510265.94,456833258842576.7,1414515429228.2122,3123579087404.994,55808313385658.69,1384730884653802.0
1.2168715419732616,3322236986570612.5,5866471505049320.0,389480359329459.1,473499572487216.0,1645678353682.2769,3634088693404.1836,64929589213346.695,1611045230401602.2
1.3412089728127268,3429464514237828.5,6248970235202501.0,402051111002017.7,488782103334272.06,1887839516489.9275,4168900211146.2754,74485090032096.19,1848130676868655.5
1.4680331522689813,3528245117021176.0,6631641515746389.0,413631592760114.9,502860741946807.94,2140580715412.7974,4727091545232.945,84458342657839.97,2095578049099810.0
1.597393815314361,3619606966929997.5,7015435761669178.0,424342341700966.9,515882027841379.9,2403564164732.7905,5307918187873.279,94836046833424.53,2353056896010804.0
1.729341691620648,3704400690605402.5,7401146453078081.0,434283080502495.25,527967196001666.44,2676517394078.4277,5910779881409.06,105607479608466.03,2620300709084559.0
1.863928525453061,3783339302174734.5,7789448802518462.0,443537398926341.25,539217868281414.44,2959221854364.3623,6535195465477.251,116764045950431.84,2897095769865706.0
2.001207095962122,3857027200902148.5,8180927321876824.0,452176153339158.1,549720186274872.6,3251504142684.3994,7180783506345.343,128298932663036.7,3183272561048582.0
2.1412312378813647,3925981708688423.0,8576095931069647.0,460259991647811.25,559547880934306.2,3553229126141.8887,7847247118760.12,140206837210196.52,3478699036344006.5
2.284055862638992,3990649382669389.5,8975412922726795.0,467841265696571.9,568764597511990.8,3864294473521.2534,8534361896070.667,152483752073930.22,3783275268405325.0
2.4297369798917723,4051418583634060.0,9379292296998508.0,474965504717693.1,577425686865460.6,4184626250974.9243,9241966189532.967,165126791083884.38,4096929138256891.5
2.578331719489608,4108629306758794.5,9788112482882622.0,481672567831326.2,585579606576206.2,4514175335473.162,9969953193129.457,178134048005069.75,4419612825182620.5
2.7298983538794,4162580974551522.0,1.0202223143985454e+16,487997557646422.5,593269031633745.0,4852914466098.388,10718264436688.38,191504480286995.5,4751299920963968.0
2.884496320956988,4213538688643933.5,1.0621950557699118e+16,493971553185653.4,600531745468060.0,5200835799396.05,11486884391936.945,205237812697054.12,5091983037513077.0
3.0421862473761276,4261738299281520.0,1.1047601916637932e+16,499622204203873.2,607401362475203.2,5557948867729.266,12275835968392.348,219334456852249.78,5441671808988940.0
3.2030299723236504,4307390556062605.0,1.1479468805280498e+16,504974217797394.06,613907919598566.1,5924278863233.83,13085176728210.143,233795443596249.78,5800391212634237.0
3.3670905717701234,4350684536362540.0,1.1917830037955202e+16,510049760333133.1,620078364962699.2,6299865187336.199,13914995687447.988,248622365853719.8,6168180149568322.0
3.5344323832055258,4391790499830724.5,1.2362953996992202e+16,514868792093769.1,625936964708550.1,6684760218735.314,14765410599767.92,263817330104261.75,6545090239436380.0
3.7051210308696363,4430862282431279.0,1.2815100575857538e+16,519449347941597.25,631505644202502.2,7079028262516.659,15636565640166.203,279382915003573.5,6931184792375904.0
3.879223451487029,4468039317774838.0,1.3274522807302638e+16,523807774288079.5,636804276125286.1,7482744650531.575,16528629422798.334,295322135973867.3,7326537929067238.0
4.0568079205167695,4503448354298546.5,1.3741468238278636e+16,527958930406362.94,641850925211912.5,7895994968941.395,17441793299698.543,311638414813054.25,7731233825280102.0
4.237944078927105,4537204922368819.0,1.4216180099716776e+16,531916360426145.4,646662057349485.4,8318874393325.686,18376269897128.527,328335553549704.7,8145366061732161.0
4.422702960505647,4569414594333658.0,1.4698898308979728e+16,535692441055115.9,651252719165301.1,8751487115299.298,19332291854116.105,345417711910634.1,8569037063545585.0
4.61115701971576,4600174072040284.0,1.5189860334942998e+16,539298509073394.25,655636693024556.4,9193945847398.752,20310110733962.87,362889387879033.5,9002357616344381.0
4.803380160110075,4629572129716196.0,1.5689301949633354e+16,542744971871602.2,659826631413842.1,9646371395253.598,21309996084477.3,380755400910027.75,9445446448241946.0
4.9994477633122765,4657690434922325.0,1.6197457885670258e+16,546041403694784.8,663834173946915.6,10108892287877.078,22332234626707.082,399020877442287.0,9898429868749386.0
5.199436718578522,4684604266184304.0,1.6714562415099164e+16,549196629773465.1,667670049644630.4,10581644458388.93,23377129555206.08,417691238402626.5,1.0361441457080562e+16
5.403425452950093,4710383142640822.0,1.7240849862320906e+16,552218800140061.94,671344166675111.0,11064770968688.99,24444999935537.184,436772188448110.8,1.0834621793512562e+16
5.611493962009095,4735091378426955.0,1.7776555061536294e+16,555115454621684.7,674865691366890.9,11558421772594.918,25536180186905.543,456269706729412.75,1.1318118228431854e+16
5.823723841249277,4758788572395427.0,1.8321913767296824e+16,557893580252281.5,678243118006079.5,12062753512776.713,26651019639627.18,476190038991501.44,1.1812084684499106e+16
6.040198318074262,4781530042059148.0,1.887716302528507e+16,560559662145632.2,681484330683747.4,12577929347504.467,27789882158648.62,496539690854713.8,1.231668148803568e+16
6.261002284435747,4803367209234987.0,1.9442541509261616e+16,563119728706041.6,684596658259515.4,13104118803794.42,28953145825586.41,517325422141683.56,1.2832075226290002e+16
6.486222330124463,4824347943714055.0,2.0018289829148824e+16,565579391918316.2,687586923342953.1,13641497654017.346,30141202672816.26,538554242134528.5,1.3358438627712164e+16
6.715946776726952,4844516870331577.0,2.060465081443535e+16,567943883346900.6,690461486058495.8,14190247813435.8,31354458464028.375,560233405662554.56,1.3895950462758378e+16
6.950265712261491,4863915644018005.0,2.1201869776435036e+16,570218086381338.0,693226283246917.9,14750557256477.986,32593332516419.98,582370409934223.5,1.4444795463081658e+16
7.18927102650672,4882583196754124.0,2.1810194752400976e+16,572406565187862.9,695886863662426.6,15322619949846.178,33858257560336.44,604972992038540.6,1.5005164257247842e+16
7.433056447036854,4900555959799823.0,2.2429876734050228e+16,574513590762288.1,698448419645698.8,15906635800803.156,35149679632716.34,628049127050796.6,1.5577253321358114e+16
7.681717575977592,4917868064102655.0,2.3061169882687948e+16,576543164424749.8,700915815686938.1,16502810619193.41,36468058001165.54,651607026685910.0,1.6161264943167402e+16
7.935351927497144,4934551521399173.0,2.3704331732808348e+16,578499039051026.9,703293614237250.9,17111356091935.938,37813865115884.39,675655138449820.0,1.6757407198463236e+16
8.194058966047088,4950636388190275.0,2.4359623385792244e+16,580384738296070.1,705586099079100.6,17732489768882.016,39187586587018.17,700202145245531.5,1.736589393862538e+16
8.45794014536803,4966150914488349.0,2.502730969510387e+16,582203574032295.0,707797296526400.8,18366435059067.266,40589721185299.29,725256965395738.1,1.7986944788416684e+16
8.72709894827539,4981121678993122.0,2.5707659444201372e+16,583958662196822.2,709930994690366.2,19013421236502.633,42020780864110.77,750828753048612.8,1.8620785153171812e+16
9.0016409272409,4995573712145947.0,2.6400945518223492e+16,585652937217684.0,711990761017729.0,19673683454752.61,43481290801321.18,776926898937333.8,1.92676462346487e+16
9.281673745785717,5009530608334805.0,2.710744507037774e+16,587289165168098.2,713979958282693.8,20347462769635.168,44971789459441.22,803561031467440.8,1.9927765054895652e+16
9.567307220701432,5023014628369059.0,2.7827439683843824e+16,588869955780035.2,715901759192073.9,21035006169458.098,46492828662821.9,830741018109191.2,2.060138448756121e+16
9.85865336511546,5036046793211041.0,2.8561215529908612e+16,590397773432776.8,717759159744321.1,21736566612271.316,48044973690764.11,858476967074693.0,2.1288753296142748e+16
10.155826432417769,5048646969836086.0,2.93090635229638e+16,591874947218669.2,719554991466675.2,22452403069675.637,49628803385541.484,886779229262091.4,2.1990126178725092e+16
10.458942961066125,5060833949994126.0,3.0071279472927504e+16,593303680176682.4,721291932640607.2,23182780576781.62,51244910274454.51,915658400450987.8,2.270576381881388e+16
10.768121820287448,5072625522558002.0,3.084816423558663e+16,594686057774127.4,722972518613202.2,23927970287955.797,52893900705137.89,945125323735258.9,2.3435932941912936e+16
11.083484256693197,5084038540068665.0,3.1640023861305068e+16,596024055708027.4,724599151281478.4,24688249538034.125,54576394993429.91,975191092180944.1,2.4180906377534476e+16
11.405153941827061,5095088980020584.0,3.2447169742495324e+16,597319547089896.5,726174107827058.6,25463901908718.832,56293027583197.05,1005867051698361.5,2.4940963126367564e+16
11.733257020663602,5105792001372883.0,3.326991876021018e+16,598574309070755.2,727699548770350.9,26255217299904.87,58044447217576.305,1037164804118919.1,2.571638843235981e+16
12.067922161076874,5116161996719809.0,3.4108593430175824e+16,599790028957341.4,729177525406142.0,27062492005712.277,59831317121160.586,1069096210468122.0,2.6507473859497596e+16
12.409280604298411,5126212640510106.0,3.496352204855854e+16,600968309865035.6,730609986676009.5,27886028795026.492,61654315192712.24,1101673394427425.2,2.7314517373092224e+16
12.75746621638438,5135956933663793.0,3.583503883772739e+16,602110675948519.5,731998785527306.6,28726136996368.72,63514134208037.15,1134908745978365.5,2.813782342540499e+16
13.112615540712067,5145407244900686.0,3.6723484092254664e+16,603218577246870.9,733345684803481.4,29583132586941.65,65411482032698.016,1168814925223288.0,2.897770304546072e+16
13.474867851526309,5154575349063031.0,3.7629204325372104e+16,604293394176312.9,734652362705985.5,30457338285711.273,67347081844289.734,1203404866377720.8,2.98344739329191e+16
13.844365208556836,5163472462687351.0,3.855255241608564e+16,605336441700441.5,735920417864118.1,31349083650404.426,69321672364029.82,1238691781930044.8,3.070846055588929e+16
14.221252512727972,5172109277055477.0,3.9493887757133416e+16,606348973204959.2,737151374045616.6,32258705178313.555,71336008097457.11,1274689166964787.8,3.1599994252586864e+16
14.605677562982532,5180495988933323.0,4.045357640395795e+16,607332184101291.8,738346684537664.1,33186546410814.605,73390859584057.27,1311410803646290.5,3.250941333674449e+16
14.997791114242183,5188642329185664.0,4.143199122485123e+16,608287215181255.5,739507736225204.1,34132958041516.574,75487013655662.36,1348870765860147.0,3.3437063206701788e+16
15.397746936527026,5196557589438381.0,4.2429512052421576e+16,609215155742759.6,740635853390955.5,35098298027969.598,77625273703492.97,1387083424010061.2,3.4383296458107976e+16
15.805701875257567,5204250646943199.0,4.344652583651806e+16,610117046504822.2,741732301259233.0,36082931706870.71,79806459953745.34,1426063449968335.0,3.5348473000181836e+16
16.221815912762718,5211729987786274.0,4.448342679874324e+16,610993882328417.8,742798289303749.5,37087231912712.58,82031409751627.38,1465825822178461.8,3.6332960175481944e+16
16.64625223101797,5219003728569513.0,4.554061658867564e+16,611846614758259.9,743834974337718.0,38111579099830.39,84300977853782.97,1506385830908697.8,3.733713288314788e+16
17.079177275638333,5226079636681410.0,4.661850444191618e+16,612676154399250.1,744843463402955.1,39156361467808.46,86616036729054.3,1547759083655743.5,3.836137370557994e+16
17.5207608211511,5232965149264796.0,4.771750734006724e+16,613483373140152.2,745824816473235.5,40221975090212.98,88977476867544.31,1589961510697970.5,3.940607303853333e+16
17.97117603757412,5239667390979127.0,4.88380501727489e+16,614269106235931.6,746780048985840.5,41308824046628.29,91386207097965.61,1633009370797901.5,4.047162922460546e+16
18.430599558325603,5246193190646587.0,4.99805659017487e+16,615034154259261.0,747710134214055.5,42417320557971.23,93843154913260.25,1676919257053883.2,4.155844869010365e+16
18.899211549492115,5252549096864002.0,5.114549572740185e+16,615779284930770.8,748616005492241.0,43547885125071.04,96349266804506.3,1721708102901056.2,4.266694608528426e+16
19.37719578048196,5258741392655873.0,5.233328925729066e+16,616505234836884.4,749498558304224.9,44700946670503.57,98905508603121.55,1767393188262031.2,4.3797544427958e+16
19.864739696091597,5264776109236686.0,5.354440467734974e+16,617212711043233.0,750358652244792.5,45876942683668.195,101512865831391.56,1813992145847838.2,4.495067525046209e+16
20.36203449001343,5270659038946432.0,5.4779308925463736e+16,617902392611158.4,751197112863300.6,47076319369109.625,104172344061365.33,1861522967609775.5,4.6126778750002664e+16
20.869275179813698,5276395747417156.0,5.603847786763697e+16,618574932024028.5,752014733397716.5,48299531798079.64,106884969282159.08,1910004011343204.5,4.732630394237462e+16
21.38666068340997,5281991585024070.0,5.732239647681346e+16,619230956529713.0,752812276406656.5,49547044063342.664,109651788275727.53,1959454007444199.5,4.854970881906975e+16
21.91439389707817,5287451697670384.0,5.86315590144269e+16,619871069404942.2,753590475306518.4,50819329437232.016,112473869001162.42,2009892065820320.0,4.979746050778635e+16
22.452681775019734,5292781036951594.0,5.996646921475365e+16,620495851146895.4,754350035820118.6,52116870532963.28,115352300987593.7,2061337682956874.2,5.1070035436357656e+16
23.00173541052013,5297984369740795.0,6.132764047214136e+16,621105860596944.5,755091637342836.1,53440159469214.62,118288195735766.62,2113810749140014.5,5.236791950011584e+16
23.561770118730532,5303066287233968.0,6.2715596031188584e+16,621701636001057.4,755815934231787.5,54789698037989.07,121282687128383.1,2167331555838416.2,5.369160823271697e+16
24.133005521105144,5308031213490801.0,6.4130869179941144e+16,622283696011094.4,756523557023105.8,56165997875769.63,124336931849297.89,2221920803245131.0,5.5041606980445864e+16
24.715665631527248,5312883413504395.0,6.55740034461782e+16,622852540630833.5,757215113582059.6,57569580637986.41,127452109811663.3,2277599607981437.0,5.641843108002991e+16
25.309978944157795,5317627000830219.0,6.7045552796855304e+16,623408652110367.0,757891190190382.1,59000978176810.49,130629424595132.72,2334389510964696.5,5.782260603998766e+16
25.91617852304095,5322265944802984.0,6.854608184076968e+16,623952495792149.5,758552352574825.4,60460732722296.164,133870103892224.1,2392312485442183.5,5.925466772554299e+16
26.53450209350177,5326804077367320.0,7.007616603451724e+16,624484520911802.5,759199146880727.8,61949397066888.94,137175399963962.38,2451390945192963.5,6.0715162547133496e+16
27.165192135371807,5331245099547329.0,7.163639189180469e+16,625005161356555.9,759832100594052.9,63467534753324.05,140546590104917.86,2511647752900207.5,6.2204647652548344e+16
27.808495978079243,5335592587576955.0,7.322735719618186e+16,625514836383948.9,760451723415146.2,65015720265933.22,143984977117764.8,2573106228696000.0,6.37236911227261e+16
28.464665897640828,5339849998712851.0,7.484967121725926e+16,626013951303289.2,761058508087183.2,66594539225388.375,147491889797488.97,2635790158881312.0,6.5272872171251816e+16
29.133959215593645,5344020676748961.0,7.650395493047376e+16,626502898122158.0,761652931182152.5,68204588586900.21,151068683425375.66,2699723804823465.0,6.685278134758478e+16
29.816638399905518,5348107857251277.0,7.819084124046574e+16,626982056160099.5,762235453846913.9,69846476841900.49,154716740272922.84,2764931912033609.5,6.846402074405896e+16
30.51297116790363,5352114672529555.0,7.99109752081295e+16,627451792631474.4,762806522511812.9,71520824223232.06,158437470115807.38,2831439719427032.0,7.010720420669073e+16
31.223230591261704,5356044156362020.0,8.166501428140085e+16,627912463199365.5,763366569564052.8,73228262913868.81,162232310758067.78,2899272968768897.5,7.178295754983448e+16
31.947695203086937,5359899248487661.0,8.345362852984056e+16,628364412502230.6,763916013987956.5,74969437259196.88,166102728566637.22,2968457914308255.0,7.349191877472845e+16
32.686649107148675,5363682798880040.0,8.52775008830785e+16,628807974654920.9,764455261974090.0,76745003982875.88,170050219016393.44,3039021332603133.5,7.523473829196694e+16
33.44038208929165,5367397571815255.0,8.713732737317498e+16,629243473725611.4,764984707499044.9,78555632406313.61,174076307245876.06,3110990532539867.0,7.701207914794283e+16
34.20918973107749,5371046249746277.0,8.903381738096376e+16,629671224189985.8,765504732877632.0,80402004671773.42,178182548623833.34,3184393365549393.5,7.882461725530498e+16
34.993373525699035,5374631436994805.0,9.09676938864343e+16,630091531364058.0,766015709289045.6,82284815969142.84,182370529326768.7,3259258236023837.5,8.067304162746653e+16
35.793240996213015,5378155663271096.0,9.293969372321042e+16,630504691816824.5,766517997278542.5,84204774766389.38,186641866927650.03,3335614111936484.5,8.255805461721358e+16
36.60910581613728,5381621387031752.0,9.495056783719221e+16,630910993763894.4,767011947235998.2,86162603043729.22,190998210995956.88,3413490535668315.0,8.448037215945254e+16
37.44128793246003,5385030998684456.0,9.70010815494101e+16,631310717443212.4,767497899852661.2,88159036531528.12,195441243709240.0,3492917635044488.5,8.644072401814469e+16
38.29011369110923,5388386823648553.0,9.909201482315565e+16,631704135473851.0,767976186557357.6,90194824951967.78,199972680476374.56,3573926134584036.0,8.843985403746362e+16
39.15591596493141,5391691125279280.0,1.0122416253544502e+17,632091513198841.6,768447129933276.0,92270732264490.95,204594270572686.1,3656547366966359.0,9.047852039723003e+16
40.03903428423004,5394946107663459.0,1.0339833475287112e+17,632473109012913.6,768911044116406.0,94387536915059.44,209307797787139.9,3740813284717818.5,9.25574958726585e+16
40.93981496991464,5398153918293768.0,1.0561535701190346e+17,632849174676019.5,769368235176697.5,96546032089233.98,214115081081777.22,3826756472122173.5,9.467756809846398e+16
41.85861126931294,5401316650628021.0,1.0787607060368776e+17,633219955613371.2,769819001482825.6,98747025969109.27,219017975263593.3,3914410157358335.0,9.683953983737248e+16
42.7957834946992,5404436346540221.0,1.101813328634048e+17,633585691202784.6,770263634051503.2,100991341994115.17,224018371669051.47,4003808224869220.5,9.904422925307806e+16
43.751699164593184,5407514998668789.0,1.1253201746424154e+17,633946615049968.2,770702416882183.5,103279819125710.2,229118198861432.06,4094985227965470.5,1.0129247018768768e+17
