t(s),Total solute volume 1,Total retention volume 1,Total 1 volume 1,Total 2 volume 1,Total 3 volume 1,Total 4 volume 1,Total 5 volume 1,Total 6 volume 1
0.1,919935341976466.9,1072551036543860.6,72903600131805.52,79712094435588.67,0.0,0.0,0.0,0.0
0.202,1385968450766329.5,1615938016816219.5,109836077946147.8,120093710672562.69,68276524.82505144,128057907.29351573,1791431558.3749788,37789665189.719376
0.30604000000000003,1740897868768546.5,2029810766160798.2,137963742205544.28,150848228173892.12,173234129.2745741,324914070.37350905,4545310498.41988,95883554117.43532
0.41216080000000005,2041105324946657.2,2379900472692028.0,161754766853428.2,176861105615997.84,307710944.2549972,577135831.3898706,8073717844.850103,170316711324.70367
0.5204040160000001,2307701884488198.5,2690818639234554.0,182882174543301.28,199961609896313.4,468528562.2827196,878761840.5616633,12293257662.527418,259329758672.10934
0.6308120963200001,2551205375549901.5,2974826990302780.5,202179488575059.62,221061107376766.6,653982154.4360206,1226594561.1015673,17159198349.545124,361979025988.78796
0.7434283382464002,2777728747893651.0,3239052035672626.0,220131151742017.62,240689283148201.6,863097066.4428366,1618805956.1631815,22645966803.41471,477725018934.8299
0.8582969050113283,2991187973955769.0,3488059080504844.5,237047499430269.78,259185454936485.6,1095323406.239162,2054364663.7994647,28739134911.319916,606263359342.5616
0.9754628431115548,3194266462519465.5,3724976545922753.5,253141188065281.38,276782139231376.44,1350385575.0558295,2532753780.7418823,35431471511.48643,747441495764.1304
1.094972099973786,3388896405185295.5,3952057121488935.5,268565341152338.56,293646759800356.0,1628198943.1364887,3053814581.210109,42720756114.91263,901212581309.7017
1.2168715419732616,3576523023830710.5,4170985821695436.5,283434490521361.9,309904544644309.56,1928819784.4068716,3617652615.4906945,50608465283.16615,1067607761377.4031
1.3412089728127268,3758260420260505.5,4383061672195112.5,297836927195617.2,325652030318577.1,2252413337.268324,4224577805.4797554,59098934602.9846,1246718494676.3025
1.4680331522689813,3934988795539074.0,4589311045231449.0,311842405889007.56,340965485956175.94,2599232482.4310317,4875064453.313573,68198799232.60177,1438684751027.0034
1.597393815314361,4107417894190314.0,4790561620533366.0,325507172870945.9,355906410686886.3,2969603001.105743,5569723591.975766,77916607104.55496,1643686851527.2434
1.729341691620648,4276129972755180.0,4987492476181111.0,338877371164964.44,370525256848652.3,3363913102.2697334,6309283342.886753,88262544141.08449,1861939671730.898
1.863928525453061,4441609819973945.5,5180669084659378.0,351991419606537.44,384864031226510.75,3782605826.316506,7094574668.376146,99248234940.48947,2093688436955.9905
2.001207095962122,4604266292439601.0,5370568417978715.0,364881719513752.1,398958161109889.2,4226173449.7293377,7926520877.231978,110886595966.61021,2339205625192.296
2.1412312378813647,4764448119404855.0,5557597372046604.0,377575907196347.06,412837863773934.44,4695153320.703549,8806129814.1065,123191726283.72855,2598788662061.337
2.284055862638992,4922455733860459.0,5742106558685866.0,390097791552266.25,426529171638565.3,5190124743.055187,9734488015.066282,136178825796.54724,2872758196018.5967
2.4297369798917723,5078550284447056.0,5924400811248834.0,402468068249180.9,440054713147671.9,5711706644.768799,10712756334.794384,149864134077.62735,3161456807864.5366
2.578331719489608,5232960606560364.0,6104747311207505.0,414704872174901.7,453434316813089.44,6260555845.368374,11742166696.93361,164264884906.8306,3465248051712.528
2.7298983538794,5385888689419266.0,6283381961460457.0,426824210694953.9,466685484934257.75,6837365788.522233,12824019717.01334,179399273017.63702,3784515753469.9546
2.884496320956988,5537514016804602.0,6460514446668371.0,438840307650101.75,479823769721799.7,7442865642.143913,13959683014.644691,195286430485.8763,4119663512733.111
3.0421862473761276,5687997052095638.0,6636332296099618.0,450765879540658.7,492863075274795.4,8077819693.364879,15150590078.77257,211946410855.35843,4471114367897.405
3.2030299723236504,5837482064691059.0,6811004178737023.0,462612359516425.25,505815902489225.0,8743026983.670805,16398239583.3739,229400179564.9531,4839310594200.992
3.3670905717701234,5986099443477631.0,6984682600450199.0,474390080715888.0,518693549519280.2,9439321142.484512,17704195075.360256,247669609582.56265,5224713611611.222
3.5344323832055258,6133967605310524.0,7157506130489124.0,486108427513793.25,531506277158857.4,10167570387.83378,19070085006.359924,266777490629.40042,5627805359930.389
3.7051210308696363,6281194588162324.0,7329601253438023.0,497775961763224.25,544263446837754.2,10928677664.329014,20497602870.03149,286747496121.4792,6049082898061.822
3.879223451487029,6427879375033642.0,7501083921249829.0,509400527733012.75,556973635413186.06,11723580910.722254,21988507885.49147,307604244998.5753,6489066736198.014
4.0568079205167695,6574113021054983.0,7672060862009688.0,520989341415997.3,569644732782285.4,12553253425.678917,23544625562.788208,329373274918.00903,6948295602509.251
4.237944078927105,6719979604717649.0,7842630690622504.0,532549065916027.2,582284024318684.0,13418704331.32875,25167848602.409527,352081063486.544,7427328053730.608
4.422702960505647,6865557040653071.0,8012884856749771.0,544085875859612.0,594898261299591.1,14320979120.011175,26860137920.786983,375755042606.5674,7926742777841.41
4.61115701971576,7010917776947109.0,8182908458169769.0,555605512657098.6,607493721327832.8,15261160277.125908,28623523818.54434,400423614819.1221,8447138938820.2705
4.803380160110075,7156129396373058.0,8352780942157875.0,567113332149560.8,620076260428502.0,16240367973.7657,30460107279.62961,426116171477.9211,8989136560025.617
4.9994477633122765,7301255137203673.0,8522576713141476.0,578614345882434.2,632651358177148.9,17259760824.056065,32372061391.8126,452863112621.18915,9553376943392.264
5.199436718578522,7446354346337500.0,8692365661475869.0,590113257015130.2,645224156963028.5,18320536703.13562,34361632880.92146,480695868434.6279,10140523122193.541
5.403425452950093,7591482875163383.0,8862213625491966.0,601614491692781.6,657799496290625.6,19423933622.531372,36431143752.72979,509646922220.3559,10751260345572.357
5.611493962009095,7736693426745163.0,9032182796820306.0,613122226560115.0,670381942863103.2,20571230660.35764,38582993037.673584,539749834804.3622,11386296593417.863
5.823723841249277,7882035861431763.0,9202332077274096.0,624640412980647.4,682975817063304.0,21763748944.326065,40819658634.62115,571039270329.6554,12046363120473.941
6.040198318074262,8027557466806845.0,9372717394185616.0,636172798429819.2,695585216344818.0,23002852686.017567,43143699250.79323,603551023394.4869,12732215028821.787
6.261002284435747,8173303196925070.0,9543391979963212.0,647722945454127.6,708214035961699.9,24289950265.25761,45557756435.65792,637322047505.2235,13444631868095.768
6.486222330124463,8319315884992512.0,9714406620715314.0,659294248525760.4,720865987397180.5,25626495363.76708,48064556707.24969,672390484822.1675,14184418262973.78
6.715946776726952,8465636433001201.0,9885809878034238.0,670889949070875.8,733544614795431.9,27013988147.539978,50666913769.88279,708795697183.9495,14952404567638.912
6.950265712261491,8612303981294068.0,1.00576482874085e+16,682513148907376.9,746253309654298.9,28453976497.642746,53367730822.68724,746578298402.4357,15749447547043.031
7.18927102650672,8759356060592705.0,1.0229966536217102e+16,694166822292915.0,758995323998478.1,29948057289.3371,56170002958.78271,785780187825.6372,16576431084918.605
7.433056447036854,8906828728653482.0,1.0402807623829976e+16,705853826754678.4,771773782220705.6,31497877719.610813,59076819655.24979,826444585170.7952,17434266918584.857
7.681717575977592,9054756693407746.0,1.0576213005979046e+16,717576912848110.2,784591691751830.2,33105136683.360806,62091367354.35713,868616066634.0796,18323895400684.01
7.935351927497144,9203173424184828.0,1.0750222725262872e+16,729338732971144.8,797451952698232.5,34771586198.61493,65216932136.76795,912340602287.0393,19246286288061.203
8.194058966047088,9352111252396680.0,1.0924875529394396e+16,741141849343352.5,810357366566141.2,36499032881.30408,68456902487.68834,957665594773.2356,20202439558071.438
8.45794014536803,9501601462880740.0,1.1100208978585514e+16,752988741244719.1,823310644176431.1,38289339470.211945,71814772157.13155,1004639919321.4875,21193386252660.984
8.72709894827539,9651674376938338.0,1.127625954327982e+16,764881811596337.8,836314412859903.9,40144426402.83214,75294143115.66885,1053313965094.9495,22220189350626.863
9.0016409272409,9802359427975152.0,1.1453062693289882e+16,776823392954789.8,849371223011482.1,42066273442.95703,78898728607.2124,1103739677897.5818,23283944668510.586
9.281673745785717,9953685230533836.0,1.1630652979261206e+16,788815752982907.8,862483554071889.9,44056921360.91213,82632356300.5453,1155970604262.035,24385781790632.473
9.567307220701432,1.0105679643412706e+16,1.1809064107272354e+16,800861099451833.9,875653819996844.2,46118473667.426506,86498971541.45633,1210061936944.9263,25526865028815.12
9.85865336511546,1.0258369827479204e+16,1.1988329007281764e+16,812961584822645.2,888884374266582.0,48253098402.213615,90502640707.49496,1266070561857.7349,26708394412389.1
10.155826432417769,1.0411782298714502e+16,1.2168479896046998e+16,825119310450088.5,902177514482160.0,50463029978.40142,94647554667.48126,1324055106463.1504,27931606709113.39
10.458942961066125,1.0565942976963184e+16,1.2349548335069458e+16,837336330445905.0,915535486589592.1,52750571084.02429,98938032348.04977,1384075989668.7214,29197776477680.223
10.768121820287448,1.0720877230806508e+16,1.2531565284054418e+16,849614655234984.2,928960488768106.9,55118094641.85341,103378524409.61646,1446195473251.3137,30508217152511.85
11.083484256693197,1.0876609918931258e+16,1.271456115031912e+16,861956254833786.4,942454675014748.0,57568045828.90621,107973617034.28854,1510477714847.543,31864282161590.504
11.405153941827061,1.1033165428324254e+16,1.2898565834535986e+16,874363061877200.6,956020158453904.1,60102944157.03597,112728035828.33957,1576988822546.9717,33267366078098.184
11.733257020663602,1.1190567709586518e+16,1.308360877315422e+16,886836974417152.8,969659014397291.5,62725385616.063614,117646649842.00233,1645796911126.4219,34718905806674.99
12.067922161076874,1.1348840309629874e+16,1.3269718977806394e+16,899379858513752.1,983373283177076.5,65438044880.97498,122734475709.42365,1716972159965.3347,36220381805138.125
12.409280604298411,1.1508006401989926e+16,1.3456925071974698e+16,911993550637564.6,997164972772505.5,68243677584.75744,127996681911.74509,1790586872683.598,37773319342535.65
12.75746621638438,1.1668088814966126e+16,1.3645255325162824e+16,924679859899669.5,1011036061248225.5,71145122658.51677,133438593166.38223,1866715538544.775,39379289794439.48
13.112615540712067,1.1829110057777078e+16,1.3834737684793904e+16,937440570124427.8,1024988499020632.5,74145304740.56471,139065694945.67136,1945434895669.1511,41039911976417.18
13.474867851526309,1.1991092344900594e+16,1.4025399806033466e+16,950277441778409.1,1039024210966922.1,77247236656.22516,144883638128.17416,2026823996102.5203,42756853516646.234
13.844365208556836,1.2154057618750886e+16,1.4217269079715712e+16,963192213767509.8,1053145098390086.4,80454021970.1691,150898243786.0126,2110964272788.0542,44531832268676.984
14.221252512727972,1.2318027570830594e+16,1.4410372658535132e+16,976186605113244.5,1067353040851696.9,83768857613.13298,157115508111.74622,2197939608490.1868,46366617765366.86
14.605677562982532,1.2483023661481802e+16,1.4604737481648908e+16,989262316517956.5,1081649897883338.9,87195036584.9474,163541607488.37283,2287836406720.779,48263032715055.06
14.997791114242183,1.2649067138347738e+16,1.4800390297822244e+16,1002421031827926.9,1096037510586328.1,90735950735.84567,170182903706.17084,2380743664719.4727,50222954541066.195
15.397746936527026,1.2816179053648316e+16,1.499735768723646e+16,1015664419402375.6,1110517703128590.1,94395093628.08548,177045949330.18762,2476753048541.4995,52248316965670.625
15.805701875257567,1.2984380280359714e+16,1.519566608206877e+16,1028994133395731.9,1125092284146655.0,98176063479.9734,184137493222.29794,2575958970307.8325,54341111639655.06
16.221815912762718,1.3153691527383598e+16,1.5395341785942192e+16,1042411814959738.1,1139763048060051.8,102082566194.44475,191464486221.85934,2678458667674.0527,56503389818696.484
16.64625223101797,1.3324133353781118e+16,1.5596410992336054e+16,1055919093371485.4,1154531776304673.5,106118418474.39366,199034086989.10403,2784352285575.7417,58737264087755.78
17.079177275638333,1.349572618214139e+16,1.5798899802039472e+16,1069517587092839.0,1169400238491150.2,110287551027.03308,206853668015.52182,2893742960310.0,61044910134748.625
17.5207608211511,1.366849031114726e+16,1.600283423972171e+16,1083208904766275.4,1184370193493690.2,114594011859.59764,214930821805.58145,3006736906013.9,63428568574777.29
17.97117603757412,1.3842445927396832e+16,1.6208240269689654e+16,1096994646151700.0,1199443390474379.2,119041969668.78168,223273367234.28445,3123443503602.7104,65890546826246.055
18.430599558325603,1.4017613116532438e+16,1.6415143810894218e+16,1110876403008418.4,1214621569847520.8,123635717326.35608,231889356085.12674,3243975392231.87,68433221040212.14
18.899211549492115,1.4194011873725796e+16,1.6623570751243014e+16,1124855759926066.2,1229906464188188.2,128379675463.47366,240787079773.17526,3368448563348.7124,71059038084360.66
19.37719578048196,1.4371662113563498e+16,1.683354696127311e+16,1138934295108016.2,1245299799088758.2,133278396156.23193,249975076258.08975,3496982457401.2705,73770517583026.48
19.864739696091597,1.455058367937262e+16,1.7045098307231888e+16,1153113581110424.5,1260803293966994.2,138336566715.12872,259462137152.02405,3629700063273.36,76570254014718.44
20.36203449001343,1.473079635202384e+16,1.7258250663610332e+16,1167395185539868.5,1276418662828852.2,143559013581.1074,269257315027.46628,3766728020516.693,79460918868640.86
20.869275179813698,1.4912319858245866e+16,1.7473029925170428e+16,1181780671712240.5,1292147614988881.8,148950706330.9537,279369930930.2024,3908196724452.4614,82445262861736.56
21.38666068340997,1.5095173878481888e+16,1.7689462018504218e+16,1196271599275380.0,1307991855751022.5,154516761794.86792,289809582102.7089,4054240434216.6987,85526118217818.2
21.91439389707817,1.5279378054316692e+16,1.7907572913158914e+16,1210869524797643.5,1323953087052142.2,160262448289.10992,300586149923.3836,4204997383825.0483,88706401010383.83
22.452681775019734,1.5464951995500216e+16,1.812738863236049e+16,1225576002324519.0,1340033008070617.8,166193189966.66666,311709808067.18695,4360609896334.7534,91989113570753.03
23.00173541052013,1.565191528659095e+16,1.8348935263364676e+16,1240392583905118.5,1356233315802009.8,172314571288.96475,323191030893.3246,4521224501183.022,95377346963194.42
23.561770118730532,1.5840287493241094e+16,1.857223896746223e+16,1255320820090243.5,1372555705603646.8,178632341621.7198,335040602065.804,4686992054782.766,98874283528748.97
24.133005521105144,1.603008816814209e+16,1.8797325989662804e+16,1270362260403578.5,1389001871709812.5,185152419958.0594,347269623412.73224,4858067864458.257,102483199499490.08
24.715665631527248,1.6221336856648282e+16,1.9024222668079308e+16,1285518453787355.2,1405573507719028.0,191880899772.14313,359889524030.4002,5034611815805.153,106207467684995.17
25.309978944157795,1.641405310209359e+16,1.9252955443032024e+16,1300790949023682.2,1422272307054747.8,198824054006.53818,372912069638.2869,5216788503560.345,110050560232835.45
25.91617852304095,1.6608256450814248e+16,1.9483550865890796e+16,1316181295132606.5,1439099963400577.2,205988340196.684,386349372191.2078,5404767366069.28,114016051464921.86
26.53450209350177,1.6803966456888658e+16,1.9716035607667868e+16,1331691041747721.2,1456058171110964.0,213380405735.8241,400213899754.9732,5598722823439.239,118107620791573.6
27.165192135371807,1.7001202686602746e+16,1.9950436467375548e+16,1347321739470048.5,1473148625598140.8,221007093283.82236,414518486651.9474,5798834419468.201,122329055705200.08
27.808495978079243,1.719998472264704e+16,2.0186780380156676e+16,1363074940200665.0,1490373023695789.0,228875446323.341,429276343883.048,6005286967440.78,126684254855513.03
28.464665897640828,1.740033216804893e+16,2.0425094425193756e+16,1378952197452293.5,1507733063999764.5,236992714866.86246,444501069832.71063,6218270699882.28,131177231208193.9
29.133959215593645,1.7602264649840444e+16,2.066540583340027e+16,1394955066640006.0,1525230447185921.2,245366361318.0844,460206661263.4323,6437981422363.739,135812115288964.92
29.816638399905518,1.7805801822459168e+16,2.0907741994892184e+16,1411085105350724.8,1542866876304780.8,254004066491.199,476407524606.50226,6664620671449.905,140593158515000.5
30.51297116790363,1.8010963370875242e+16,2.1152130466234596e+16,1427343873591023.0,1560644057052504.8,262913735791.57785,493118487555.51013,6898395876882.615,145524736615625.56
31.223230591261704,1.821776901343439e+16,2.1398598977452908e+16,1443732934012450.8,1578563698017222.8,272103505561.34195,510354810969.1659,7139520528090.962,150611353144219.56
31.947695203086937,1.8426238504402044e+16,2.1647175438793704e+16,1460253852113140.0,1596627510899493.5,281581749593.25793,528132201089.8869,7388214345118.277,155857643083222.88
32.686649107148675,1.8636391636187804e+16,2.189788794721301e+16,1476908196414093.5,1614837210705046.5,291357085816.30743,546466822084.43317,7644703454054.001,161268376544095.78
33.44038208929165,1.8848248241225044e+16,2.2150764792563944e+16,1493697538608138.8,1633194515907657.0,301438383156.18695,565375308912.7084,7909220567055.895,166848462564023.03
34.20918973107749,1.9061828193473704e+16,2.2405834463449284e+16,1510623453679020.2,1651701148579338.8,311834768573.8341,584874780530.5217,8182005167043.611,172602953001077.97
34.993373525699035,1.9277151409506664e+16,2.2663125652692932e+16,1527687519987510.2,1670358834484503.5,322555634284.90894,604982853431.8236,8463303697140.639,178537046529445.66
35.793240996213015,1.949423784913412e+16,2.2922667262380868e+16,1544891319320861.2,1689169303134056.0,333610645162.9058,625717655535.4279,8753369754934.874,184656092736198.97
36.60910581613728,1.9713107515511412e+16,2.318448840840677e+16,1562236436901372.0,1708134287794717.8,345009746328.3179,647097840420.7678,9052464291621.266,190965596320947.03
37.44128793246003,1.9933780454666536e+16,2.344861842445198e+16,1579724461348933.2,1727255525448108.0,356763170925.91656,669142601916.5548,9360855816080.662,197471221399496.97
38.29011369110923,2.0156276754375628e+16,2.371508686531438e+16,1597356984591915.5,1746534756693292.0,368881448091.8189,691871689045.4875,9678820603938.723,204178795912441.3
39.15591596493141,2.03806165423034e+16,2.3983923509492228e+16,1615135601719798.8,1765973725585640.2,381375411111.53577,715305421327.2543,10006642911636.473,211094316139342.12
40.03903428423004,2.0606819983316764e+16,2.425515836091571e+16,1633061910770283.0,1785574179404085.0,394256205769.6678,739464704441.0742,10344615195529.852,218223951318851.22
40.93981496991464,2.0834907275867816e+16,2.4528821649704084e+16,1651137512442644.8,1805337868337677.8,407535298891.2874,764371046247.8457,10693038336018.643,225574048374798.38
41.85861126931294,2.1064898647333172e+16,2.4804943831818104e+16,1669364009728377.2,1825266545081743.0,421224487074.3155,790046573170.6654,11052221866688.396,233151136747857.38
42.7957834946992,2.129681434818379e+16,2.50835555874586e+16,1687743007449163.5,1845361964332708.5,435335905611.46027,816514046930.9398,11422484208425.645,240961933331981.12
43.751699164593184,2.1530674644850864e+16,2.5364687818054316e+16,1706276111691521.5,1865625882169936.2,449882037599.3416,843796881635.7239,11804152908445.836,249013347514301.34
44.72673314788505,2.176649981114133e+16,2.5648371641664904e+16,1724964929126465.0,1886060055311858.0,464875723231.47986,871919161210.0198,12197564884145.713,257312486316633.2
