t(s),Total solute volume 1,Total retention volume 1,Total 1 volume 1,Total 2 volume 1,Total 3 volume 1,Total 4 volume 1,Total 5 volume 1,Total 6 volume 1
0.1,1012905215437994.5,1251976985692815.0,109237715628389.53,129834054626431.92,0.0,0.0,0.0,0.0
0.202,1366062893691484.8,2041680230493940.8,147324338295055.03,175101761657461.88,389746605159.10675,831265111263.8475,14097334116782.818,337872891016733.4
0.30604000000000003,1563157888095246.5,2748473511600843.5,168580233589737.38,200365372742157.1,900756130832.4181,1921320679852.241,32584007389157.812,780963932973862.9
0.41216080000000005,1690753815748568.5,3427528623382512.5,182340936576247.88,216720602368749.28,1475882418568.051,3148331132366.1064,53393656950169.83,1279695398187845.0
0.5204040160000001,1780342267963628.5,4097422469431666.0,192002687584915.66,228204038699957.84,2092677750860.2468,4464447257089.226,75714796827792.25,1814601553347421.8
0.6308120963200001,1846684977082633.0,4766604924356435.0,199157479540248.22,236707838681329.03,2740333284842.338,5846637047713.634,99156832308214.48,2376310826411449.0
0.7434283382464002,1897733479809199.2,5439642890228564.0,204662853404802.25,243251229257880.75,3413042369907.472,7282534864222.942,123510065439847.16,2959789685082706.0
0.8582969050113283,1938177774461696.2,6119312743553575.0,209024606463105.47,248435373806862.44,4107470172449.269,8765046194282.335,148654194648623.88,3562148277806560.0
0.9754628431115548,1970970340568381.0,6807459545014879.0,212561151649905.03,252638720772442.22,4821623453755.815,10289937831297.28,174517445586040.9,4181660325153061.5
1.094972099973786,1998064390962430.0,7505400879644315.0,215483135042410.7,256111632723443.28,5554289430420.708,11854641447813.05,201056280451041.06,4817276509586757.0
1.2168715419732616,2020803913095090.5,8214136084449874.0,217935500232918.25,259026381798190.12,6304734748911.868,13457611782566.09,228244513223676.84,5468363429568505.0
1.3412089728127268,2040143860066861.5,8934462984206658.0,220021235037866.5,261505373762279.5,7072534025305.039,15097961086142.557,256067110082291.38,6134554910145915.0
1.4680331522689813,2056781177968659.2,9667046950418494.0,221815502264803.97,263637943076161.47,7857467367420.835,16775240651672.16,284516484301778.7,6815663134788005.0
1.597393815314361,2071236208245111.8,1.0412463749476828e+16,223374418626904.78,265490787039517.56,8659456646685.483,18489304968982.332,313590192404208.5,7511623381545405.0
1.729341691620648,2083905115689987.8,1.1171227204838278e+16,224740708889490.94,267114686004914.4,9478524523844.78,20240224396106.285,343289453142322.7,8222458492191611.0
1.863928525453061,2095094706897222.0,1.194380766802467e+16,225947460898674.1,268548966402363.8,10314767345458.668,22028227407810.523,373618168098343.8,8948255370974803.0
2.001207095962122,2105046174155143.2,1.2730644717287078e+16,227020686263983.2,269824544228610.84,11168336772125.746,23853661463747.566,404582258066422.9,9689149056337032.0
2.1412312378813647,2113951665830317.0,1.3532156114248898e+16,227981107407014.97,270966049036800.03,12039427059100.732,25716965930532.926,436189203867611.3,1.0445311695117524e+16
2.284055862638992,2121966088597086.5,1.4348744267014406e+16,228845430383991.4,271993336744738.84,12928266086898.86,27618653001484.785,468447722805034.7,1.1216944769395158e+16
2.4297369798917723,2129215667263875.8,1.5180800991124564e+16,229627268028290.38,272922586832329.8,13835108934575.527,29559294039847.254,501367537102251.3,1.2004273528923396e+16
2.578331719489608,2135804254540249.2,1.6028711083567082e+16,230337820433214.62,273767111126701.56,14760233211004.096,31539509672458.418,534959205950781.1,1.2807542948632666e+16
2.7298983538794,2141818050723161.5,1.68928550532868e+16,230986383951001.66,274537958770988.38,15703935623171.371,33559962523086.97,569234002328432.0,1.3627014759366948e+16
2.884496320956988,2147329181110199.2,1.7773611242039286e+16,231580737002323.47,275244374776699.62,16666529428888.432,35621351833678.54,604203821838936.6,1.4462965246048564e+16
3.0421862473761276,2152398440528739.0,1.867135749786167e+16,232127436062618.97,275894151817115.3,17648342531091.188,37724409455828.17,639881114793176.8,1.531568360267311e+16
3.2030299723236504,2157077422274347.8,1.9586472515725424e+16,232632045259461.3,276493903114340.22,18649716043840.65,39869896850311.44,676278835389817.1,1.6185470696793308e+16
3.3670905717701234,2161410186373174.0,2.0519336927529052e+16,233099316287884.44,277049276276960.44,19671003209431.29,42058602837627.414,713410403635993.9,1.7072638138908e+16
3.5344323832055258,2165434579137784.8,2.1470334201196788e+16,233533330719129.84,277565122440545.34,20712568579867.13,44291341914688.13,751289676872872.2,1.797750758153186e+16
3.7051210308696363,2169183285974584.2,2.243985139293485e+16,233937613541649.7,278045631216366.78,21774787399545.13,46568953003074.484,789930928623706.4,1.8900410193175944e+16
3.879223451487029,2172684678137136.8,2.3428279785510852e+16,234315224480019.38,278494439228132.66,22858045142636.066,48892298529781.13,829348833084218.5,1.984168626690894e+16
4.0568079205167695,2175963498861034.5,2.443601543734861e+16,234668831991797.56,278914718060666.2,23962737170552.086,51262263766753.305,869558454005469.2,2.0801684933492324e+16
4.237944078927105,2179041423236543.2,2.5463459661340484e+16,235000773647520.22,279309246024311.22,25089268483492.746,53679756373862.77,910575237030619.5,2.178076395654414e+16
4.422702960505647,2181937518041639.8,2.6511019447925064e+16,235313105721825.28,279680467096271.53,26238053546350.34,56145706103385.695,952415004774440.2,2.277928959264118e+16
4.61115701971576,2184668621725692.2,2.75791078437304e+16,235607644173153.53,280030539626871.88,27409516173893.152,58661064633939.28,995093954102255.5,2.3797636503294612e+16
4.803380160110075,2187249660217152.8,2.8668144294634616e+16,235885998702325.22,280361376819747.84,28604089463604.016,61226805509210.11,1038628655190145.9,2.4836187708732388e+16
4.9994477633122765,2189693910815991.0,2.977855496023376e+16,236149601212268.97,280674680557543.22,29822215767146.7,63843924162353.305,1083036052042230.6,2.589533457567627e+16
5.199436718578522,2192013223831490.0,3.0910773005278428e+16,236399729710756.9,280971969811416.16,31064346693402.8,66513438011136.94,1128333464212110.5,2.697547683300815e+16
5.403425452950093,2194218209629378.0,3.206523887253426e+16,236637528482680.9,281254604616715.6,32330943137522.805,69236386612120.72,1174538589529952.2,2.8077022610525892e+16
5.611493962009095,2196318397207306.8,3.3242400540663164e+16,236864025191774.03,281523806399166.44,33622475331590.723,72013831864622.88,1221669507678659.5,2.9200388496990052e+16
5.823723841249277,2198322369214112.2,3.444271377004364e+16,237080145441888.06,281780675281622.75,34939422913396.445,74846858257144.16,1269744684494899.5,3.0345999614440556e+16
6.040198318074262,2200237877383974.5,3.5666642338915936e+16,237286725226102.1,282026204880401.56,36282275010506.99,77736573150407.9,1318782976896174.0,3.1514289706368316e+16
6.261002284435747,2202071941611503.8,3.691465827181319e+16,237484521611567.0,282261295004715.6,37651530337374.23,80684107092350.12,1368803638354939.8,3.2705701237800696e+16
6.486222330124463,2203830935301835.5,3.818724206189907e+16,237674221944166.22,282486762596838.1,39047697303647.7,83690614161311.8,1419826324856526.2,3.3920685505734764e+16
6.715946776726952,2205520659157311.5,3.948488288856027e+16,237856451806111.34,282703351190070.06,40471294132202.87,86757272334427.98,1471871101289948.2,3.515970275865024e+16
6.950265712261491,2207146405182788.5,4.080807883137897e+16,238031781918653.72,282911739112933.56,41922848985666.15,89885283878789.17,1524958448230846.0,3.642322232406942e+16
7.18927102650672,2208713012385341.0,4.215733708143319e+16,238200734149072.9,283112546628750.3,43402900100439.14,93075875763423.66,1579109269083630.2,3.771172274332257e+16
7.433056447036854,2210224915395703.0,4.353317415072241e+16,238363786754300.06,283306342167934.1,44911995927394.05,96330300090529.42,1634344897556466.0,3.902569191283004e+16
7.681717575977592,2211686187036433.5,4.493611608039868e+16,238521378971722.12,283493647784371.3,46450695278560.11,99649834544694.4,1690687105447909.5,4.0365627231334984e+16
7.935351927497144,2213100575695964.2,4.6366698648380744e+16,238673915049823.28,283674943946024.5,48019567479230.91,103035782859094.44,1748158110728346.5,4.173203575262233e+16
8.194058966047088,2214471538231595.0,4.782546757684688e+16,238821767796638.25,283850673752430.56,49619192525016.41,106489475297861.28,1806780585902856.0,4.312543434334049e+16
8.45794014536803,2215802269012006.8,4.9312978740033704e+16,238965281711866.84,284021246657368.5,51250161243441.695,110012269153990.48,1866577666645008.2,4.454634984560996e+16
8.72709894827539,2217095725616635.0,5.082979837271065e+16,239104775758451.9,284187041763001.56,52913075459753.83,113605549262292.5,1927572960693574.0,4.5995319244156936e+16
9.0016409272409,2218354651631853.2,5.237650327965173e+16,239240545821051.22,284348410741887.56,54608548166650.78,117270728527010.45,1989790557005947.8,4.747288983775726e+16
9.281673745785717,2219581596919035.5,5.395368104638244e+16,239372866891868.88,284505680434940.9,56337203697687.37,121009248463825.9,2053255035164032.2,4.897961941481102e+16
9.567307220701432,2220778935675552.0,5.556193025145056e+16,239501995018458.16,284659155166484.4,58099677904147.68,124822579756054.34,2117991475029418.8,5.051607643290047e+16
9.85865336511546,2221948882563937.2,5.7201860680435384e+16,239628169043187.2,284809118811684.06,59896618335201.945,128712222824905.77,2184025466646201.8,5.208284020221014e+16
10.155826432417769,2223093507146247.2,5.887409354188693e+16,239751612159926.47,284955836646748.3,61728684421189.31,132679708413737.22,2251383120390463.0,5.36805010727087e+16
10.458942961066125,2224214746827987.0,6.0579261685365896e+16,239872533309999.78,285099557008070.7,63596547659883.76,136726598186283.27,2320091077366673.5,5.530966062500697e+16
10.768121820287448,2225314418488395.8,6.231800982173382e+16,239991128436460.22,285240512783006.25,65500891805621.71,140854485338888.44,2390176520051707.0,5.69709318648297e+16
11.083484256693197,2226394228950478.8,6.409099474583098e+16,240107581613243.56,285378922751916.1,67442413061176.79,145064995226803.2,2461667183187967.5,5.866493942103933e+16
11.405153941827061,2227455784424064.0,6.589888556166127e+16,240222066063564.16,285514992798574.5,69421820272280.52,149359786004638.34,2534591364927730.0,6.039231974717038e+16
11.733257020663602,2228500599038034.0,6.774236391019466e+16,240334745080076.47,285648917003832.25,71439835124694.14,153740549281107.12,2608977938231179.5,6.215372132643573e+16
12.067922161076874,2229530102563199.0,6.962212419988472e+16,240445772857763.22,285780878635534.06,73497192343745.84,158209010788197.44,2684856362521137.0,6.394980488017522e+16
12.409280604298411,2230545647414629.0,7.153887383999135e+16,240555295249100.53,285911051046073.44,75594639896245.52,162766931064947.16,2762256695597951.5,6.578124357972231e+16
12.75746621638438,2231548515011312.2,7.349333347678683e+16,240663450449927.62,286039598487578.25,77732939194706.12,167416106156023.1,2841209605818221.5,6.764872326166905e+16
13.112615540712067,2232539921561630.8,7.548623723272229e+16,240770369623384.5,286166676853484.8,79912865303783.75,172158368325300.75,2921746384541469.0,6.955294264651318e+16
13.474867851526309,2233521023334986.0,7.751833294861605e+16,240876177468433.28,286292434354260.8,82135207148871.17,176995586784682.25,3003898958849150.0,7.149461356067567e+16
13.844365208556836,2234492921472749.2,7.959038242892795e+16,240980992738703.72,286417012134069.8,84400767726761.58,181929668438391.12,3087699904540721.5,7.347446116187651e+16
14.221252512727972,2235456666385666.0,8.170316169017144e+16,241084928716732.78,286540544834430.44,86710364318313.9,186962558642997.72,3173182459411614.0,7.54932241678614e+16
14.605677562982532,2236413261779336.0,8.385746121251294e+16,241188093648096.75,286663161110198.94,89064828703038.05,192096241983452.03,3260380536818330.5,7.755165508847056e+16
14.997791114242183,2237363668344815.8,8.605408619460618e+16,241290591139427.1,286784984102636.25,91465007375526.98,197332743065398.66,3349328739536131.0,7.965052046104224e+16
15.397746936527026,2238308807147194.0,8.829385681169443e+16,241392520523857.9,286906131873748.7,93911761763655.16,202674127324070.75,3440062373914863.5,8.179060108914702e+16
15.805701875257567,2239249562741454.2,9.057760847702285e+16,241493977197053.53,287026717805683.8,96405968448459.77,208122501850073.28,3532617464338895.0,8.397269228464115e+16
16.221815912762718,2240186786041696.2,9.290619210658846e+16,241595052926648.0,287146850968502.6,98948519385621.11,213680016232361.66,3627030767997099.0,8.61976041130365e+16
16.64625223101797,2241121296967121.5,9.528047438725693e+16,241695836137599.78,287266636459346.6,101540322128457.4,219348863418753.0,3723339789969324.0,8.84661616421762e+16
17.079177275638333,2242053886885575.0,9.770133804826731e+16,241796412175719.84,287386175715646.8,104182300052336.12,225131280594295.9,3821582798635660.0,9.077920519420803e+16
17.5207608211511,2242985320873419.5,1.0016968213614682e+17,241896863551389.6,287505566804794.56,106875392580410.42,231029550077861.44,3921798841415328.0,9.313759060084366e+16
17.97117603757412,2243916339808496.8,1.0268642229305091e+17,241997270165277.6,287624904692416.3,109620555410580.34,237046000237289.75,4024027760841999.5,9.554218946189466e+16
18.430599558325603,2244847662311268.2,1.0525249103853923e+17,242097709517685.78,287744281491195.4,112418760743571.44,243183006423483.6,4128310210982592.0,9.799388940706946e+16
18.899211549492115,2245779986547740.8,1.0786883805479915e+17,242198256902984.1,287863786691960.3,115270997512021.66,249442991923802.94,4234687674206889.0,1.0049359436101402e+17
19.37719578048196,2246713991906380.5,1.1053643047531773e+17,242298985590461.2,287983507378638.9,118178271610463.28,255828428935162.28,4343202478315409.0,1.0304222481158126e+17
19.864739696091597,2247650340560092.2,1.1325625317700611e+17,242399966992779.34,288103528428470.06,121141606126072.61,262341839557211.94,4453897814033194.0,1.0564071808130838e+17
20.36203449001343,2248589678923237.5,1.1602930907577331e+17,242501270823103.16,288223932698765.5,124162041570068.36,268985796806024.94,4566817752877355.0,1.0829002860207486e+17
20.869275179813698,2249532639012722.5,1.1885661942554077e+17,242602965241892.28,288344801201372.4,127240636109615.05,275762925648682.6,4682007265406540.0,1.1099112819291986e+17
21.38666068340997,2250479839721343.5,1.217392241206881e+17,242705116994222.38,288466213265889.25,130378465800098.42,282675904059199.6,4799512239860472.0,1.137450063409869e+17
21.91439389707817,2251431888010833.0,1.2467818200191622e+17,242807791538454.03,288588246692596.1,133576624817624.34,289727464096215.1,4919379501198068.0,1.165526704855625e+17
22.452681775019734,2252389380031328.5,1.2767457116550758e+17,242911053166960.1,288710977895938.75,136836225691580.11,296920393002888.0,5041656830542950.0,1.1941514630517582e+17
23.00173541052013,2253352902173391.0,1.3072948927595898e+17,243014965119583.16,288834482039385.94,140158399537102.9,304257534329460.4,5166392985044951.0,1.2233347800771502e+17
23.561770118730532,2254323032058212.0,1.3384405388196362e+17,243119589690425.03,288958833162349.5,143544296287282.44,311741789078935.44,5293637718167107.0,1.2530872862351933e+17
24.133005521105144,2255300339471049.5,1.3701940273570477e+17,243224988328512.53,289084104299829.3,146995084924914.38,319376116876359.2,5423441800407111.0,1.2834198030139696e+17
24.715665631527248,2256285387242553.5,1.4025669411542688e+17,243331221732848.1,289210367595386.7,150511953713627.44,327163537162179.9,5555857040462955.0,1.314343346075173e+17
25.309978944157795,2257278732082246.5,1.4355710715124162e+17,243438349942294.28,289337694407976.75,154096110428174.9,335107130410166.3,5690936306852595.0,1.3458691282711792e+17
25.91617852304095,2258280925368020.0,1.469218421541203e+17,243546432420719.53,289466155413148.06,157748782583696.78,343210039370412.1,5828733549997361.0,1.3780085626896718e+17
26.53450209350177,2259292513895264.0,1.5035212094802464e+17,243655528137786.44,289595820699060.8,161471217663730.0,351475470337913.94,5969303824779663.0,1.41077326572511e+17
27.165192135371807,2260314040588768.5,1.538491872051064e+17,243765695645731.3,289726759857747.8,165264683346745.25,359906694447267.0,6112703313585401.0,1.4441750601763478e+17
27.808495978079243,2261346045180559.5,1.5741430678393085e+17,243876993152462.2,289859042071989.2,169130467730974.03,368507048993993.6,6258989349841423.0,1.4782259783695926e+17
28.464665897640828,2262389064856281.5,1.6104876807063318e+17,243989478591272.28,289992736198172.3,173069879557280.03,377279938783060.3,6408220442059632.0,1.5129382653058714e+17
29.133959215593645,2263443634872764.5,1.6475388232294784e+17,244103209687436.78,290127910845448.7,177084248429822.03,386228837505141.7,6560456298398324.0,1.5483243818320842e+17
29.816638399905518,2264510289149018.0,1.685309840170209e+17,244218244021954.16,290264634451487.1,181174925034232.75,395357289141180.6,6715757851752667.0,1.584397007834703e+17
30.51297116790363,2265589560832859.0,1.7238143119691882e+17,244334639092653.9,290402975355107.44,185343281353044.34,404668909395838.1,6874187285385774.0,1.6211690454550336e+17
31.223230591261704,2266681982845211.0,1.7630660582673398e+17,244452452372893.53,290543001866042.94,189590710878060.28,414167387160418.06,7035808059112504.0,1.65865362232499e+17
31.947695203086937,2267788088403754.0,1.8030791414519117e+17,244571741368036.5,290684782332068.2,193918628819377.88,423856486005854.1,7200684936048091.0,1.6968640948221373e+17
32.686649107148675,2268908411527812.0,1.843867870226337e+17,244692563669899.7,290828385203711.06,198328472310740.4,433740045706387.0,7368884009934412.0,1.7358140513428083e+17
33.44038208929165,2270043487525923.0,1.88544680320283e+17,244814977009335.25,290973879096749.75,202821700610889.06,443821983794541.56,7540472733056304.0,1.7755173155918928e+17
34.20918973107749,2271193853467603.0,1.9278307525163258e+17,244939039307112.06,291121332852685.25,207399795300582.53,454106297148042.94,7715519944761404.0,1.8159879498879514e+17
34.993373525699035,2272360048640656.0,1.9710347874585213e+17,245064808723231.97,291270815597358.6,212064260474912.78,464597063609311.9,7894095900596609.0,1.8572402584821005e+17
35.793240996213015,2273542614995327.0,2.0150742381305126e+17,245192343704826.97,291422396797881.9,216816622930561.53,475298443638210.0,8076272302075017.0,1.8992887908890925e+17
36.60910581613728,2274742097576357.0,2.0599646991125056e+17,245321703032761.34,291576146318018.2,221658432347604.44,486214681998679.7,8262122327087150.0,1.9421483452289046e+17
37.44128793246003,2275959044944216.5,2.1057220331490432e+17,245452945867055.34,291732134472177.6,226591261465468.9,497350109479988.44,8451720660970900.0,1.985833971577045e+17
38.29011369110923,2277194009586355.5,2.152362374847936e+17,245586131791238.66,291890432078129.94,231616706252629.38,508709144653243.4,8645143528254670.0,2.0303609753217763e+17
39.15591596493141,2278447548319584.0,2.199902134391164e+17,245721320855743.3,292051110508580.56,236736386069611.75,520296295663905.6,8842468725088637.0,2.0757449205261066e+17
40.03903428423004,2279720222684358.0,2.248358001255765e+17,245858573620428.47,292214241741712.0,241951943824863.25,532116162060996.6,9043775652379294.0,2.1220016332926502e+17
40.93981496991464,2281012599331870.5,2.297746947942716e+17,245997951196326.9,292379898410801.56,247265046123024.06,544173436663742.6,9249145349642842.0,2.1691472051290294e+17
41.85861126931294,2282325250404766.0,2.3480862337116534e+17,246139515286699.25,292548153853016.1,252677383405125.97,556472907466398.25,9458660529593540.0,2.217197996311558e+17
42.7957834946992,2283658753912099.0,2.3993934083191837e+17,246283328227477.28,292719082157483.8,258190670080225.22,569019459581986.1,9672405613482390.0,2.266170639244764e+17
