t(s),Total solute volume 1,Total retention volume 1,Total 1 volume 1,Total 2 volume 1,Total 3 volume 1,Total 4 volume 1,Total 5 volume 1,Total 6 volume 1
0.1,898666397951953.1,1036126891881881.2,66325422320955.914,71135071608968.8,0.0,0.0,0.0,0.0
0.202,1353991754810276.0,1561106716927395.0,99930380522908.77,107176924863481.33,14552827.9651427,26497402.73797726,354553887.80569816,7261126607.957776
0.30604000000000003,1700765225603516.0,1960934614902264.0,125523745324991.7,134626216336225.62,36924741.29454265,67231596.31272066,899608019.1307113,18423873171.963608
0.41216080000000005,1994082367478811.5,2299132786078700.5,147171804488042.1,157844104637669.4,65589324.969841555,119423321.24313343,1597972952.8478565,32726488576.177933
0.5204040160000001,2254568619864534.0,2599481191833131.5,166396803634247.78,178463222465957.06,99869291.50995824,181839389.9316451,2433147579.372021,49831012128.850975
0.6308120963200001,2492499436468707.0,2873826833695919.5,183957115182115.47,197296936324970.56,139401448.0789917,253818510.38244691,3396283265.3542843,69556216907.1223
0.7434283382464002,2713846803717032.5,3129055067137222.5,200293497263901.1,214817966334076.75,183978241.2503877,334982774.8495321,4482323296.584185,91798537898.46594
0.8582969050113283,2922436374149961.0,3369576656997903.0,215688299394048.88,231329136845772.94,233482660.95709234,425119134.606475,5688416907.19569,116499589422.1803
0.9754628431115548,3120889672675477.5,3598414087243125.0,230335001319305.4,247037957970728.78,287856170.1745353,524121007.1374691,7013137934.933055,143630162494.83548
1.094972099973786,3311094349485770.0,3817743734673679.0,244372919694627.84,262093849040743.0,347080946.06733614,631955941.276156,8456052154.141037,173181363493.38995
1.2168715419732616,3494462333727195.5,4029193504305961.0,257906260927802.38,276608573088177.5,411169210.01636976,748646189.595716,10017457318.57449,205159290065.955
1.3412089728127268,3672082087457376.5,4234018368594713.5,271015358172458.6,290668288699991.1,480156421.0689969,874256315.2202733,11698217330.554789,239581634820.25085
1.4680331522689813,3844813581151384.5,4433209868052978.0,283763680926501.5,304341067923735.8,554096732.3184329,1008884918.9192044,13499651542.866982,276475418167.0514
1.597393815314361,4013350273165613.0,4627567569475359.0,296202409381545.56,317681802330194.2,633059849.8374094,1152658919.9360113,15423458231.688568,315875421006.9527
1.729341691620648,4178261086033755.0,4817747461776806.0,308373532453030.75,330735525700036.4,717128801.5451442,1305729493.600205,17471660238.606415,357823071452.4494
1.863928525453061,4340019733260485.5,5004295767777093.0,320312012222982.5,343539735423161.5,806398319.1761413,1468269125.2591264,19646565549.887463,402365637472.82336
2.001207095962122,4499025757478117.0,5187673199738292.0,332047336645925.8,356126057800520.4,900973646.7827264,1640469440.831364,21950738267.56493,449555632368.5932
2.1412312378813647,4655619970104050.0,5368272760214053.0,343604659061619.44,368521470189679.1,1000969654.2711437,1822539592.757383,24386977012.181377,499450372449.8283
2.284055862638992,4810096009059571.0,5546433067294513.0,355005651204111.06,380749215870619.1,1106510174.4158325,2014705052.8534777,26958298770.2205,552111646224.1753
2.4297369798917723,4962709142456988.0,5722448504649285.0,366269152951499.7,392829500912708.5,1217727507.1628854,2217206709.7615232,29667926817.271587,607605467057.707
2.578331719489608,5113683078642008.0,5896577073043915.0,377411674936170.0,404780033232180.75,1334762051.622523,2430300198.8917003,32519281752.134335,666001889549.1201
2.7298983538794,5263215306963604.0,6069046547895370.0,388447792716450.4,416616445347519.06,1457762037.281924,2654255413.02305,35515974948.26657,727374875412.1439
2.884496320956988,5411481338254697.0,6240059368278837.0,399390459742212.1,428352630040049.3,1586883333.610821,2889356155.6396165,38661803915.14833,791802198473.7869
3.0421862473761276,5558638109398318.0,6409796562190890.0,410251258626414.06,440001009846671.7,1722289322.585294,3135899908.8264832,41960749192.546005,859365381066.9608
3.2030299723236504,5704826744338235.0,6578420930055654.0,421040604922212.0,451572755621327.75,1864150822.887763,3394197700.2551904,45416973890.378876,930149851449.5345
3.3670905717701234,5850174814878960.0,6746079650483294.0,431767913968662.2,463077965450329.25,2012646054.4162107,3664574018.642494,49034817297.790985,1004244147965.0355
3.5344323832055258,5994798205232336.0,6912906431271439.0,442441738518904.75,474525812305214.9,2167960642.4404926,3947366851.0989566,52818803245.0167,1081741084240.7275
3.7051210308696363,6138802664669799.0,7079023298736192.0,453069883321301.06,485924666902924.3,2330287647.847267,4242927718.412881,56773635351.517715,1162736991455.539
3.879223451487029,6282285107604942.0,7244542096894236.0,463659501073937.7,497282200626087.75,2499827625.455022,4551621786.161716,60904199814.603134,1247331940019.7268
4.0568079205167695,6425334710214388.0,7409565751865635.0,474217173359922.25,508605472327423.75,2676788704.640777,4873828011.516908,65215567373.79581,1335629779810.329
4.237944078927105,6568033840997267.0,7574189344825493.0,484748979326658.1,519901001989359.56,2861386690.0663524,5209939326.645674,69712995764.88913,1427738190430.178
4.422702960505647,6710458854938401.0,7738501027704988.0,495260554298486.56,531174833587013.7,3053845180.4132123,5560362854.902342,74401932612.7534,1523768740452.6477
4.61115701971576,6852680774885018.0,7902582808863040.0,505757140065190.44,542432589023424.2,3254395703.45221,5925520156.762078,79288018722.1192,1623836954817.0857
4.803380160110075,6994765879073150.0,8066511230559878.0,516243628243963.0,553679514635948.5,3463277866.1068106,6305847503.054244,84377091733.65163,1728062389705.4998
4.9994477633122765,7136776210101307.0,8230357955870033.0,526724597843841.25,564920521484717.5,3680739518.4340615,6701796173.537275,89675190119.11232,1836568714363.8738
5.199436718578522,7278770017792762.0,8394190279378182.0,537204347950828.44,576160220407949.1,3907036930.6634183,7113832779.248785,95188557494.65466,1949483799438.9084
5.403425452950093,7420802146128911.0,8558071573397629.0,547686926285241.1,587402952650160.0,4142434982.608399,7542439607.384113,100923647235.56558,2066939811488.483
5.611493962009095,7562924372637298.0,8722061679377265.0,558176154249988.5,598652816726839.9,4387207364.910359,7988114987.718485,106887127379.27902,2189073313395.9648
5.823723841249277,7705185707175539.0,8886217252499475.0,568675648982104.5,609913692075074.1,4641636791.692876,8451373679.805599,113085885806.3935,2316025370478.092
6.040198318074262,7847632655888318.0,9050592066129962.0,579188842833906.4,621189259947400.2,4906015224.3045,8932747280.365814,119527035691.84163,2447941662125.6523
6.261002284435747,7990309455170256.0,9215237281690962.0,589719000640447.6,632483021931418.5,5180644105.911541,9432784650.429686,126217921220.40456,2584972598857.9424
6.486222330124463,8133258279696240.0,9380201688641248.0,600269235073055.8,643798316416706.8,5465834606.772691,9952052361.931095,133166123562.4734,2727273444707.195
6.715946776726952,8276519427948206.0,9545531918515668.0,610842520331999.0,655138333280427.6,5761907880.08805,10491135163.554312,140379467107.44586,2875004444879.3286
6.950265712261491,8420131488145460.0,9711272636376440.0,621441704392843.4,666506127021743.0,6069195328.367085,11050636465.73347,147866025953.39664,3028330958663.291
7.18927102650672,8564131487053361.0,9877466712529470.0,632069519989181.4,677904628540963.6,6388038880.304521,11631178844.785112,155634130652.76196,3187423597583.59
7.433056447036854,8708555023785187.0,1.0044155376943632e+16,642728594487781.0,689336655730792.6,6718791278.192853,12233404566.225502,163692375214.73596,3352458368810.2505
7.681717575977592,8853436390410741.0,1.021137835846474e+16,653421458790006.1,700804923023269.2,7061816375.934667,12857976127.388395,172049624365.91315,3523616823857.7993
7.935351927497144,8998808680933120.0,1.0379174010623784e+16,664150555374781.9,712312050015933.6,7417489447.74866,13505576819.513422,180715021071.47375,3701086212620.074
8.194058966047088,9144703889981496.0,1.0547579425593962e+16,674918245582535.6,723860569284013.9,7786197507.690808,14176911309.526844,189697994319.86078,3885059642801.4336
8.45794014536803,9291153002388038.0,1.0716630537643264e+16,685726816226360.6,735452933470981.2,8168339640.136966,14872706241.78088,199008267174.52203,4075736244817.4653
8.72709894827539,9438186074663908.0,1.0886362217252602e+16,696578485605283.1,747091521737869.9,8564327341.395944,15593710860.059654,208655865096.8326,4273321342249.483
9.0016409272409,9585832309258334.0,1.1056808356919638e+16,707475408984913.8,758778645641392.6,8974584872.643305,16340697650.196892,218651124544.82428,4478026627947.577
9.281673745785717,9734120122374740.0,1.1228001949539626e+16,718419683602561.6,770516554501957.6,9399549624.38432,17114463003.687464,229004701852.82132,4690070345886.648
9.567307220701432,9883077206020510.0,1.1399975160144324e+16,729413353246769.0,782307440315335.8,9839672492.674345,17915827902.70556,239727582397.5175,4909677478888.739
9.85865336511546,1.0032730584886166e+16,1.157275939168568e+16,740458412455240.9,794153442254985.4,10295418267.340403,18745638626.97485,250831090056.45673,5137079942333.862
10.155826432417769,1.0183106668577856e+16,1.1746385345468746e+16,751556810369826.1,806056650806593.6,10767266032.464466,19604767482.965786,262326896965.25375,5372516783988.985
10.458942961066125,1.0334231299666556e+16,1.1920883076767572e+16,762710454282750.8,818019111571450.2,11255709579.405098,20494113555.92134,274227033580.2899,5616234390093.211
10.768121820287448,1.0486129797962898e+16,1.2096282046096508e+16,773921212904299.6,830042828771102.5,11761257832.64747,21414603485.241978,286543899053.9674,5868486697844.06
11.083484256693197,1.0638827001381694e+16,1.2272611166556414e+16,785190919378781.8,842129768482021.1,12284435288.78814,22367192263.78551,299290271929.9675,6129535414437.569
11.405153941827061,1.0792347303718566e+16,1.2449898847627538e+16,796521374072605.8,854281861625858.0,12825782468.973267,23352864061.663403,312479321166.28687,6399650242821.202
11.733257020663602,1.0946714689626346e+16,1.2628173035741406e+16,807914347155700.6,866501006738063.5,13385856385.12395,24372633075.141083,326124617494.1866,6679109114326.297
12.067922161076874,1.1101952767048272e+16,1.2807461251927504e+16,819371580995213.6,878789072535152.1,13965231020.295513,25427544401.27288,340240145121.49316,6968198428352.742
12.409280604298411,1.1258084797336898e+16,1.2987790626799966e+16,830894792378419.2,891147900298826.4,14564497823.531075,26518674938.928684,354840313789.03687,7267213299286.039
12.75746621638438,1.1415133723264964e+16,1.3169187933120734e+16,842485674580035.0,903579306093191.2,15184266219.583021,27647134316.89182,369939971189.328,7576457810832.948
13.112615540712067,1.1573122195112088e+16,1.3351679616153052e+16,854145899287542.4,916085082829699.9,15825164133.889559,28814065849.733997,385554415756.90967,7896245277968.91
13.474867851526309,1.173207259499371e+16,1.3535291821996004e+16,865877118396757.4,928667002192928.8,16487838533.206299,30020647522.19493,401699409840.131,8226898516697.079
13.844365208556836,1.1892007059581142e+16,1.372005042407289e+16,877680965688660.4,941326816439003.5,17172955982.307398,31268093002.82097,418391193264.4186,8568750121825.169
14.221252512727972,1.2052947501347856e+16,1.3905981047928938e+16,889559058397490.1,954066260077408.5,17881203217.18192,32557652687.639717,435646497297.4629,8922142752973.453
14.605677562982532,1.2214915628463504e+16,1.409310909447875e+16,901512998678978.5,966887051445683.9,18613287735.16765,33890614774.672943,453482559027.0416,9287429429033.398
14.997791114242183,1.237793296344577e+16,1.4281459761830808e+16,913544374986949.8,979790894185857.9,19369938402.474827,35268306370.11534,471917136162.54974,9664973831304.035
15.397746936527026,1.254202086066989e+16,1.447105806580443e+16,925654763365597.1,992779478630437.2,20151906079.569626,36692094627.03035,490968522271.6496,10055150615538.846
15.805701875257567,1.2707200522826418e+16,1.4661928859243484e+16,937845728664139.9,1005854483105132.8,20959964264.897457,38163387917.440704,510655562463.7494,10458345733144.35
16.221815912762718,1.2873493016409382e+16,1.4854096850222252e+16,950118825679902.8,1019017575154844.9,21794909757.443253,39683637038.71762,530997669532.4368,10874956761777.264
16.64625223101797,1.3040919286309684e+16,1.5047586619229886e+16,962475600235390.0,1032270412698831.0,22657563338.638206,41254336455.19685,552014840569.258,11305393245594.87
17.079177275638333,1.320950016958218e+16,1.524242263541248e+16,974917590194333.4,1045614645120441.5,23548770474.138756,42877025575.9762,573727674061.6633,11750077045420.658
17.5207608211511,1.337925640844799e+16,1.5438629271944374e+16,987446326421343.2,1059051914296355.2,24469402036.01589,44553290069.87983,596157387488.2273,12209442699093.984
17.97117603757412,1.3550208662589792e+16,1.563623082059489e+16,1000063333689325.6,1072583855569801.5,25420355045.910397,46284763218.59429,619325835424.679,12683937792280.402
18.430599558325603,1.3722377520790922e+16,1.5835251505550258e+16,1012770131538520.1,1086212098671893.5,26402553439.72265,48073127309.018654,643255528174.6013,13174023340026.861
18.899211549492115,1.3895783511966378e+16,1.603571549654602e+16,1025568235090631.8,1099938268594790.2,27416948854.422245,49920115065.88808,667969650939.055,13680174179353.26
19.37719578048196,1.4070447115629198e+16,1.6237646921359918e+16,1038459155821271.4,1113763986420162.9,28464521437.57805,51827511125.76871,693492083539.7512,14202879373179.818
19.864739696091597,1.424638877183113e+16,1.6441069877711726e+16,1051444402293659.5,1127690870106096.0,29546280680.2246,53797153553.54324,719847420710.7853,14742642625897.717
20.36203449001343,1.442362889061517e+16,1.6646008444612254e+16,1064525480856230.9,1141720535235273.8,30663266273.696976,55830935402.5399,747060992974.3364,15299982710898.287
20.869275179813698,1.4602187861012122e+16,1.6852486693199696e+16,1077703896306627.2,1155854595727141.5,31816548991.082336,57930806319.48247,775158888116.1307,15875433910383.387
21.38666068340997,1.478208605961194e+16,1.7060528697099458e+16,1090981152524310.2,1170094664516371.8,33007231593.95336,60098774195.47587,804167973276.8333,16469546467788.822
21.91439389707817,1.4963343858737392e+16,1.727015854233856e+16,1104358753073808.0,1184442354199864.0,34236449765.062138,62336906864.2602,834115917675.9597,17082887053159.955
22.452681775019734,1.5145981634245238e+16,1.7481400336844686e+16,1117838201780454.1,1198899277654249.8,35505373067.69346,64647333849.00739,865031215985.2874,17716039241826.15
23.00173541052013,1.5330019772976536e+16,1.7694278219555678e+16,1131421003280287.0,1213467048625639.2,36815205932.387825,67032248158.953735,896943212369.1007,18369604006729.934
23.561770118730532,1.5515478679877276e+16,1.790881636916289e+16,1145108663545558.8,1228147282293255.0,38167188671.76464,69493908137.19719,929882125209.0217,19044200224773.285
24.133005521105144,1.5702378784805544e+16,1.8125039012508944e+16,1158902690387150.2,1242941595808270.0,39562598524.18576,72034639361.00905,963879072531.5292,19740465197551.633
24.715665631527248,1.589074054904123e+16,1.8342970432657616e+16,1172804593934988.0,1257851608809091.0,41002750727.01993,74656836596.0433,998966098156.6111,20459055186852.227
25.309978944157795,1.608058447150973e+16,1.8562634976650444e+16,1186815887097405.8,1272878943913993.8,42488999620.27608,77362965805.84319,1035176198586.3356,21200645965302.21
25.91617852304095,1.627193109472957e+16,1.878405706296077e+16,1200938086000106.5,1288025227191922.2,44022739781.39093,80155566218.07332,1072543350652.3799,21965933382555.09
26.53450209350177,1.6464801010490348e+16,1.9007261188654452e+16,1215172710405188.2,1303292088611937.0,45605407191.96128,83037252448.9197,1111102539941.8904,22755633947411.098
27.165192135371807,1.6659214865264232e+16,1.923227193625974e+16,1229521284110572.0,1318681162471549.8,47238480437.224396,86010716687.11745,1150889790021.1262,23570485426270.945
27.808495978079243,1.685519336535024e+16,1.9459113980347504e+16,1243985335329643.2,1334194087803953.0,48923481939.09207,89078730939.0741,1191942192476.588,24411247458323.992
28.464665897640828,1.7052757281747434e+16,1.9687812093816336e+16,1258566397050938.0,1349832508763743.0,50661979223.54771,92244149336.56392,1234297937793.3,25278702187874.02
29.133959215593645,1.7251927454747638e+16,1.991839115387319e+16,1273266007377081.8,1365598074990459.8,52455586223.212814,95509910508.4579,1277996347089.9456,26173654914204.316
29.816638399905518,1.7452724798234254e+16,2.0150876147693932e+16,1288085709842079.0,1381492441948886.8,54305964615.88537,98879040017.95491,1323077904730.2932,27096934759381.066
30.51297116790363,1.7655170303667564e+16,2.0385292177741736e+16,1303027053705434.0,1397517271244484.0,56214825199.836624,102354652866.74352,1369584291830.2192,28049395354387.586
31.223230591261704,1.7859285043731348e+16,2.062166446671471e+16,1318091594221294.2,1413674230912053.5,58183929306.63889,105939956067.50105,1417558420679.0256,29031915543972.17
31.947695203086937,1.8065090175608536e+16,2.0860018362086e+16,1333280892880201.5,1429964995675038.2,60215090252.26757,109638251286.08562,1467044470093.1729,30045400110581.445
32.686649107148675,1.8272606943846684e+16,2.1100379340191372e+16,1348596517620571.2,1446391247172314.5,62310174827.18751,113452937554.71194,1518087921719.8254,31090780517731.33
33.44038208929165,1.8481856682765084e+16,2.134277300980955e+16,1364040043006377.0,1462954674148760.5,64471104826.09139,117387514057.32681,1570735597306.2812,32169015673147.29
34.20918973107749,1.869286081834849e+16,2.1587225115171096e+16,1379613050366864.0,1479656972605129.0,66699858617.897964,121445582988.29404,1625035696950.3245,33281092711978.0
34.993373525699035,1.890564086956054e+16,2.183376153832004e+16,1395317127893528.5,1496499845902020.5,68998472756.55841,125630852485.38283,1681037838344.6355,34428027800353.004
35.793240996213015,1.9120218449002024e+16,2.2082408300742468e+16,1411153870688686.8,1513485004812000.2,71369043633.13101,129947139637.90181,1738793097026.5955,35610866959513.78
36.60910581613728,1.933661526282809e+16,2.2333191564161564e+16,1427124880759362.2,1530614167513028.8,73813729169.49525,134398373570.65031,1798354047642.4998,36830686910702.62
37.44128793246003,1.955485310982718e+16,2.2586137630388376e+16,1443231766949307.0,1547889059515558.2,76334750553.96202,138988598604.1596,1859774806232.4004,38088595940936.16
38.29011369110923,1.977495387955326e+16,2.284127294010385e+16,1459476144801151.5,1565311413514688.2,78934394018.91142,143721977491.46,1923111073538.7966,39385734789728.164
39.15591596493141,1.9996939549391604e+16,2.3098624070432828e+16,1475859636339844.2,1582882969157897.5,81615012660.44336,148602794731.34567,1988420179338.8125,40723277556752.875
40.03903428423004,2.0220832180426804e+16,2.335821773115886e+16,1492383869767706.0,1600605472717973.0,84379028299.86028,153635459957.81442,2055761127795.448,42102432630359.59
40.93981496991464,2.0446653911969788e+16,2.362008075941544e+16,1509050479060488.5,1618480676659791.5,87228933386.61784,158824511405.01328,2125194643819.0295,43524443636752.85
41.85861126931294,2.067442695458988e+16,2.3884240112674044e+16,1525861103453111.5,1636510339088752.5,90167292942.17621,164174619446.661,2196783220425.0447,44990590409559.04
42.7957834946992,2.0904173581486252e+16,2.4150722859840104e+16,1542817386802833.2,1654696223067803.2,93196746543.95549,169690590208.495,2270591167068.949,46502189979375.195
43.751699164593184,2.1135916118025024e+16,2.4419556170252628e+16,1559920976817059.5,1673040095789173.5,96320010348.35228,175377369251.84653,2346684658932.5103,48060597582785.74
44.72673314788505,2.1369676929256236e+16,2.4690767300376416e+16,1577173524132032.0,1691543727586335.8,99539879151.5091,181240045325.96036,2425131787129.8965,49667207690189.04
