t(s),Total solute volume 1,Total retention volume 1,Total 1 volume 1,Total 2 volume 1,Total 3 volume 1,Total 4 volume 1,Total 5 volume 1,Total 6 volume 1
0.1,1373795654025336.8,3540173632894849.0,759959875137435.1,1406418103732074.5,0.0,0.0,0.0,-1.66771727949885e-108
0.202,1856378446977263.2,5656998474442528.0,1026916381964766.5,1900461464227652.5,136161177556.03174,573561979745.926,26137463276356.203,846394994839192.0
0.30604000000000003,2120063799744458.0,7540406767186130.0,1172782567655673.5,2170408704778647.2,314111948603.5861,1323220398249.1738,60476342703580.97,2015038019956913.0
0.41216080000000005,2287370041200585.5,9340484051334518.0,1265333491726465.2,2341688054483258.5,513446639269.05115,2162979944265.3708,98984586302722.33,3344431451037952.0
0.5204040160000001,2402860274455488.5,1.11104603361968e+16,1329220695165180.5,2459920899344651.0,726393753955.7047,3060095947766.3706,140144259190117.19,4774527718339638.0
0.6308120963200001,2487081302393099.0,1.2875008668443422e+16,1375810314533676.0,2546141977480661.5,949300108053.1246,3999176432682.559,183243110401870.5,6277783487093379.0
0.7434283382464002,2550974879912939.5,1.4647525512315676e+16,1411155139538490.8,2611552881281874.5,1180252597690.1628,4972160930321.949,227907935924325.25,7839782262130033.0
0.8582969050113283,2600934513653382.0,1.6436133140058822e+16,1438791947527822.5,2662698945817923.0,1418185486789.8035,5974559172011.616,273930524401954.84,9452384463998940.0
0.9754628431115548,2640949214483217.0,1.8246192494406148e+16,1460927390359137.5,2703663910169236.5,1662484967142.9253,7003785008005.099,321190699502961.06,1.1110795009916454e+16
1.094972099973786,2673634474113068.5,2.0081496829380228e+16,1479008312842158.2,2737125376979337.5,1912794919519.403,8058338035426.802,369618525997702.3,1.281213900649301e+16
1.2168715419732616,2700774064490184.5,2.19448936389257e+16,1494021466795456.0,2764909478086282.0,2168914161930.9893,9137370679153.885,419174307996626.75,1.4554708036716084e+16
1.3412089728127268,2723624353162807.0,2.383863253984663e+16,1506661853042846.0,2788302416523565.0,2430738876978.5073,10240445621000.885,469837373529541.94,1.63375353590899e+16
1.4680331522689813,2743094432617246.0,2.576457116035387e+16,1517432365847244.2,2808234873422815.0,2698228818622.9995,11367393416941.863,521599485599784.3,1.8160144380631216e+16
1.597393815314361,2759857402532208.5,2.7724302745351584e+16,1526705352329185.0,2825395932910451.0,2971386697009.0127,12518225636975.736,574460818734757.0,2.0022393626511e+16
1.729341691620648,2774421623562506.0,2.9719238356178616e+16,1534762028827851.8,2840306027971158.5,3250245186270.7007,13693080123035.11,628427420685663.6,2.1924377929822148e+16
1.863928525453061,2787177753743970.0,3.1750661594412056e+16,1541818500627023.5,2853365093838450.5,3534858505517.2847,14892185515406.494,683509565831072.9,2.3866363636350628e+16
2.001207095962122,2798430628255468.0,3.3819766090307496e+16,1548043397288336.5,2864885204814692.0,3825296830999.331,16115837708142.52,739720661099384.4,2.5848745064310452e+16
2.1412312378813647,2808421371103610.5,3.5927681839688744e+16,1553570104453115.2,2875113211049257.5,4121642509877.0444,17364383895519.666,797076503798295.1,2.7872014622879068e+16
2.284055862638992,2817343047869079.5,3.80754941285205e+16,1558505422671166.5,2884246762996379.5,4423987448630.018,18638211567924.09,855594769097028.2,2.993674192687028e+16
2.4297369798917723,2825351949567586.5,4.026425741255803e+16,1562935809437703.5,2892445863238452.0,4732431284116.349,19937740805537.996,915294650665193.1,3.2043558967559476e+16
2.578331719489608,2832575860923337.5,4.249500569063087e+16,1566931953059423.0,2899841331109884.0,5047080086368.525,21263418812613.062,976196605464303.9,3.4193149441174936e+16
2.7298983538794,2839120208958216.5,4.47687603949752e+16,1570552173947846.8,2906541097299762.5,5368045429093.451,22615716001176.355,1038322170630026.6,3.638624098270913e+16
2.884496320956988,2845072696939560.5,4.7086536493690936e+16,1573844988039232.2,2912634947844345.5,5695443718579.017,23995123163634.617,1101693831064266.0,3.862359946292135e+16
3.0421862473761276,2850506839733277.5,4.9449347286340184e+16,1576851062490868.5,2918198143436175.5,6029395706909.987,25402149422059.34,1166334923230222.5,4.090602477232069e+16
3.2030299723236504,2855484691379940.5,5.185820823128494e+16,1579604724529108.2,2923294211773507.5,6370026138461.146,26837320739121.39,1232269565151050.8,4.323434769157372e+16
3.3670905717701234,2860058971246095.5,5.431414004683236e+16,1582135137599569.5,2927977124202643.5,6717463494010.52,28301178840424.438,1299522605619500.0,4.560942756583013e+16
3.5344323832055258,2864274737198175.0,5.681817126172494e+16,1584467226938081.8,2932293008625787.5,7071839807225.212,29794280441852.168,1368119587663281.0,4.803215058105052e+16
3.7051210308696363,2868170713953106.5,5.937134034393925e+16,1586622414391322.2,2936281509396925.5,7433290535424.16,31317196705677.023,1438086722711535.5,5.050342849624524e+16
3.879223451487029,2871780356332433.0,6.19746975036968e+16,1588619206590657.8,2939976875825756.0,7801954471500.71,32870512870157.99,1509450872883633.0,5.302419772472268e+16
4.0568079205167695,2875132706834033.0,6.462930624280304e+16,1590473669346034.8,2943408840114855.0,8177973687397.628,34454828012143.46,1582239539509896.8,5.5595418685298664e+16
4.237944078927105,2878253092248437.5,6.733624470511829e+16,1592199813002096.2,2946603330519009.0,8561493502029.448,36070754912739.586,1656480856485072.8,5.821807536444887e+16
4.422702960505647,2881163693309401.0,7.009660687021266e+16,1593809907559086.8,2949583054523808.5,8952662468350.959,37718920003706.11,1732203587409633.5,6.08931750449387e+16
4.61115701971576,2883884013438103.0,7.291150362277248e+16,1595314741974033.2,2952367978721425.0,9351632375583.523,39399963377773.63,1809437125732205.8,6.3621748167153416e+16
4.803380160110075,2886431266725774.5,7.578206372319811e+16,1596723838786066.8,2954975726007060.5,9758558263576.139,41114538850144.91,1888211497296214.8,6.6404848297269224e+16
4.9994477633122765,2888820700849409.0,7.870943469942838e+16,1598045632747814.2,2957421906163172.5,10173598446993.61,42863314061455.71,1968557364834691.5,6.9243552182324904e+16
5.199436718578522,2891065867237454.0,8.169478367589893e+16,1599287620276419.2,2959720392441050.5,10596914547559.158,44646970614727.82,2050506034062694.2,7.213895987671906e+16
5.403425452950093,2893178848218804.0,8.473929815234802e+16,1600456485108439.8,2961883554104131.0,11028671532981.863,46466204240542.516,2134089461096117.0,7.509219492804694e+16
5.611493962009095,2895170448896788.0,8.784418674271963e+16,1601558204441231.0,2963922452858575.5,11469037761505.281,48321724985955.96,2219340260986208.0,7.81044046127893e+16
5.823723841249277,2897050359943905.5,9.101067988247048e+16,1602598138988203.8,2965847009514094.0,11918185031247.914,50214257423660.12,2306291717205198.5,8.117676021436408e+16
6.040198318074262,2898827296304914.0,9.424003051106669e+16,1603581109706964.2,2967666145980891.0,12376288633685.59,52144540878655.14,2394977791954085.0,8.431045733760757e+16
6.261002284435747,2900509115845481.0,9.753351473524955e+16,1604511463433716.2,2969387906736044.0,12843527410765.88,54113329670285.49,2485433137191234.5,8.750671625496187e+16
6.486222330124463,2902102921231692.0,1.0089243247768365e+17,1605393129241252.8,2971019563122407.0,13320083815253.258,56121393367949.07,2577693106301853.0,9.076678228060326e+16
6.715946776726952,2903615147727166.0,1.0431810811483483e+17,1606229667006797.2,2972567703230767.5,13806143973988.436,58169517059150.84,2671793766345466.0,9.409192616949158e+16
6.950265712261491,2905051639115620.5,1.0781189110729669e+17,1607024309411074.2,2974038309625403.5,14301897753813.248,60258501628851.734,2767771910831635.5,9.748344453893032e+16
7.18927102650672,2906417713571337.0,1.1137515662528632e+17,1607779998376704.0,2975436826778858.0,14807538829965.143,62389164049292.36,2865665072984892.5,1.009426603106953e+17
7.433056447036854,2907718220988567.5,1.1500930617161872e+17,1608499416781848.2,2976768219762802.0,15323264756787.846,64562337679646.266,2965511539468220.5,1.0447092317218096e+17
7.681717575977592,2908957593027777.0,1.1871576820413382e+17,1609185016144932.2,2978037025482794.0,15849277040639.03,66778872575003.04,3067350364541122.5,1.080696100553215e+17
7.935351927497144,2910139886930186.5,1.2249599875927549e+17,1609839040862096.0,2979247397533318.5,16385781214902.787,69039635804296.305,3171221384633906.0,1.1174012563229677e+17
8.194058966047088,2911268823982731.5,1.2635148207829845e+17,1610463549485339.8,2980403145576241.0,16932986917037.285,71345511776885.14,3277165233324065.5,1.1548390282723605e+17
8.45794014536803,2912347823376362.5,1.3028373123738717e+17,1611060433452363.8,2981507770003158.5,17491107967605.756,73697402577574.44,3385223356704374.0,1.1930240334330576e+17
8.72709894827539,2913380032085370.0,1.3429428878282158e+17,1611631433615290.2,2982564492524312.5,18060362451253.527,76096228309918.97,3495438029135113.5,1.2319711820470042e+17
9.0016409272409,2914368351300020.5,1.383847273721903e+17,1612178154862740.0,2983576283228951.5,18640972799606.49,78542927447712.67,3607852369375437.0,1.2716956831317587e+17
9.281673745785717,2915315459865224.0,1.425566504225495e+17,1612702079085721.8,2984545884580640.5,19233165876075.85,81038457194600.77,3722510357090709.5,1.3122130501885653e+17
9.567307220701432,2916223835111572.5,1.4681169276633062e+17,1613204576700958.5,2985475832742966.0,19837173062562.48,83583793851791.6,3839456849734473.5,1.3535391070512634e+17
9.85865336511546,2917095771409290.5,1.5115152131573206e+17,1613686916914670.0,2986368476574152.5,20453230348061.633,86179933193874.44,3958737599804996.5,1.3956899938748694e+17
10.155826432417769,2917933396728947.5,1.5557783573625827e+17,1614150276883629.0,2987225994581018.5,21081578419173.652,88827890852771.55,4080399272477578.5,1.438682173263151e+17
10.458942961066125,2918738687453046.0,1.6009236913002582e+17,1614595749908701.0,2988050410082348.0,21722462752532.453,91528702709876.17,4204489463614769.5,1.4825324365350448e+17
10.768121820287448,2919513481649307.5,1.6469688872940454e+17,1615024352777392.8,2988843604797391.0,22376133709166.547,94283425296448.23,4331056718157545.0,1.52725791013017e+17
11.083484256693197,2920259490987980.0,1.693931966015284e+17,1615437032356297.2,2989607331046175.0,23042846630812.523,97093136202347.92,4460150548901162.0,1.5728760621540365e+17
11.405153941827061,2920978311461302.0,1.7418313036418134e+17,1615834671520922.5,2990343222723528.0,23722861938202.195,99958934493209.55,4591821455660097.0,1.6194047090638394e+17
11.733257020663602,2921671433042646.0,1.7906856391352963e+17,1616218094498957.5,2991052805187644.5,24416445231349.074,102881941136163.45,4726120944827051.0,1.6668620224960576e+17
12.067922161076874,2922340248405178.0,1.8405140816416118e+17,1616588071693291.2,2991737504185759.5,25123867391861.594,105863299434226.28,4863101549331408.0,1.7152665362371955e+17
12.409280604298411,2922986060804688.0,1.8913361180186525e+17,1616945324042656.5,2992398653924224.0,25845404687311.81,108904175469492.06,5002816849003045.0,1.7646371533393366e+17
12.75746621638438,2923610091218234.5,1.9431716204957414e+17,1617290526970602.5,2993037504376646.0,26581338877692.11,112005758555256.94,5145321491347840.0,1.814993153382278e+17
13.112615540712067,2924213484818921.5,1.996040854468816e+17,1617624313967237.8,2993655227912448.0,27331957323992.484,115169261697229.03,5290671212741410.0,1.866354199884203e+17
13.474867851526309,2924797316857540.0,2.0499644864352992e+17,1617947279842840.8,2994252925318183.5,28097553098933.05,118395922063972.12,5438922860048081.0,1.9187403478630038e+17
13.844365208556836,2925362598013170.5,2.1049635920726342e+17,1618259983687738.0,2994831631275228.0,28878425099888.88,121687001466742.81,5590134412672436.0,1.9721720515504832e+17
14.221252512727972,2925910279267775.5,2.1610596644643382e+17,1618562951568830.2,2995392319350097.0,29674878164043.91,125043786848888.34,5744365005050867.0,2.0266701722618336e+17
14.605677562982532,2926441256353238.5,2.2182746224773286e+17,1618856678989616.8,2995935906547122.5,30487223185813.367,128467590784972.62,5901674949591046.0,2.0822559864228106e+17
14.997791114242183,2926956373813838.0,2.2766308192943834e+17,1619141633137502.5,2996463257467393.5,31315777236574.797,131959751989809.58,6062125760067312.0,2.1389511937572595e+17
15.397746936527026,2927456428722349.5,2.33615105110542e+17,1619418254939468.8,2996975188113138.5,32160863686749.004,135521635837583.34,6225780175480412.0,2.1967779256376234e+17
15.805701875257567,2927942174083655.0,2.3968585659613645e+17,1619686960944893.5,2997472469372102.5,33022812330273.203,139154634891242.0,6392702184389974.0,2.2557587536012403e+17
16.221815912762718,2928414321956003.5,2.458777072794327e+17,1619948145052183.0,2997955830213001.5,33901959511510.254,142860169442356.38,6562957049728664.0,2.3159166980352918e+17
16.64625223101797,2928873546316862.0,2.5219307506078925e+17,1620202180094106.5,2998425960619398.0,34798648254637.97,146639688061639.97,6736611334106867.0,2.3772752370333555e+17
17.079177275638333,2929320485697418.5,2.5863442578411696e+17,1620449419295159.0,2998883514286759.5,35713228395564.87,150494668160330.88,6913732925617286.0,2.4398583154266442e+17
17.5207608211511,2929755745607139.0,2.6520427419104835e+17,1620690197612786.2,2999329111104622.0,36646056716418.2,154426616562637.72,7094391064148660.0,2.503690353992962e+17
17.97117603757412,2930179900767750.5,2.7190518489324346e+17,1620924832973188.8,2999763339443607.0,37597497082652.77,158437070089466.8,7278656368218545.0,2.5687962588466838e+17
18.430599558325603,2930593497173818.5,2.787397733632179e+17,1621153627411190.5,3000186758264960.5,38567920582827.86,162527596153635.4,7466600862334678.0,2.6352014310129693e+17
18.899211549492115,2930997053995539.0,2.8571070694407827e+17,1621376868122832.0,3000599899068482.0,39557705671103.18,166699793366796.66,7658298004895274.0,2.7029317761895827e+17
19.37719578048196,2931391065337558.5,2.928207058785544e+17,1621594828438330.5,3001003267693183.5,40567238312503.76,170955292158299.0,7853822716638369.0,2.772013714699761e+17
19.864739696091597,2931776001866596.5,3.0007254435772045e+17,1621807768722434.0,3001397345983497.0,41596912131005.35,175295755406203.34,8053251409650763.0,2.842474191639599e+17
20.36203449001343,2932152312318997.5,3.074690515898088e+17,1622015937208395.8,3001782593332692.0,42647128560492.836,179722879080696.5,8256662016947209.0,2.914340687223601e+17
20.869275179813698,2932520424898648.0,3.150131128895081e+17,1622219570771251.0,3002159448113931.0,43718296998645.38,184238392900132.97,8464134022630876.0,2.987641227331949e+17
21.38666068340997,2932880748574345.5,3.2270767078816794e+17,1622418895645522.5,3002528329008490.5,44810834963802.79,188844060999952.0,8675748492646017.0,3.0624043942633005e+17
21.91439389707817,2933233674285160.0,3.3055572616530963e+17,1622614128091995.2,3002889636239745.0,45925168254868.17,193541682614708.06,8891588106134418.0,3.138659337696894e+17
22.452681775019734,2933579576061293.5,3.385603394018708e+17,1622805475017762.2,3003243752720621.0,47061731114304.234,198333092773476.62,9111737187407028.0,3.216435785867758e+17
23.00173541052013,2933918812067360.5,3.467246315556035e+17,1622993134553335.0,3003591045121669.0,48220966394279.67,203220163008883.1,9336281738542542.0,3.2957640569591565e+17
23.561770118730532,2934251725574352.0,3.550517855590627e+17,1623177296590342.2,3003931864866124.5,49403325726024.92,208204802080016.66,9565309472625210.0,3.376675070716007e+17
24.133005521105144,2934578645866017.5,3.6354504744060883e+17,1623358143282900.0,3004266549057780.5,50609269692456.914,213288956709498.28,9798909847633582.0,3.4592003602836717e+17
24.715665631527248,2934899889084786.0,3.722077275688858e+17,1623535849515571.8,3004595421347034.5,51839268004132.586,218474612334969.62,1.0037174100993318e+16,3.54337208427606e+17
25.309978944157795,2935215759022034.0,3.810432019212054e+17,1623710583340535.8,3004918792739901.0,53093799678593.63,223763793875281.9,1.0280195284806158e+16,3.6292230390774304e+17
25.91617852304095,2935526547856952.5,3.900549133763129e+17,1623882506386303.5,3005236962354435.0,54373353223164.97,229158566511659.88,1.0528068301768398e+16,3.716786671382117e+17
26.53450209350177,2935832536848011.0,3.992463730319794e+17,1624051774240235.0,3005550218128617.0,55678426821270.0,234661036484133.06,1.0780889941791846e+16,3.806097090976651e+17
27.165192135371807,2936133996980566.5,4.08621161547908e+17,1624218536806778.0,3005858837483330.0,57009528522329.07,240273351903522.2,1.103875891934061e+16,3.8971890837687046e+17
27.808495978079243,2936431189573968.5,4.181829305144183e+17,1624382938643309.5,3006163087943903.5,58367176435304.72,245997703579275.38,1.1301775911497688e+16,3.990098125067453e+17
28.464665897640828,2936724366851153.0,4.279354038474084e+17,1624545119275227.2,3006463227723215.0,59751898925963.44,251836325863460.8,1.1570043596774892e+16,4.084860393119944e+17
29.133959215593645,2937013772473490.5,4.378823792100674e+17,1624705213491818.5,3006759506269243.5,61164234817919.47,257791497511215.25,1.1843666694680464e+16,4.181512782908232e+17
29.816638399905518,2937299642043469.5,4.4802772946186515e+17,1624863351624330.8,3007052164779713.0,62604733597531.89,263865542557970.3,1.2122752006058826e+16,4.280092920212037e+17
30.51297116790363,2937582203577489.0,4.5837540413530464e+17,1625019659807528.0,3007341436686084.5,64073955622724.62,270060831213768.97,1.240740845421708e+16,4.380639175941796e+17
31.223230591261704,2937861677951003.5,4.689294309409654e+17,1625174260225913.5,3007627548109287.0,65572472335800.23,276379780774994.7,1.269774712685315e+16,4.483190680747152e+17
31.947695203086937,2938138279317870.0,4.796939173013625e+17,1625327271345725.5,3007910718289008.5,67100866480321.43,282824856553849.8,1.2993881318800856e+16,4.5877873399057517e+17
32.686649107148675,2938412215505849.5,4.906730519141509e+17,1625478808133706.8,3008191159988609.5,68659732322133.56,289398572825912.25,1.3295926575607432e+16,4.69446984849767e+17
33.44038208929165,2938683688389816.0,5.018711063452132e+17,1625628982263576.8,3008469079877208.5,70249675874602.92,296103493796114.4,1.3604000737959126e+16,4.803279706870526e+17
34.20918973107749,2938952894244370.0,5.132924366521912e+17,1625777902311066.8,3008744678890607.5,71871315128147.14,302942234583494.0,1.3918223986971006e+16,4.9142592364006234e+17
34.993373525699035,2939220024077108.0,5.2494148503901126e+17,1625925673938299.8,3009018152572547.0,73525280284136.45,309917462225065.6,1.4238718890357256e+16,5.027451595555568e+17
35.793240996213015,2939485263944029.0,5.368227815419704e+17,1626072400068257.5,3009289691397568.5,75212213993241.1,317031896699179.2,1.4565610449498644e+16,5.14290079626369e+17
36.60910581613728,2939748795248208.5,5.4894094574796384e+17,1626218181050002.8,3009559481076779.5,76932771598309.73,324288311968725.44,1.4899026147423872e+16,5.2606517205959795e+17
37.44128793246003,2940010795022895.0,5.613006885454382e+17,1626363114815286.0,3009827702847685.5,78687621381855.1,331689537044565.44,1.5239095997722344e+16,5.380750137766033e+17
38.29011369110923,2940271436200099.0,5.739068139086566e+17,1626507297027121.5,3010094533749140.0,80477444818232.45,339238457069560.0,1.5585952594405438e+16,5.50324272145387e+17
39.15591596493141,2940530887865584.0,5.867642207158971e+17,1626650821220852.0,3010360146882426.5,82302936830592.67,346938014423587.75,1.5939731162734406e+16,5.6281770674593856e+17
40.03903428423004,2940789315501260.0,5.99877904602166e+17,1626793778938219.5,3010624711659367.0,84164806052696.75,354791209849940.4,1.6300569611032826e+16,5.7556017116913165e+17
40.93981496991464,2941046881215708.5,6.132529598470912e+17,1626936259854904.2,3010888394038342.0,86063775095675.2,362801103603500.25,1.6668608583502258e+16,5.885566148497807e+17
