t(s),Total solute volume 1,Total retention volume 1,Total 1 volume 1,Total 2 volume 1,Total 3 volume 1,Total 4 volume 1,Total 5 volume 1,Total 6 volume 1
0.1,1277535415264620.8,2216485712870468.2,368078767489456.25,570871530116391.1,0.0,0.0,0.0,3.710125213445117e-74
0.202,1920712936792191.8,3333869973523947.5,553388702049682.94,858277927753334.9,415592818.5231503,1334571271.0373807,41680791683.31354,1446975972963.5325
0.30604000000000003,2411071884156365.5,4186927532862274.0,694669108374501.5,1077396711422151.1,1053811509.6277037,3384068024.8796387,105715761569.81357,3679675268152.304
0.41216080000000005,2825663566246146.0,4909178658851776.0,814119729926580.0,1262658596757431.8,1871094292.4853027,6008593153.709242,187722596772.37094,6541163637403.363
0.5204040160000001,3193606985677363.0,5551073168065219.0,920130226476451.4,1427075525583161.0,2848004505.859419,9145728938.177011,285749365901.4437,9962687228901.465
0.6308120963200001,3529438763682003.5,6137793617265969.0,1016888835658403.1,1577143243759681.8,3974057890.243442,12761807079.25146,398743484415.4702,13907294816503.205
0.7434283382464002,3841614435608601.5,6683988183800330.0,1106831735066800.1,1716640139989846.2,5243206519.301651,16837405805.859657,526097816633.52484,18353694706130.887
0.8582969050113283,4135552644420098.5,7199045478477644.0,1191520124076538.8,1847987555786044.5,6651981301.470269,21361384800.79988,667464115949.6239,23289676712909.098
0.9754628431115548,4414966932190294.0,7689401836132549.0,1272023934695420.8,1972844901722419.8,8198576125.936219,26327944092.647648,822661065696.9968,28708879938496.92
1.094972099973786,4682531046411133.0,8159693760978334.0,1349113517160412.2,2092406952148213.0,9882340307.462133,31734994134.544014,991623323799.5695,34609004600337.2
1.2168715419732616,4940244395927163.0,8613390875524435.0,1423364933751044.5,2207567150588660.2,11703473344.060747,37583175575.81555,1174370880975.6938,40990737727667.18
1.3412089728127268,5189647686077329.0,9053169335017202.0,1495222086789356.8,2319013967141651.0,13662829956.826094,43875233184.8311,1370989490730.1912,47857067454982.88
1.4680331522689813,5431957477615005.0,9481144811236250.0,1565035487258427.5,2427291026650325.0,15761789730.360683,50615597224.664215,1581617584440.0728,55212824741104.25
1.597393815314361,5668154021956616.0,9899024557162248.0,1633087561569359.2,2532836358222343.5,18002166790.01569,57810093399.391235,1806437205423.6506,63064365948312.52
1.729341691620648,5899040762090326.0,1.0308210406449082e+16,1699609794743027.8,2636008983439977.0,20386145448.010998,65465736194.45172,2045667549720.9468,71419346744384.39
1.863928525453061,6125285910762966.0,1.0709870740822244e+16,1764794709763503.8,2737107495732875.5,22916233339.594402,73590578382.87245,2299560262441.622,80286557488742.55
2.001207095962122,6347452282031775.0,1.1104992121420198e+16,1828804462534390.2,2836383390721643.5,25595226718.57966,82193599578.95247,2568395954585.1934,89675801351503.47
2.1412312378813647,6566019187032698.0,1.1494417183218656e+16,1891777150406566.2,2934050850426024.0,28426184439.660637,91284622687.82133,2852481591761.8354,99597802954473.42
2.284055862638992,6781398826162927.0,1.1878873003887516e+16,1953831535033186.5,3030294068174651.0,31412408295.6874,100874250762.69733,3152148520757.4443,110064139336934.97
2.4297369798917723,6993948776110344.0,1.225899271449598e+16,2015070640086406.8,3125272828482078.5,34557428102.600334,110973819108.30856,3467750972612.7173,121087187597319.56
2.578331719489608,7203981649504179.0,1.2635332217870976e+16,2075584534360179.0,3219126823500801.5,37864990398.55968,121595358990.58612,3799664928448.926,132680085227983.78
2.7298983538794,7411772670546514.0,1.300838330136546e+16,2135452514433182.0,3311979038221235.0,41339049941.771,132751570333.81018,4148287266188.5854,144856700278059.1
2.884496320956988,7617565689773182.0,1.3378584049522958e+16,2194744837619477.2,3403938438190696.0,44983763409.77298,144455801487.31845,4514035128227.568,157631609246483.3
3.0421862473761276,7821578012825268.0,1.374632720543959e+16,2253524113216267.0,3495102127268550.0,48803484855.84011,156722034634.84225,4897345465460.466,171020081144559.56
3.2030299723236504,8024004316273438.0,1.4111966953330318e+16,2311846430716741.0,3585557097427215.0,52802762587.20431,169564875769.72968,5298674724006.563,185038066550549.1
3.3670905717701234,8225019852316954.0,1.4475824471528452e+16,2369762283136083.0,3675381660784342.0,56986337208.85394,182999548413.19873,5718498648918.875,199702190756532.72
3.5344323832055258,8424783093551091.0,1.4838192517518506e+16,2427317329012043.5,3764646631427166.0,61359140634.84936,197041890439.57974,6157312184997.7295,215029750312126.38
3.7051210308696363,8623437932466857.0,1.5199339243381678e+16,2484553026116718.5,3853416308267477.0,65926295912.47261,211708353511.81934,6615629459184.257,231038712422022.2
3.879223451487029,8821115523627737.0,1.5559511393794818e+16,2541507162217661.0,3941749298225302.5,70693117737.29056,227016004735.72034,7093983832297.792,247747716769352.6
4.0568079205167695,9017935836677696.0,1.5918937004477964e+16,2598214302524789.5,4029699210196545.0,75665113562.22125,242982530221.7202,7592928010390.698,265176079424739.66
4.237944078927105,9214008973506820.0,1.627782769332965e+16,2654706169187296.5,4117315243633433.5,80847985222.99844,259626240304.97815,8113034207932.391,283343798568645.25
4.422702960505647,9409436291670682.0,1.6636380617059896e+16,2711011964969109.5,4204642690548861.0,86247631017.4629,276966076222.85785,8654894356542.696,302271561807463.5
4.61115701971576,9604311367570836.0,1.6994780151270552e+16,2767158650756808.0,4291723365917186.0,91870148187.93474,295021618086.8224,9219120354181.8,321980754905276.44
4.803380160110075,9798720826271732.0,1.7353199340462924e+16,2823171184643474.5,4378595978481177.5,97721835765.28468,313813094015.8825,9806344350643.916,342493471786112.9
4.9994477633122765,9992745059667524.0,1.771180115552118e+16,2879072728844238.0,4465296451667577.5,103809197740.81583,333361390322.73566,10417219065953.38,363832525687817.2
5.199436718578522,1.0186458850658614e+16,1.8070739589210896e+16,2934884829531702.5,4551858202502782.0,110138946538.07846,353688062663.10876,11052418138865.904,386021461369764.5
5.403425452950093,1.0379931917792748e+16,1.8430160614688308e+16,2990627573755946.5,4638312384987796.0,116718006761.62709,374815348074.45685,11712636503167.883,409084568293822.44
5.611493962009095,1.0573229392272598e+16,1.879020302760053e+16,3046319726878119.0,4724688103250958.0,123553519203.70108,396766177842.94305,12398590789864.738,433046894711859.6
5.823723841249277,1.0766412237184142e+16,1.9150999188817356e+16,3101978853357059.5,4811012598881633.0,130652845093.07239,419564191148.1068,13111019753677.475,457934262604608.9
6.040198318074262,1.0959537617148802e+16,1.951267568198027e+16,3157621423252025.5,4897311416110785.0,138023570572.989,443233749443.2513,13850684722536.088,483773283426083.0
6.261002284435747,1.1152659225261176e+16,1.9875353897731884e+16,3213262906418857.5,4983608547904360.0,145673511397.37338,467799951536.72363,14618370068981.521,510591374615591.3
6.486222330124463,1.13458275730801e+16,2.0239150554603588e+16,3268917856061037.0,5069926565546851.0,153610717836.29062,493288649345.2486,15414883702575.154,538416776845902.7
6.715946776726952,1.1539090248542006e+16,2.0604178164979876e+16,3324599983038826.0,5156286733890858.0,161843479783.25104,519726464295.42334,16241057582569.36,567278571981553.4
6.950265712261491,1.1732492145925778e+16,2.0970545453281984e+16,3380322222125804.5,5242709114117855.0,170380332058.21255,547140804353.7002,17097748250224.193,597206701725887.0
7.18927102650672,1.1926075671383418e+16,2.133835773245042e+16,3436096791225686.0,5329212655580264.0,179230059901.25302,575559881668.6793,17985837380265.695,628231986939249.5
7.433056447036854,1.2119880927040782e+16,2.170771724392371e+16,3491935244414681.0,5415815278067660.0,188401704652.8125,605012730812.55,18906232351073.5,660386147614032.9
7.681717575977592,1.231394587624479e+16,2.207872346557023e+16,3547848519551906.5,5502533945647986.0,197904569617.17645,635529227611.0244,19859866833266.176,693701823495061.4
7.935351927497144,1.2508306492174468e+16,2.245147339141348e+16,3603846981096709.5,5589384733075131.0,207748226106.57434,667140108553.2699,20847701396418.246,728212595336107.5
8.194058966047088,1.2702996891732304e+16,2.2826061786465436e+16,3659940458684895.0,5676382885618698.0,217942519663.80228,699876990775.2062,21870724133701.902,763953006785407.4
8.45794014536803,1.2898049456374454e+16,2.3202581419541936e+16,3716138281941921.5,5763542873057497.0,228497576461.7963,733772392611.0364,22929951304294.51,800958586894714.9
8.72709894827539,1.3093494941323398e+16,2.358112327655953e+16,3772449311948772.5,5850878438481492.0,239423809878.98764,768859754709.3116,24026427993434.36,839265873247877.5
9.0016409272409,1.3289362574419284e+16,2.3961776756491516e+16,3828881969722735.0,5938402642464170.0,250731927249.62308,805173461710.9011,25161228790044.76,878912435706271.4
9.281673745785717,1.3485680145710396e+16,2.4344629851888852e+16,3885444262029800.0,6026127903096114.0,262432936788.55103,842748864487.232,26335458481875.055,919936900769404.5
9.567307220701432,1.3682474088745296e+16,2.4729769315638268e+16,3942143804806311.0,6114066032310942.0,274538154690.22485,881622302938.0616,27550252768135.098,962378976549941.5
9.85865336511546,1.3879769554414638e+16,2.5117280815424736e+16,3998987844433921.5,6202228268881578.0,287059212401.9072,921831129348.6661,28806778989620.785,1006279478363239.0
10.155826432417769,1.4077590478087632e+16,2.550724907719582e+16,4055983277082783.5,6290625308420620.0,300008064071.2304,963413732306.9973,30106236876348.27,1051680354932085.1
10.458942961066125,1.4275959640703882e+16,2.589975801877231e+16,4113136666313061.5,6379267330679391.0,313396994168.4538,1006409561181.8684,31449859312729.035,1098624715207914.9
10.768121820287448,1.447489872440312e+16,2.6294890874619188e+16,4170454259102748.5,6468164024406270.0,327238625283.86444,1050859151163.6345,32838913120333.96,1147156855810285.8
11.083484256693197,1.4674428363211776e+16,2.66927303126794e+16,4227942000451345.5,6557324609996280.0,341545926100.9011,1096804148869.2115,34274699858302.168,1197322289086727.8
11.405153941827061,1.4874568189246944e+16,2.70933585440712e+16,4285605546691922.0,6646757860137347.0,356332219545.6702,1144287338513.567,35758556641463.82,1249167771795472.8
11.733257020663602,1.5075336874848744e+16,2.749685742636615e+16,4343450277630156.5,6736472118637448.0,371611191113.57043,1193352668650.0513,37291856976249.46,1302741334413779.0
12.067922161076874,1.5276752171008176e+16,2.790330856108668e+16,4401481307616072.5,6826475317596246.0,387396897373.8504,1244045279482.13,38876011614467.06,1358092311074823.0
12.409280604298411,1.5478830942419646e+16,2.8312793385997756e+16,4459703495643156.5,6916774993068315.0,403703774652.9126,1296411530749.208,40512469425032.08,1415271370136206.2
12.75746621638438,1.568158919945248e+16,2.8725393262707484e+16,4518121454559933.0,7007378299349872.0,420546647897.249,1350499030189.341,42202718283736.1,1474330545383353.2
13.112615540712067,1.5885042127307426e+16,2.914118956003977e+16,4576739559470440.0,7098292022007384.0,437940739716.89386,1406356662581.697,43948285981146.5,1535323267871047.2
13.474867851526309,1.6089204112596576e+16,2.9560263733597884e+16,4635561955392233.0,7189522589754946.0,455901679610.2838,1464034619371.6506,45750741148725.18,1598304398406409.5
13.844365208556836,1.629408876756274e+16,2.9982697401896268e+16,4694592564234566.0,7281076085276824.0,474445513371.4283,1523584428881.373,47611694203258.2,1663330260676654.0
14.221252512727972,1.6499708952133582e+16,3.040857241940273e+16,4753835091152348.0,7372958255082385.0,493588712680.2731,1585058987108.7822,49532798309685.49,1730458675024918.2
14.605677562982532,1.6706076793987286e+16,3.083797094680107e+16,4813293030327535.0,7465174518472529.0,513348184877.12213,1648512589117.6147,51515750362417.09,1799748992877276.8
14.997791114242183,1.6913203706790568e+16,3.1270975518757104e+16,4872969670223712.0,7557729975689419.0,533741282921.9567,1714000961021.3564,53562291985221.875,1871262131824254.8
15.397746936527026,1.7121100406755282e+16,3.1707669109444044e+16,4932868098356383.0,7650629415314859.0,554785815539.4592,1781581292563.5793,55674210549769.49,1945060611359628.0
15.805701875257567,1.7329776927647344e+16,3.2148135196062044e+16,4992991205617249.0,7743877320977127.0,576500057550.5095,1851312270297.149,57853340212903.11,2021208589279583.0
16.221815912762718,1.7539242634369574e+16,3.2592457820567e+16,5053341690187658.0,7837477877420452.0,598902760390.8584,1923254111364.6768,60101562972715.33,2099771898744786.5
16.64625223101797,1.7749506235230518e+16,3.304072164980355e+16,5113922061073401.0,7931434975987439.0,622013162817.678,1997468597882.2786,62420809743495.98,2180818086007995.0
17.079177275638333,1.7960575793001408e+16,3.3493012034224612e+16,5174734641290525.0,8025752219559841.0,645851001804.5536,2074019111928.6472,64813061449611.555,2264416448809515.0
17.5207608211511,1.817245873485607e+16,3.394941506536122e+16,5235781570729035.0,8120432927000419.0,670436523625.5066,2152970671141.2031,67280350138373.555,2350638075442599.0
17.97117603757412,1.8385161861280504e+16,3.441001763219718e+16,5297064808720023.0,8215480137133989.0,695790495128.5024,2234389964920.8506,69824760111943.555,2439555884490642.0
18.430599558325603,1.8598691354032444e+16,3.4874907476588416e+16,5358586136328867.0,8310896612304344.0,721934215198.8596,2318345391246.665,72448429078317.5,2531244665237925.5
18.899211549492115,1.8813052783225484e+16,3.5344173247858604e+16,5420347158396272.0,8406684841539770.0,748889526412.893,2404907094101.5576,75153549321421.69,2625781118755109.0
19.37719578048196,1.902825111360687e+16,3.581790455669152e+16,5482349305347067.0,8502847043358225.0,776678826882.0509,2494147001509.8335,77942368890348.55,2723243899660666.0
19.864739696091597,1.924429071009294e+16,3.629619202843236e+16,5544593834785008.0,8599385168241122.0,805325082287.7131,2586138864187.088,80817192807748.66,2823713658559075.0
20.36203449001343,1.946117534262317e+16,3.677912735590311e+16,5607081832891363.0,8696300900802052.0,834851838106.7367,2680958294802.7324,83780384297389.81,2927273085156236.5
20.869275179813698,1.9678908190387812e+16,3.726680335182966e+16,5669814215642836.0,8793595661676121.0,865283232027.7555,2778682807855.3203,86834366030881.8,3034006952052250.0
21.38666068340997,1.989749184548221e+16,3.775931400097164e+16,5732791729864616.0,8891270609152919.0,896644006558.1417,2879391860160.146,89981621393561.1,3144002159211614.0
21.91439389707817,2.011692831603776e+16,3.825675451203901e+16,5796014954132280.0,8989326640575380.0,928959521821.437,2983166891948.739,93224695769515.47,3257347779110254.5
22.452681775019734,2.033721902887528e+16,3.875922136947893e+16,5859484299536433.0,9087764393525738.0,962255768545.0123,3090091368579.28,96566197845723.94,3374135102558629.5
23.00173541052013,2.0558364831725436e+16,3.926681238520461e+16,5923200010322323.0,9186584246817516.0,996559381237.5415,3200250822856.795,100008800935273.17,3494457685199888.5
23.561770118730532,2.078036599505799e+16,3.977962675033862e+16,5987162164416944.0,9285786321313038.0,1031897651555.8588,3313732897961.61,103555244319607.33,3618411394681558.5
24.133005521105144,2.100322221355922e+16,4.029776508703917e+16,6051370673854637.0,9385370480583594.0,1068298541860.6381,3430627390984.336,107208334609753.12,3746094458499118.0
24.715665631527248,2.122693260729529e+16,4.082132950046869e+16,6115825285112436.0,9485336331429324.0,1105790698960.2305,3551026297065.252,110970947126458.2,3877607512509135.0
25.309978944157795,2.1451495722598564e+16,4.135042363096988e+16,6180525579365152.0,9585683224275098.0,1144403468041.9055,3675023854135.689,114846027299164.73,4013053650109754.5
25.91617852304095,2.16769095327094e+16,4.188515270650213e+16,6245470972670643.0,9686410253457674.0,1184166906789.6995,3802716588258.781,118836592083738.42,4152538472085572.0
26.53450209350177,2.1903171438209344e+16,4.24256235953946e+16,6310660716094297.0,9787516257418856.0,1225111799687.8667,3934203359566.4565,122945731398857.05,4296170137113955.0
27.165192135371807,2.2130278267274984e+16,4.297194485946792e+16,6376093895782313.0,9888999818819172.0,1267269672508.9563,4069585408789.577,127176609580956.7,4444059412929169.0
27.808495978079243,2.2358226275784464e+16,4.352422680757217e+16,6441769432992477.0,9990859264585444.0,1310672806985.4238,4208966404377.504,131532466857627.31,4596319728140834.0
28.464665897640828,2.2587011147307108e+16,4.408258154959169e+16,6507686084090956.0,1.0093092665906074e+16,1355354255663.5413,4352452490203.372,136016620839334.92,4753067224702398.0
29.133959215593645,2.2816627993002784e+16,4.464712305095812e+16,6573842440523525.0,1.019569783818615e+16,1401347856938.3062,4500152333850.903,140632468029345.22,4914420811025523.0
29.816638399905518,2.3047071351461116e+16,4.521796718771874e+16,6640236928769074.0,1.0298672340975572e+16,1448688250268.1167,4652177175478.529,145383485351714.16,5080502215735520.0
30.51297116790363,2.3278335188506444e+16,4.579523180220088e+16,6706867810283472.0,1.0402013477881732e+16,1497410891567.6377,4808640877256.167,150273231697199.78,5251436042063362.0
31.223230591261704,2.351041289699462e+16,4.637903675931274e+16,6773733181441147.0,1.0505718296479228e+16,1547552068777.4846,4969659973369.8125,155305349486951.8,5427349822868624.0
31.947695203086937,2.374329729662938e+16,4.6969504003518776e+16,6840830973481914.0,1.0609783588227084e+16,1599148917609.1125,5135353720589.375,160483566253819.38,5608374076288407.0
32.686649107148675,2.3976980633820316e+16,4.756675761653109e+16,6908158952470275.0,1.0714205888405794e+16,1652239437463.361,5305844149393.961,165811696241116.7,5794642362006648.0
33.44038208929165,2.421145458161006e+16,4.817092387574887e+16,6975714719274372.0,1.0818981476084668e+16,1706862507520.9236,5481256115649.967,171293642018689.22,5986291338137972.0
34.20918973107749,2.444671023969239e+16,4.878213131348562e+16,7043495709571167.0,1.0924106374129826e+16,1763057903003.1626,5661717352836.209,176933396116097.34,6183460818720339.0
34.993373525699035,2.4682738134546584e+16,4.94005107770157e+16,7111499193885212.0,1.1029576349264358e+16,1820866311601.4614,5847358524810.701,182735042672762.22,6386293831810387.0
35.793240996213015,2.491952821970961e+16,5.002619548947611e+16,7179722277667003.0,1.1135386912189758e+16,1880329350073.4412,6038313279113.425,188702759104887.56,6594936678175709.0
36.60910581613728,2.515706987620951e+16,5.0659321111655576e+16,7248161901417934.0,1.124153331777985e+16,1941489581004.2727,6234718300799.809,194840817788990.6,6809538990577470.0
37.44128793246003,2.539535191318246e+16,5.130002580470296e+16,7316814840867968.0,1.1348010565356392e+16,2004390529731.3208,6436713366798.863,201153587761859.97,7030253793637721.0
38.29011369110923,2.5634362568694004e+16,5.194845029378632e+16,7385677707212375.0,1.1454813399055972e+16,2069076701430.4553,6644441400790.807,207645536436776.62,7257237564285043.0
39.15591596493141,2.5874089510787344e+16,5.2604737932734536e+16,7454746947413648.0,1.156193630829843e+16,2135593598362.2205,6858048528598.583,214321231335819.25,7490650292772438.0
40.03903428423004,2.611451983877809e+16,5.326903476968955e+16,7524018844574599.0,1.166937352836568e+16,2203987737276.346,7077684134087.959,221185341838091.4,7730655544261812.0
40.93981496991464,2.6355640084817084e+16,5.394148961380097e+16,7593489518388686.0,1.1777119041099772e+16,2274306666972.79,7303500915570.885,228242640943705.3,7977420520969116.0
41.85861126931294,2.659743621574059e+16,5.462225410298989e+16,7663154925672922.0,1.1885166575729688e+16,2346598986017.9736,7535654942707.451,235498007053371.56,8231116124864612.0
42.7957834946992,2.683989363522755e+16,5.531148277281359e+16,7733010860989593.0,1.1993509609835588e+16,2420914360614.536,7774305713901.444,242956425763440.12,8491917020922820.0
