t(s),Total solute volume 1,Total retention volume 1,Total 1 volume 1,Total 2 volume 1,Total 3 volume 1,Total 4 volume 1,Total 5 volume 1,Total 6 volume 1
0.1,1392571168361754.5,6037270240607699.0,1452613831222594.2,3192085241023349.0,0.0,0.0,0.0,-0.09582846306271511
0.202,1927424528850149.5,9252116378647728.0,2010528731358017.0,4418098209459906.5,219566427674.17032,1201458278669.6345,64906831598799.44,829737052674507.8
0.30604000000000003,2239744725682283.0,1.1990836767711824e+16,2336315229404488.0,5134008880691261.0,515396400390.85236,2820934850046.759,155182961811150.53,2122248638872194.0
0.41216080000000005,2441733905502067.0,1.4527099933806162e+16,2547013552027725.0,5597014851814900.0,851270473646.3912,4659757174167.425,258343627849344.75,3677482968964307.5
0.5204040160000001,2581945725130726.5,1.6966795597361408e+16,2693270861025221.0,5918412706102902.0,1212280967161.3167,6636247170686.779,369462001741726.56,5395855775222990.0
0.6308120963200001,2684398670251175.5,1.9361568789455796e+16,2800141251246666.0,6153258484945447.0,1591384418659.1997,8711827824004.831,486284515821504.2,7227182654948341.0
0.7434283382464002,2762092000380163.0,2.174043881910831e+16,2881184471555318.5,6331349530367073.0,1984829826457.4246,10865959638105.38,607638543414394.8,9145323483926802.0
0.8582969050113283,2822617649281418.5,2.412134771301997e+16,2944319796176298.0,6470088312171357.0,2390417640006.073,13086598861670.28,732841037877972.2,1.1136003901011258e+16
0.9754628431115548,2870755849016946.0,2.6516192880647292e+16,2994533565336516.5,6580432220998692.0,2806814969083.2744,15366446483845.338,861474893134990.9,1.3190823090707216e+16
1.094972099973786,2909680597842917.5,2.893331693457658e+16,3035136629635276.0,6669656787132072.0,3233205233868.179,17701029962007.46,993280257938619.6,1.5304628426831818e+16
1.2168715419732616,2941594226769767.0,3.1378850697506376e+16,3068426277273242.5,6742810256185517.0,3669105386940.8555,20087702824947.566,1128099457705004.0,1.7474163671360948e+16
1.3412089728127268,2968074742171684.5,3.385748779999865e+16,3096048553004596.5,6803509779008647.0,4114252936028.0107,22525026310418.098,1265843186932219.8,1.9697372259635068e+16
1.4680331522689813,2990280628913136.0,3.637295576303445e+16,3119211891713459.5,6854410867537997.0,4568533164092.675,25012370967564.137,1406468533778876.5,2.197300293695932e+16
1.597393815314361,3009079017871680.5,3.892831501193603e+16,3138820812095031.0,6897501184042689.0,5031931496701.186,27549655879873.45,1549964428997577.0,2.4300367981552468e+16
1.729341691620648,3025129534611577.5,4.152615546776323e+16,3155563380601567.5,6934292741375697.0,5504502040947.64,30137176401245.062,1696341927882678.2,2.6679186204849516e+16
1.863928525453061,3038940998448624.0,4.4168729663623064e+16,3169970355178553.0,6965951870118465.0,5986346631642.566,32775489409969.94,1845627669334986.0,2.910947693450082e+16
2.001207095962122,3050910757829572.0,4.685804517049826e+16,3182456216651881.0,6993389384206353.0,6477600762578.35,35465336256630.95,1997859437314327.0,3.1591486437476916e+16
2.1412312378813647,3061352552856225.5,4.959593017972033e+16,3193348232589235.5,7017324448163820.0,6978424072595.66,38207590650875.12,2153083125289292.0,3.4125635806098264e+16
2.284055862638992,3070516599944910.0,5.238408093597729e+16,3202907407941924.0,7038330615709022.0,7488993875016.346,41003223213220.76,2311350646078924.5,3.6712483449214296e+16
2.4297369798917723,3078604290994769.0,5.5224096634543976e+16,3211343817991619.0,7056869523591338.0,8009500740021.158,43853277269703.19,2472718484999401.0,3.9352697738957096e+16
2.578331719489608,3085779096063632.5,5.811750549694129e+16,3218827981112882.0,7073315883006944.0,8540145473931.874,46758852297474.34,2637246694808584.5,4.204703684417783e+16
2.7298983538794,3092174747648624.5,6.1065784535527464e+16,3225499395932521.5,7087976239835652.0,9081137056344.023,49721092617284.43,2804998196623475.5,4.479633372581357e+16
2.884496320956988,3097901451489203.0,6.407037473625053e+16,3231473019921762.5,7101103211219006.0,9632691238485.707,52741179708508.53,2976038294356499.5,4.760148488831708e+16
3.0421862473761276,3103050646859555.5,6.713269287085711e+16,3236844234936673.5,7112906397238335.0,10195029600693.812,55820327039846.53,3150434339170947.5,5.046344189601103e+16
3.2030299723236504,3107698688718729.5,7.025414079995912e+16,3241692688130477.5,7123560821245477.0,10768378930250.18,58959776655695.664,3328255499985533.0,5.338320494629297e+16
3.3670905717701234,3111909720238335.0,7.343611288796109e+16,3246085288335234.0,7133213514354513.0,11352970823671.35,62160796992839.305,3509572609356113.0,5.636181798786036e+16
3.5344323832055258,3115737931579653.5,7.668000198314637e+16,3250078562230074.0,7141988693077233.0,11949041446770.605,65424681562139.08,3694458063195845.0,5.940036501005467e+16
3.7051210308696363,3119229349309202.0,7.998720429760158e+16,3253720520910571.0,7149991861074762.0,12556831405892.195,68752748239897.51,3882985759118424.5,6.24999672275428e+16
3.879223451487029,3122423263927113.0,8.335912343668811e+16,3257052148967561.5,7157313081381128.0,13176585697609.527,72146338989651.0,4075231062598140.0,6.5661780955126936e+16
4.0568079205167695,3125353376227890.5,8.679717376620066e+16,3260108600275309.0,7164029604126206.0,13808553713849.938,75606819888124.77,4271270793236434.5,6.888699601873292e+16
4.237944078927105,3128048723628906.5,9.030278326025294e+16,3262920164260344.5,7170207989894422.0,14452989286175.648,79135581366159.92,4471183225611093.5,7.217683458620584e+16
4.422702960505647,3130534433134431.0,9.38773959395757e+16,3265513051330924.5,7175905835692223.0,15110150757712.615,82734038601510.72,4675048100737642.0,7.55325503293212e+16
4.61115701971576,3132832336823216.5,9.752247398500768e+16,3267910034902539.5,7181173185788047.0,15780301074581.555,86403632018839.16,4882946645281705.0,7.895542784911883e+16
4.803380160110075,3134961477651072.0,1.0123949959220816e+17,3270130979009071.0,7186053691128959.0,16463707891071.043,90145827865310.0,5094961596456785.0,8.2446782312206e+16
4.9994477633122765,3136938527232434.5,1.0502997661938544e+17,3272193274097847.0,7190585566992936.0,17160643684489.602,93962118839489.5,5311177231115396.0,8.600795925742269e+16
5.199436718578522,3138778132594725.0,1.088954320689504e+17,3274112198734983.0,7194802387830384.0,17871385876844.164,97854024757890.2,5531679397955937.0,8.964033454119968e+16
5.403425452950093,3140493205315472.5,1.1283741743561829e+17,3275901221209168.5,7198733750033616.0,18596216961357.094,101823093248244.52,5756555552068786.0,9.334531439678163e+16
5.611493962009095,3142095163684453.5,1.1685750994697266e+17,3277572252135151.5,7202405827028872.0,19335424632452.766,105870900461985.83,5985894791263854.0,9.71243355877659e+16
5.823723841249277,3143594136382676.5,1.2095731371743864e+17,3279135856914724.0,7205841836156046.0,20089301918287.637,109999051800844.5,6219787893781667.0,1.009788656404844e+17
6.040198318074262,3144999134489232.0,1.2513846083261795e+17,3280601435159983.5,7209062432948458.0,20858147315213.637,114209182654203.28,6458327357106619.0,1.0491040314294432e+17
6.261002284435747,3146318197306163.5,1.2940261237779605e+17,3281977372805735.5,7212086045397574.0,21642264923791.402,118502959145094.89,6701607437686401.0,1.0892047810053125e+17
6.486222330124463,3147558516447974.5,1.3375145942192862e+17,3283271171549387.5,7214929158395160.0,22441964586129.453,122882078883609.14,6949724191424125.0,1.1301065234064227e+17
6.715946776726952,3148726541813617.0,1.3818672396642262e+17,3284489559392126.5,7217606556645865.0,23257562024439.56,127348271727096.64,7202775514855287.0,1.1718251995996414e+17
6.950265712261491,3149828072397477.5,1.4271015986642264e+17,3285638585365398.0,7220131532827327.0,24089378980777.63,131903300546998.98,7460861186954994.0,1.214377078093497e+17
7.18927102650672,3150868334365651.0,1.4732355373102906e+17,3286723700973614.5,7222516066559249.0,24937743357995.027,136548962002432.1,7724082911545442.0,1.2577787601222464e+17
7.433056447036854,3151852048396751.0,1.520287258078239e+17,3287749830438502.0,7224770978764395.0,25802989361962.37,141287087320864.3,7992544360291121.0,1.3020471851325032e+17
7.681717575977592,3152783487941111.5,1.568275308562375e+17,3288721431470257.5,7226906065212335.0,26685457645153.418,146119543086362.56,8266351216281980.0,1.3471996365460038e+17
7.935351927497144,3153666529771562.0,1.6172185901359286e+17,3289642547997946.0,7228930212393768.0,27585495451692.324,151048232035972.97,8545611218214126.0,1.393253747777278e+17
8.194058966047088,3154504697970260.5,1.6671363665709552e+17,3290516856052903.5,7230851498348630.0,28503456763977.098,156075093864855.34,8830434205183902.0,1.4402275084891093e+17
8.45794014536803,3155301202308554.5,1.718048272645764e+17,3291347703803443.5,7232677280641850.0,29439702450998.652,161202106040819.1,9120932162115946.0,1.488139271072148e+17
8.72709894827539,3156058971823036.0,1.769974322764023e+17,3292138146578595.5,7234414273327535.0,30394600418474.586,166431284628925.44,9417219265848924.0,1.537007757337769e+17
9.0016409272409,3156780684263805.5,1.8229349196065392e+17,3292890977586112.5,7236068614451357.0,31368525760920.03,171764685126814.94,9719411931904600.0,1.5868520654156026e+17
9.281673745785717,3157468791985931.5,1.8769508628340858e+17,3293608754920295.5,7237645925399938.0,32361860915773.953,177204403311420.06,1.002762886196759e+16,1.6376916768490768e+17
9.567307220701432,3158125544767830.0,1.9320433578573994e+17,3294293825364226.5,7239151363205901.0,33374995819698.992,182752576097709.25,1.034199109210353e+16,1.6895464638838106e+17
9.85865336511546,3158753009967390.0,1.988234024688667e+17,3294948345414981.0,7240589666750540.0,34408328067169.754,188411382410091.62,1.066262204174435e+16,1.7424366969451226e+17
10.155826432417769,3159353090366074.0,2.045544906887286e+17,3295574299897106.0,7241965197666692.0,35462263071461.195,194183044067106.03,1.0989647563469106e+16,1.7963830523019104e+17
10.458942961066125,3159927540000072.0,2.1039984806113773e+17,3296173518476378.5,7243281976627496.0,36537214228147.18,200069826679990.1,1.1323195993609066e+16,1.8514066199151667e+17
10.768121820287448,3160477978234811.5,2.163617663785472e+17,3296747690341167.5,7244543715608523.0,37633603081215.375,206074040565723.62,1.1663398203705736e+16,1.907528911470101e+17
11.083484256693197,3161005902302934.0,2.2244258253938678e+17,3297298377281006.0,7245753846627795.0,38751859491902.34,212198041675116.03,1.2010387652850118e+16,1.9647718685915795e+17
11.405153941827061,3161512698495274.5,2.286446794908419e+17,3297827025360109.0,7246915547398149.0,39892421810350.88,218444232536503.7,1.2364300440931596e+16,2.023157871243099e+17
11.733257020663602,3161999652168448.5,2.3497048718588474e+17,3298334975356456.5,7248031764267033.0,41055737050188.695,224815063215601.47,1.2725275362824344e+16,2.0827097463100262e+17
12.067922161076874,3162467956710616.0,2.4142248355531664e+17,3298823472114117.0,7249105232768134.0,42242261066126.26,231313032292055.4,1.3093453963539448e+16,2.143450776368262e+17
12.409280604298411,3162918721588121.0,2.4800319549553126e+17,3299293672936862.5,7250138496066226.0,43452458734669.445,237940687853220.66,1.3468980594370166e+16,2.2054047086398214e+17
12.75746621638438,3163352979579783.0,2.547151998726762e+17,3299746655134374.0,7251133921539875.0,44686804138041.81,244700628505695.44,1.3852002470058242e+16,2.2685957641372026e+17
13.112615540712067,3163771693291703.0,2.6156112454385152e+17,3300183422817941.5,7252093715714919.0,45945780751409.445,251595504405124.22,1.4242669727008664e+16,2.3330486469986166e+17
13.474867851526309,3164175761033743.5,2.6854364939596758e+17,3300604913030332.5,7253019937734769.0,47229881633501.445,258628018304783.8,1.4641135482580462e+16,2.3987885540164995e+17
13.844365208556836,3164566022128600.5,2.7566550740285248e+17,3301012001283767.0,7253914511530075.0,48539609620716.98,265800926623464.12,1.5047555895480946e+16,2.4658411843618483e+17
14.221252512727972,3164943261715669.5,2.8292948570118867e+17,3301405506570935.0,7254779236830348.0,49875477524810.625,273117040533151.28,1.5462090227290994e+16,2.5342327495072285e+17
14.605677562982532,3165308215104314.0,2.903384266858422e+17,3301786195905916.0,7255615799142613.0,51238008334247.13,280579227067013.56,1.5884900905148944e+16,2.6039899833513888e+17
14.997791114242183,3165661571724499.0,2.978952291251344e+17,3302154788445221.5,7256425778807328.0,52627735419315.375,288190410248202.94,1.6316153585620764e+16,2.675140152548692e+17
15.397746936527026,3166003978717220.0,3.0560284929660435e+17,3302511959232990.5,7257210659228422.0,54045202741093.55,295953572239973.5,1.6756017219784376e+16,2.7477110670466035e+17
15.805701875257567,3166336044202053.0,3.134643021437881e+17,3302858342609424.5,7257971834363301.0,55490965064355.78,303871754517626.56,1.7204664119556084e+16,2.821731090834752e+17
16.221815912762718,3166658340254850.5,3.2148266245455635e+17,3303194535316902.0,7258710615548488.0,56965588174511.72,311948059062787.8,1.7662270025287368e+16,2.897229152909116e+17
16.64625223101797,3166971405624934.5,3.2966106606153504e+17,3303521099334300.5,7259428237728042.0,58469649098670.91,320185649580540.44,1.8129014174660516e+16,2.97423475845508e+17
17.079177275638333,3167275748217751.0,3.380027110651301e+17,3303838564466724.5,7260125865144408.0,60003736330924.44,328587752739913.4,1.8605079372911732e+16,3.0527780002531846e+17
17.5207608211511,3167571847366059.5,3.4651085907969197e+17,3304147430714598.5,7260804596544528.0,61568450061936.61,337157659438261.7,1.909065206441083e+16,3.1328895703115603e+17
17.97117603757412,3167860155910254.5,3.551888365033403e+17,3304448170443698.5,7261465469948448.0,63164402412941.08,345898726090055.5,1.958592240562677e+16,3.214600771729082e+17
18.430599558325603,3168141102106161.0,3.64040035811978e+17,3304741230375206.0,7262109467022417.0,64792217674235.55,354814375940610.1,2.0091084339508936e+16,3.2979435307935014e+17
18.899211549492115,3168415091376621.0,3.730679168780287e+17,3305027033412818.5,7262737517093968.0,66452532548271.73,363908100405295.2,2.060633567131388e+16,3.382950409318779e+17
19.37719578048196,3168682507921579.0,3.8227600831443194e+17,3305305980322256.5,7263350500842632.0,68145996397436.63,373183460434767.06,2.11318781459084e+16,3.4696546172260454e+17
19.864739696091597,3168943716199732.0,3.916679088444322e+17,3305578451276791.5,7263949253696167.0,69873271496623.63,382644087906772.2,2.1667917526579536e+16,3.558090025372764e+17
20.36203449001343,3169199062293495.5,4.012472886977113e+17,3305844807281082.5,7264534568959486.0,71635033290692.86,392293687045084.2,2.2214663675383108e+16,3.648291178634581e+17
20.869275179813698,3169448875167881.0,4.110178910334081e+17,3306105391484317.0,7265107200700233.0,73431970656921.23,402136035866131.56,2.2772330635062228e+16,3.740293309244704e+17
21.38666068340997,3169693467832724.0,4.2098353339058675e+17,3306360530392562.5,7265667866412933.0,75264786172544.44,412174987653901.4,2.3341136712568464e+16,3.8341323503955354e+17
21.91439389707817,3169933138416850.5,4.311481091667109e+17,3306610534989239.5,7266217249481216.0,77134196387493.66,422414472463691.44,2.3921304564218324e+16,3.929844950107538e+17
22.452681775019734,3170168171161855.5,4.4151558912469856e+17,3306855701771756.0,7266756001455782.0,79040932102434.02,432858498655309.2,2.4513061282518144e+16,4.027468485370333e+17
23.00173541052013,3170398837342449.5,4.520900229291311e+17,3307096313711533.0,7267284744164103.0,80985738652208.1,443511154456312.3,2.5116638484691668e+16,4.127041076561123e+17
23.561770118730532,3170625396119657.5,4.628755407121997e+17,3307332641143990.0,7267804071666150.0,82969376194796.72,454376609555907.2,2.5732272402944364e+16,4.228601602145747e+17
24.133005521105144,3170848095332577.5,4.738763546699897e+17,3307564942594451.0,7268314552069227.0,84992620005903.66,465459116730123.25,2.6360203976499664e+16,4.332189713667575e+17
24.715665631527248,3171067172233771.5,4.8509676068969664e+17,3307793465545235.5,7268816729213768.0,87056260779277.64,476763013498891.94,2.7000678945442816e+16,4.437845851029831e+17
25.309978944157795,3171282854173053.5,4.965411400083908e+17,3308018447148924.5,7269311124240671.0,89161104932885.27,488292723815674.9,2.7653947946408164e+16,4.5456112580767136e+17
25.91617852304095,3171495359233830.0,5.082139609039456e+17,3308240114892153.5,7269798237049965.0,91307974921048.81,500052759790295.25,2.832026661014727e+16,4.655527998479108e+17
26.53450209350177,3171704896825877.0,5.2011978041876576e+17,3308458687213942.5,7270278547659617.0,93497709552668.58,512047723445626.6,2.8999895661014708e+16,4.767638971930531e+17
27.165192135371807,3171911668238085.0,5.3226324611694874e+17,3308674374082257.5,7270752517472515.0,95731164315646.94,524282308508832.2,2.969310101841027e+16,4.88198793065921e+17
27.808495978079243,3172115867154272.0,5.446490978755349e+17,3308887377532098.5,7271220590458884.0,98009211707635.42,536761302237820.8,3.0400153900215996e+16,4.998619496262284e+17
28.464665897640828,3172317680135080.5,5.572821697105031e+17,3309097892168136.5,7271683194260865.0,100332741573230.19,549489587283634.56,3.1121330928267624e+16,5.117579176868144e+17
29.133959215593645,3172517287068528.5,5.701673916381835e+17,3309306105634734.0,7272140741225330.0,102702661447738.88,562472143589475.6,3.1856914235900804e+16,5.238913384633168e+17
29.816638399905518,3172714861591692.5,5.833097915727735e+17,3309512199055753.5,7272593629370453.0,105119896907648.1,575714050327093.4,3.2607191577613024e+16,5.362669453579079e+17
30.51297116790363,3172910571485688.5,5.967144972606465e+17,3309716347446627.5,7273042243291099.0,107585391927919.84,589220487871273.5,3.3372456440882456e+16,5.4888956577774144e+17
31.223230591261704,3173104579046029.0,6.103867382521565e+17,3309918720100639.0,7273486955007786.0,110100109246250.53,602996739813178.6,3.4153008160187004e+16,5.617641229887556e+17
31.947695203086937,3173297041430168.0,6.243318479116631e+17,3310119480951487.5,7273928124763336.0,112665030734425.31,617048195013304.6,3.4949152033266016e+16,5.7489563800550445e+17
32.686649107148675,3173488110983975.5,6.385552654664983e+17,3310318788913817.0,7274366101771256.0,115281157776905.38,631380349694834.6,3.5761199439668972e+16,5.882892315176886e+17
33.44038208929165,3173677935548683.5,6.530625380956182e+17,3310516798203397.0,7274801224919303.0,117949511656786.77,645998809578174.8,3.658946796163595e+16,6.019501258540755e+17
34.20918973107749,3173866658749732.5,6.678593230586948e+17,3310713658638434.0,7275233823431562.0,120671133949271.16,660909292057494.5,3.743428150735548e+16,6.158836469845129e+17
34.993373525699035,3174054420268868.0,6.829513898664093e+17,3310909515923393.0,7275664217492232.0,123447086922795.0,676117628420071.2,3.82959704366461e+16,6.300952265607363e+17
35.793240996213015,3174241356100647.0,6.983446224927361e+17,3311104511916581.5,7276092718833570.0,126278453947960.58,691629766109301.0,3.9174871689109224e+16,6.445904039967185e+17
36.60910581613728,3174427598794560.5,7.140450216299884e+17,3311298784882675.0,7276519631290863.0,129166339914418.56,707451771032206.9,4.007132891480109e+16,6.593748285892726e+17
37.44128793246003,3174613277683704.5,7.3005870698746e+17,3311492469731286.0,7276945251326634.0,132111871655855.8,723589829912329.5,4.0985692607473144e+16,6.744542616796773e+17
38.29011369110923,3174798519101019.5,7.463919196344553e+17,3311685698242497.5,7277369868526279.0,135116198383238.28,740050252688868.9,4.1918320240430904e+16,6.898345788570824e+17
39.15591596493141,3174983446583935.5,7.630510243885546e+17,3311878599280361.5,7277793766067226.0,138180492126470.25,756839474962989.8,4.2869576405061944e+16,7.055217722044713e+17
40.03903428423004,3175168181068275.5,7.80042512249956e+17,3312071298995132.0,7278217221163348.0,141305948184625.84,773964060492202.8,4.383983295208446e+16,7.215219525879676e+17
40.93981496991464,3175352841072129.5,7.973730028827589e+17,3312263921015086.5,7278640505486453.0,144493785584917.06,791430703733754.0,4.4829469135570504e+16,7.378413519902962e+17
