t(s),Total solute volume 1,Total retention volume 1,Total 1 volume 1,Total 2 volume 1,Total 3 volume 1,Total 4 volume 1,Total 5 volume 1,Total 6 volume 1
0.1,1252217186918146.0,2056959543180943.2,321479351742078.75,483263004520719.3,0.0,0.0,0.0,0.0
0.202,1786501515935402.2,3213671432814394.5,458645166858655.7,689457214750885.4,90545772548.32535,277129331918.9918,8062960004588.838,270636900160393.3
0.30604000000000003,2135086270873742.8,4182371581301563.5,548136675767708.6,823985115157706.9,218587244267.56152,669025641803.2559,19468818770142.895,654807087846187.9
0.41216080000000005,2390025808631521.0,5072142547916055.0,613586824062179.1,922372896554959.0,370707850242.3633,1134624793717.858,33020784335770.07,1111630901687671.9
0.5204040160000001,2587492764376699.0,5922448558122873.0,664282144526119.5,998580518398446.0,540492449659.9781,1654292580986.7446,48147144788058.17,1621751201002895.2
0.6308120963200001,2746016882390436.0,6752217161204461.0,704979743554773.6,1059759089553641.9,724236300169.6915,2216690434995.379,64517773383478.11,2174002745586965.8
0.7434283382464002,2876510412734419.0,7572077692854581.0,738481102561856.4,1110119930176927.9,919591389125.373,2814632266117.087,81923442699151.36,2761308581026989.5
0.8582969050113283,2985977198068850.5,8388647195838526.0,766584304883540.0,1152366004670631.5,1124985335714.7666,3443305925114.6772,100224038564157.52,3378927358390520.0
0.9754628431115548,3079184413883055.0,9206363122601914.0,790513218505268.9,1188337089606622.0,1339327176767.9495,4099372720405.4336,119322344003610.62,4023567356706192.5
1.094972099973786,3159519043676496.5,1.0028377774747778e+16,811137377322935.2,1219340309702800.8,1561842211351.897,4780461938841.017,139149323721733.06,4692889416173609.0
1.2168715419732616,3229467975250389.0,1.085703814136047e+16,829095235359596.5,1246335419424154.0,1791972472320.773,5484866226790.794,159655256097345.44,5385207416529864.0
1.3412089728127268,3290905668760723.5,1.16941623612701e+16,844868019242749.2,1270045821538233.2,2029313536335.3638,6211348189883.152,180804102886381.0,6099298087115798.0
1.4680331522689813,3345275618566575.0,1.2541208175042322e+16,858826314562698.1,1291028597943875.0,2273572759349.787,6959012568142.303,202569787880151.03,6834275270761537.0
1.597393815314361,3393709601509645.0,1.3399380307041046e+16,871260680258650.0,1309720530671790.5,2524540771558.8354,7727218993397.475,224933656954042.97,7589504077881962.0
1.729341691620648,3437108703307634.0,1.4269701520576616e+16,882402450371979.6,1326469372069032.8,2782071501537.3755,8515520851381.429,247882698061158.47,8364540704413896.0
1.863928525453061,3476199928307659.5,1.5153061136984316e+16,892438267361570.9,1341555691969570.2,3046067863590.122,9323621476826.557,271408265825168.38,9159089294179946.0
2.001207095962122,3511576695074869.0,1.6050249070180244e+16,901520478459981.2,1355208505991227.2,3316471306748.8457,10151342167654.408,295505150220098.94,9972970426959676.0
2.1412312378813647,3543728399117778.5,1.6961980265566414e+16,909774725256222.5,1367616684557440.2,3593254057512.027,10998598443743.822,320170885279683.06,1.0806097718854048e+16
2.284055862638992,3573062379580449.0,1.7888912613382858e+16,917305583163268.1,1378937430413041.5,3876413279068.519,11865382171383.268,345405228583182.1,1.1658460196192462e+16
2.4297369798917723,3599920497906580.5,1.8831660321585348e+16,924200817627270.6,1389302676760377.8,4165966617853.9316,12751747933876.467,371209764369677.1,1.2530108850369702e+16
2.578331719489608,3624591824435578.0,1.9790804065051772e+16,930534641133473.2,1398823983345600.0,4461948769968.948,13657802523612.256,397587597537945.4,1.3421146267305598e+16
2.7298983538794,3647322467741802.0,2.076689880461767e+16,936370236673975.5,1407596329855452.8,4764408807741.976,14583696760701.928,424543115389625.44,1.4331718549388338e+16
2.884496320956988,3668323275851449.5,2.176047989457127e+16,941761734866645.1,1415701088016506.8,5073408079971.384,15529619067486.594,452081800500157.7,1.526200896818906e+16
3.0421862473761276,3687775931628305.0,2.2772067914751044e+16,946755778812035.2,1423208373962580.0,5389018550069.411,16495790383350.678,480210082618291.6,1.6212232938796424e+16
3.2030299723236504,3705837822048305.0,2.3802172539797396e+16,951392774173075.1,1430178927414018.2,5711321471965.351,17482460113343.973,508935220670183.06,1.7182634013906512e+16
3.3670905717701234,3722645961165945.0,2.4851295672890492e+16,955707896310856.2,1436665625652180.2,6040406329040.953,18489902881902.91,538265208208784.56,1.8173480672341776e+16
3.5344323832055258,3738320175490379.0,2.591993401157306e+16,959731908060247.2,1442714712838671.5,6376369979737.791,19518415919173.78,568208697285841.2,1.9185063731998972e+16
3.7051210308696363,3752965709217917.5,2.7008581170761692e+16,963491828566341.1,1448366805442134.2,6719315966907.601,20568316948551.258,598774936920698.1,2.0217694257699092e+16
3.879223451487029,3766675369321556.5,2.8117729457401068e+16,967011483989243.0,1453657720083945.0,7069353957909.736,21639942474445.04,629973723225272.1,2.1271701864348692e+16
4.0568079205167695,3779531302831711.0,2.9247871368831316e+16,970311963782016.8,1458619159436943.8,7426599289879.117,22733646391996.332,661815358905705.4,2.234743333819305e+16
4.237944078927105,3791606477983576.0,3.0399500870397916e+16,973412000942867.2,1463279283838621.8,7791172600183.481,23849798857591.617,694310620359910.6,2.3445251515815172e+16
4.422702960505647,3802965925327288.5,3.1573114495483064e+16,976328290643019.1,1467663190267756.8,8163199526345.858,24988785372049.645,727470730969541.4,2.4565534373377052e+16
4.61115701971576,3813667783040854.0,3.27692123018155e+16,979075758587930.9,1471793315757762.0,8542810462972.994,26151006038351.63,761307339475974.1,2.5708674288451684e+16
4.803380160110075,3823764181585278.5,3.3988298710823828e+16,981667788133153.9,1475689778808079.5,8930140365754.602,27336874963508.87,795832502554761.1,2.68750774444133e+16
4.9994477633122765,3833301995800496.0,3.5230883251345428e+16,984116413368505.1,1479370669637506.2,9325328594563.47,28546819780177.047,831058670878252.8,2.8065163353285908e+16
5.199436718578522,3842323487052322.5,3.649748122478565e+16,986432483975242.0,1482852298005374.0,9728518789226.082,29781281268340.316,866998678093267.5,2.927936447760191e+16
5.403425452950093,3850866853732213.0,3.778861430552774e+16,988625806554845.8,1486149405663689.0,10139858772749.879,31040713061108.64,903665732249086.5,3.051812593549405e+16
5.611493962009095,3858966705007541.0,3.9104811087806216e+16,990705266254022.0,1489275349189665.0,10559500477756.227,32325581421622.098,941073409296974.9,3.1781905276158616e+16
5.823723841249277,3866654470012917.0,4.044660758821048e+16,992678931815636.4,1492242257903279.2,10987599892639.436,33636365080415.234,979235648351099.4,3.3071172315154536e+16
6.040198318074262,3873958752508527.5,4.181454771135331e+16,994554146629470.8,1495061170739117.0,11424317024589.336,34973555124483.277,1018166748455741.9,3.4386409020871416e+16
6.261002284435747,3880905639289746.5,4.3209183684933384e+16,996337607909657.0,1497742155269668.2,11869815877113.88,36337654930820.04,1057881366648248.8,3.5728109445008144e+16
6.486222330124463,3887518969224809.0,4.463107646937055e+16,998035435764200.8,1500294411533932.0,12324264440102.115,37729180138434.04,1098394517143079.9,3.709677969112602e+16
6.715946776726952,3893820568652948.5,4.608079614633821e+16,999653233628313.1,1502726362883687.2,12787834690797.854,39148658653856.99,1139721571491795.8,3.849293791633678e+16
6.950265712261491,3899830457941466.5,4.755892228982363e+16,1001196141293416.4,1505045735699212.2,13260702604322.871,40596630685985.58,1181878259597753.5,3.991711436200141e+16
7.18927102650672,3905567033233812.5,4.9066044322781816e+16,1002668881566986.4,1507259629530606.5,13743048172610.934,42073648806771.61,1224880671484111.5,4.1369851409987016e+16
7.433056447036854,3911047226789712.0,5.0602761861979464e+16,1004075801436371.9,1509374578977190.5,14235055430795.988,43580278034840.69,1268745259729936.8,4.2851703661580664e+16
7.681717575977592,3916286648796012.5,5.216968505324091e+16,1005420908475632.4,1511396608416013.0,14736912490249.361,45117095939576.98,1313488842502856.2,4.436323803662061e+16
7.935351927497144,3921299713093518.5,5.3767434898992e+16,1006707903123147.0,1513331280523086.5,15248811577587.344,46684692763602.86,1359128607127776.2,4.590503389078326e+16
8.194058966047088,3926099748903238.5,5.539664357972736e+16,1007940207364885.6,1515183739391461.8,15770949079074.67,48283671561899.74,1405682114140675.5,4.747768314928619e+16
8.45794014536803,3930699100333307.5,5.7057954770810104e+16,1009120990280638.5,1516958748933520.5,16303525589938.604,49914648356089.53,1453167301784315.5,4.908179045553227e+16
8.72709894827539,3935109215193595.5,5.875202395582234e+16,1010253190845220.4,1518660727156854.0,16846745968181.188,51578252302620.67,1501602490909269.5,5.071797333344656e+16
9.0016409272409,3939340724431183.0,6.047951873753311e+16,1011339538321790.9,1520293776820466.0,17400819392540.729,53275125873795.06,1551006390249301.2,5.238686236244399e+16
9.281673745785717,3943403513319036.0,6.22411191474156e+16,1012382570537987.6,1521861712908332.8,17965959424306.07,55005925050734.43,1601398102044863.2,5.4089101364130264e+16
9.567307220701432,3947306785376753.0,6.403751795453495e+16,1013384650296187.6,1523368087298090.5,18542384072731.348,56771319527521.734,1652797127992389.5,5.5825347599971224e+16
9.85865336511546,3951059119872189.5,6.586942097453409e+16,1014347980135786.9,1524816210952391.8,19130315863838.902,58571992925870.0,1705223375500595.5,5.759627197928345e+16
10.155826432417769,3954668523641254.5,6.773754737936387e+16,1015274615636791.8,1526209173917514.2,19729981912428.152,60408643019772.82,1758697164237835.5,5.940255927699827e+16
10.458942961066125,3958142477868284.0,6.964263000833464e+16,1016166477429675.4,1527549863377140.2,20341613997139.54,62281981969674.766,1813239232957112.0,6.124490836073558e+16
10.768121820287448,3961487980387971.5,7.158541568101053e+16,1017025362055453.4,1528840979977749.5,20965448638442.504,64192736565775.1,1868870746587453.0,6.312403242679769e+16
11.083484256693197,3964711583999519.5,7.356666551241419e+16,1017852951802014.6,1530085052615042.0,21601727179441.55,66141648480140.64,1925613303582253.8,6.504065924475575e+16
11.405153941827061,3967819431223475.0,7.558715523096851e+16,1018650823627180.5,1531284451847543.0,22250695869409.188,68129474527360.83,1983488943516807.2,6.699553141035675e+16
11.733257020663602,3970817285879563.0,7.764767549956598e+16,1019420457265614.4,1532441402083258.2,22912605949971.44,70156986933523.32,2042520154928538.5,6.898940660652547e+16
12.067922161076874,3973710561818527.0,7.974903224012096e+16,1020163242605099.1,1533557992668070.0,23587713743884.88,72224973613333.3,2102729883394866.5,7.1023057872277384e+16
12.409280604298411,3976504349101861.0,8.189204696193925e+16,1020880486407610.5,1534636187989175.8,24276280746356.016,74334238455231.2,2164141539844439.5,7.309727387939462e+16
12.75746621638438,3979203437889316.5,8.407755709420622e+16,1021573418441911.4,1535677836693875.8,24978573718864.234,76485601614402.58,2226779009098640.0,7.52128592167492e+16
13.112615540712067,3981812340264182.0,8.630641632288539e+16,1022243197086711.6,1536684680112543.2,25694864785458.277,78679899813594.17,2290666658640919.0,7.737063468218202e+16
13.474867851526309,3984335310200536.5,8.857949493229403e+16,1022890914456829.0,1537658359964488.8,26425431531504.348,80917986651681.1,2355829347612367.5,7.957143758187656e+16
13.844365208556836,3986776361853877.5,9.089768015160888e+16,1023517601098904.0,1538600425416792.0,27170557104870.863,83200732919949.22,2422292436032370.5,8.181612203718213e+16
14.221252512727972,3989139286336624.0,9.326187650654485e+16,1024124230298146.0,1539512339558412.0,27930530319542.137,85529026926074.97,2490081794244102.5,8.410555929886186e+16
14.605677562982532,3991427667122647.5,9.567300617643571e+16,1024711722033107.2,1540395485345189.0,28705645761656.56,87903774825808.08,2559223812584723.0,8.64406380687626e+16
14.997791114242183,3993644894209285.5,9.813200935693683e+16,1025280946611473.6,1541251171065331.8,29496203897972.523,90325900962368.03,2629745411280899.5,8.882226482890955e+16
15.397746936527026,3995794177152092.5,1.0063984462856208e+17,1025832728016445.5,1542080635369878.5,30302511186767.453,92796348213592.88,2701674050570570.0,9.125136417805278e+16
15.805701875257567,3997878557075325.0,1.0319748933125998e+17,1026367846990174.5,1542885051907837.8,31124880191180.766,95316078346876.33,2775037741052179.5,9.372887917569643e+16
16.221815912762718,3999900917750660.5,1.05805939945228e+17,1026887043877976.5,1543665533601770.0,31963629695014.973,97886072381954.39,2849865054263110.0,9.625577169365752e+16
16.64625223101797,4001863995827293.5,1.084662124781588e+17,1027391021254689.2,1544423136595844.5,32819084821011.38,100507330961604.45,2926185133489120.0,9.88330227752093e+16
17.079177275638333,4003770390288193.5,1.1117934285910931e+17,1027880446352353.4,1545158863905243.2,33691577151620.79,103180874730330.84,3004027704807170.5,1.0146163300187438e+17
17.5207608211511,4005622571199756.0,1.1394638733917677e+17,1028355953306509.1,1545873668792898.8,34581444852292.582,105907744721123.7,3083423088363905.5,1.0414262286794024e+17
17.97117603757412,4007422887815853.0,1.1676842289916642e+17,1028818145236709.8,1546568457897035.5,35489032797306.83,108689002750381.84,3164402209892696.5,1.0687703316277656e+17
18.430599558325603,4009173576090905.0,1.196465476644334e+17,1029267596175363.1,1547244094130677.8,36414692698176.89,111525731821097.88,3246996612472003.0,1.0966592536104509e+17
18.899211549492115,4010876765651871.0,1.2258188132707357e+17,1029704852857615.1,1547901399372313.0,37358783234653.555,114419036534415.84,3331238468528368.0,1.1251038202089435e+17
19.37719578048196,4012534486273892.5,1.2557556557564664e+17,1030130436383856.5,1548541156965022.5,38321670188360.01,117370043509669.17,3417160592087170.0,1.1541150719023875e+17
19.864739696091597,4014148673900574.5,1.2862876453260467e+17,1030544843765269.8,1549164114039840.2,39303726579093.36,120379901813024.72,3504796451274829.5,1.1837042682123213e+17
20.36203449001343,4015721176245669.0,1.3174266519960277e+17,1030948549361956.6,1549770983677614.2,40305332803826.47,123449783394852.81,3594180181076015.0,1.2138828919304288e+17
20.869275179813698,4017253758009934.0,1.349184779108697e+17,1031342006222251.8,1550362446922316.0,41326876778447.266,126580883535957.42,3685346596349824.0,1.2446626534305099e+17
21.38666068340997,4018748105743736.0,1.381574367948124e+17,1031725647331079.4,1550939154657648.0,42368754082273.68,129774421302800.0,3778331205108752.0,1.276055495065862e+17
21.91439389707817,4020205832383147.0,1.4146080024403146e+17,1032099886774506.5,1551501729357633.5,43431368105383.75,133031640011862.17,3873170222064821.5,1.308073595653341e+17
22.452681775019734,4021628481485042.5,1.4482985139392355e+17,1032465120827006.0,1552050766721061.0,44515130198802.15,136353807703287.38,3969900582447004.0,1.3407293750454139e+17
23.00173541052013,4023017531184283.0,1.482658986100482e+17,1032821728967385.5,1552586837198668.8,45620459827584.61,139742217623959.62,4068559956094443.0,1.3740354987915198e+17
23.561770118730532,4024374397894235.0,1.5177027598443872e+17,1033170074828803.4,1553110487421250.0,46747784726844.98,143198188720166.44,4169186761829968.0,1.4080048828901773e+17
24.133005521105144,4025700439769897.0,1.5534434384103277e+17,1033510507087856.2,1553622241536188.0,47897541060768.2,146723066140015.03,4271820182118776.0,1.4426506986331933e+17
24.715665631527248,4026996959951386.5,1.5898948925040506e+17,1033843360297275.0,1554122602459189.2,49070173584655.22,150318221745755.62,4376500178016860.0,1.477986377543499e+17
25.309978944157795,4028265209604095.0,1.6270712655398474e+17,1034168955666415.0,1554612053047554.5,50266135810047.83,153985054636192.8,4483267504414344.5,1.5140256164080608e+17
25.91617852304095,4029506390770223.5,1.664986978979383e+17,1034487601793327.4,1555091057200665.5,51485890172979.66,157724991679341.97,4592163725578718.0,1.5507823824074266e+17
26.53450209350177,4030721659045549.0,1.7036567377690214e+17,1034799595351957.9,1555560060893030.2,52729908205402.92,161539488055524.4,4703231231003164.0,1.5882709183434752e+17
27.165192135371807,4031912126093879.5,1.7430955358775472e+17,1035105221737680.0,1556019493144659.5,53998670709840.98,165430027811066.94,4816513251565303.0,1.6265057479669222e+17
27.808495978079243,4033078862010727.0,1.783318661936098e+17,1035404755674117.9,1556469766933271.5,55292667937316.89,169398124422802.06,4932053876001862.0,1.6655016814062938e+17
28.464665897640828,4034222897546885.5,1.8243417049822608e+17,1035698461784002.0,1556911280052446.2,56612399768610.055,173445321373549.44,5049898067704689.0,1.7052738206999587e+17
29.133959215593645,4035345226201691.0,1.8661805603102355e+17,1035986595126558.6,1557344415919443.8,57958375898893.55,177573192738777.62,5170091681843901.0,1.7458375654329443e+17
29.816638399905518,4036446806194889.5,1.9088514354289523e+17,1036269401703755.9,1557769544336209.8,59331116025805.56,181783343784636.16,5292681482823933.0,1.787208618480258e+17
30.51297116790363,4037528562325585.0,1.9523708561301728e+17,1036547118937540.0,1558187022206804.2,60731150041008.78,186077411577565.78,5417715162078387.0,1.8294029918585046e+17
31.223230591261704,4038591387725825.0,1.9967556726684973e+17,1036819976120039.0,1558597194214146.0,62159018225293.52,190457065605685.56,5545241356209637.0,1.8724370126874886e+17
31.947695203086937,4039636145516032.5,2.0420230660552723e+17,1037088194838542.2,1559000393458873.5,63615271447280.63,194924008412165.22,5675309665479452.0,1.916327329263749e+17
32.686649107148675,4040663670368738.0,2.0881905544684646e+17,1037351989376974.6,1559396942062856.0,65100471365779.7,199479976240802.1,5807970672656825.0,1.961090917247746e+17
33.44038208929165,4041674769986828.5,2.1352759997804896e+17,1037611567095385.1,1559787151739661.2,66615190635862.3,204126739694007.5,5943275962229330.0,2.006745085966677e+17
34.20918973107749,4042670226501753.0,2.183297614206049e+17,1037867128788927.5,1560171324334187.0,68160013118705.8,208866104403431.12,6081278139984666.0,2.053307484834735e+17
34.993373525699035,4043650797797153.0,2.232273967072165e+17,1038118869027649.4,1560549752333458.2,69735534095269.34,213699911713445.38,6222030852968664.0,2.1007961098928067e+17
35.793240996213015,4044617218762524.5,2.2822239917123363e+17,1038366976478362.4,1560922719350471.0,71342360483860.2,218630039377714.78,6365588809826936.0,2.1492293104695405e+17
36.60910581613728,4045570202481540.5,2.333166992487145e+17,1038611634209701.4,1561290500582775.0,72981111061651.12,223658402269082.72,6512007801536583.0,2.1986257959657293e+17
37.44128793246003,4046510441359152.0,2.3851226519333053e+17,1038853019981500.2,1561653363247470.2,74652416690210.69,228786953103015.03,6661344722535118.0,2.249004642764144e+17
38.29011369110923,4047438608191388.5,2.4381110380434387e+17,1039091306519427.0,1562011566994063.8,76356920545106.69,234017683174834.84,6813657592253741.0,2.3003853012666566e+17
39.15591596493141,4048355357181422.0,2.492152611678712e+17,1039326661775842.2,1562365364296586.0,78095278349647.36,239352623110993.16,6969005577061927.0,2.352787603060945e+17
40.03903428423004,4049261324905291.0,2.5472682341165725e+17,1039559249177720.8,1562715000826308.2,79868158612822.31,244793843634626.72,7127449012630837.0,2.4062317682186973e+17
40.93981496991464,4050157131230373.5,2.6034791747358742e+17,1039789227862457.5,1563060715806179.0,81676242871505.12,250343456345647.16,7289049426722995.0,2.460738412727486e+17
41.85861126931294,4051043380189544.5,2.6608071188415738e+17,1040016752902285.5,1563402742348219.0,83520225936985.2,256003614515623.72,7453869562415589.0,2.516328556058493e+17
42.7957834946992,4051920660813802.0,2.7192741756313824e+17,1040241975518028.6,1563741307774813.0,85400816145892.75,261776513897714.16,7621973401765229.0,2.573023628872227e+17
