t(s),Total solute volume 1,Total retention volume 1,Total 1 volume 1,Total 2 volume 1,Total 3 volume 1,Total 4 volume 1,Total 5 volume 1,Total 6 volume 1
0.1,1405356901042544.8,1.6627283363228424e+16,3932847546865173.5,1.1289078915320706e+16,0.0,0.0,0.0,0.355950925957304
0.202,1949693352032679.8,2.3094017808315136e+16,5456171971658945.0,1.5662097671567464e+16,47588662198.72797,373788339014.9466,5697066055955.766,19936369998878.023
0.30604000000000003,2394133137018092.5,2.8398809866164772e+16,6699929100506620.0,1.9232400723058716e+16,118061352136.25754,931676202843.3838,15581535665199.73,55715632361161.664
0.41216080000000005,2777982729235979.5,3.3004054746639748e+16,7774124992931308.0,2.2315950042759824e+16,207559500347.05707,1640979621990.793,28914005932167.94,105234436658122.4
0.5204040160000001,3121078820682494.5,3.714299138816673e+16,8734272737376626.0,2.5072110991913036e+16,314065298916.0341,2485471199392.122,45303553970779.1,167425747725460.28
0.6308120963200001,3434846675096774.5,4.094996527243589e+16,9612345862934160.0,2.7592669078663532e+16,436419816313.97394,3455875634328.191,64519522549436.94,241691837741328.78
0.7434283382464002,3726404515335236.5,4.4508677498682216e+16,1.0428264635145558e+16,2.9934807972577256e+16,573920052704.1447,4546571506292.476,86412736014838.53,327667148050343.5
0.8582969050113283,4000482838510373.0,4.787477619092368e+16,1.119526728342611e+16,3.2136529396944636e+16,726132781978.7466,5754092524075.771,110882935536534.36,425133511199950.3
0.9754628431115548,4260393459597534.5,5.10872502280137e+16,1.192262187002013e+16,3.422443816955362e+16,892799112002.1025,7076362971771.52,137862198159500.19,533965368599119.1
1.094972099973786,4508553831199550.0,5.417458935662939e+16,1.2617093595707986e+16,3.621795435880974e+16,1073780864958.9536,8512269127976.448,167304821052601.34,654096699866577.0
1.2168715419732616,4746788632535417.0,5.715833110714144e+16,1.328378879362394e+16,3.813173608715459e+16,1269028035591.9912,10061399436995.02,199181270891834.94,785505895463054.9
1.3412089728127268,4976513318373019.0,6.005521732583435e+16,1.392666858870905e+16,3.997715405277888e+16,1478557917205.777,11723877979367.084,233474399865363.44,928204530211449.8
1.4680331522689813,5198851188328257.0,6.2878567108384104e+16,1.4548876514539444e+16,4.176323198913574e+16,1702441123515.246,13500253039511.38,270176817790233.72,1082227904427394.9
1.597393815314361,5414710845488119.0,6.563918576851815e+16,1.515295528013175e+16,4.3497268915358104e+16,1940791838089.6565,15391419409557.588,309289027539194.6,1247629488753331.5
1.729341691620648,5624839198561632.0,6.83459872351545e+16,1.574099509563021e+16,4.518526491865175e+16,2193760806616.0425,17398562571602.145,350818124062870.0,1424477574869820.0
1.863928525453061,5829858874659137.0,7.100643271939693e+16,1.631473837135991e+16,4.683222170193336e+16,2461530212588.883,19523117906142.793,394776863654640.1,1612852259671158.8
2.001207095962122,6030295268631659.0,7.362684763684518e+16,1.6875655414948484e+16,4.844235987860336e+16,2744309859877.068,21766740318534.2,441182971242965.94,1812843053240296.2
2.1412312378813647,6226596475121507.0,7.621265553356208e+16,1.7425000210825458e+16,5.00192790919314e+16,3042334267491.7153,24131281128830.855,490058624587374.2,2024547515700020.8
2.284055862638992,6419148262236053.0,7.876855404022442e+16,1.7963852323784378e+16,5.156607830235715e+16,3355860431729.248,26618770276685.69,541430077479808.9,2248070443658626.5
2.4297369798917723,6608285527314812.0,8.129864945998808e+16,1.8493148957741864e+16,5.308544781447767e+16,3685166094468.3726,29231402559123.133,595327382363376.6,2483523209436723.0
2.578331719489608,6794301180373203.0,8.380656126380064e+16,1.9013709815893572e+16,5.457974063986347e+16,4030548389468.51,31971526876420.203,651784180266004.0,2731023372138543.0
2.7298983538794,6977453108275786.0,8.629550430957742e+16,1.9526256589824116e+16,5.605102844185665e+16,4392322769113.7686,34841637705821.92,710837541049809.8,2990694668096097.5
2.884496320956988,7157969701293554.0,8.87683543140096e+16,2.003142842547381e+16,5.750114593163154e+16,4770822148941.897,37844368305327.78,772527843790716.5,3262667221365708.0
3.0421862473761276,7336054291751417.0,9.122770055906197e+16,2.052979434460947e+16,5.893172652480952e+16,5166396226363.642,40982485301824.79,836898685102689.6,3547077831260639.5
3.2030299723236504,7511888749235241.0,9.367588874617189e+16,2.1021863305942176e+16,6.0344231222510536e+16,5579410934143.455,44258884348167.1,903996803367631.9,3844070369833939.5
3.3670905717701234,7685636412138283.0,9.611505615840242e+16,2.1508092409002612e+16,6.173997216105501e+16,6010247996007.107,47676586587767.41,973872012395874.8,4153796329226802.5
3.5344323832055258,7857444499081334.0,9.85471607531866e+16,2.198889364245253e+16,6.312013198336964e+16,6459304564302.067,51238735767635.92,1046577142248653.8,4476415445702463.0
3.7051210308696363,8027446111939225.0,1.0097400541951691e+17,2.2464639489514468e+16,6.448577992967722e+16,6926992926919.291,54948595899457.17,1122167983978709.9,4812096315580844.0
3.879223451487029,8195761910947228.0,1.0339725834848648e+17,2.2935667615723056e+16,6.5837885293934344e+16,7413740269975.36,58809549361088.38,1200703233477714.8,5161017004773078.0
4.0568079205167695,8362501522106300.0,1.0581847025434776e+17,2.3402284807519864e+16,6.71773287297663e+16,7919988483253.608,62825095334257.055,1282244432008675.5,5523365679129124.0
4.237944078927105,8527764728536589.0,1.0823908902400378e+17,2.3864770306231644e+16,6.850491182081527e+16,8446194001559.25,66998848524709.83,1366855904813245.0,5899341221080775.0
4.422702960505647,8691642489698359.0,1.1066047225191586e+17,2.432337866033896e+16,6.982136526831695e+16,8992827680239.336,71334538152676.5,1454604699560672.5,6289153768167971.0
4.61115701971576,8854217820342268.0,1.1308389802477502e+17,2.477834218520057e+16,7.1127355951861144e+16,9560374701710.541,75836007189326.47,1545560523983075.8,6693025161496910.0
4.803380160110075,9015566550972194.0,1.1551057424867726e+17,2.522987309119299e+16,7.242349303832274e+16,10149334506820.59,80507211789646.44,1639795681676535.0,7111189340216398.0
4.9994477633122765,9175757988983058.0,1.1794164675567451e+17,2.5678165333891148e+16,7.371033329289907e+16,10760220747189.275,85352220891256.56,1737385008103814.5,7543892690158965.0
5.199436718578522,9334855500011916.0,1.2037820638261707e+17,2.6123396240967796e+16,7.498838574921056e+16,11393561260085.168,90375215993250.5,1838405811044739.0,7991394304128700.0
5.403425452950093,9492917025128544.0,1.228212951803882e+17,2.65657279595411e+16,7.625811586399602e+16,12049898068026.826,95580491134067.28,1942937817699911.0,8453966124820594.0
5.611493962009095,9649995542097990.0,1.2527191188386592e+17,2.7005308747009184e+16,7.751994922253318e+16,12729787400132.012,100972453044476.3,2051063127146549.5,8931893004634373.0
5.823723841249277,9806139475258398.0,1.2773101675066414e+17,2.744227411808549e+16,7.877427483127768e+16,13433799729228.35,106555621426875.11,2162866167035466.8,9425472737850992.0
6.040198318074262,9961393061122252.0,1.3019953585870278e+17,2.787674786792697e+16,8.002144805482101e+16,14162519823127.08,112334629348440.78,2278433657228261.0,9935016068432746.0
6.261002284435747,1.011579667955008e+16,1.3267836493801616e+17,2.830884299891804e+16,8.126179327629158e+16,14916546814427.0,118314223784843.4,2397854584767980.0,1.0460846627889222e+16
6.486222330124463,1.0269387157094692e+16,1.3516837280025323e+17,2.8738662569574064e+16,8.249560633420064e+16,15696494291538.389,124499266337086.14,2521220190674682.0,1.1003300788080548e+16
6.715946776726952,1.0422198042455962e+16,1.3767040441950066e+17,2.9166300465397056e+16,8.372315673524872e+16,16502990405250.318,130894734074748.84,2648623963861143.0,1.1562727488057792e+16
6.950265712261491,1.0574259852023072e+16,1.401852837099531e+17,2.959184208602181e+16,8.49446896268366e+16,17336677981355.621,137505720427592.81,2780161638013132.5,1.2139488108649572e+16
7.18927102650672,1.0725600288722266e+16,1.4271381603922989e+17,3.001536495765741e+16,8.616042755512942e+16,18198214637228.773,144337436108671.0,2915931193638265.0,1.2733956393336634e+16
7.433056447036854,1.0876244442697642e+16,1.452567905105322e+17,3.0436939294689388e+16,8.737057207718523e+16,19088272910384.875,151395210135718.84,3056032871400530.0,1.3346518341513392e+16
7.681717575977592,1.1026214979774862e+16,1.4781498204214592e+17,3.085662852709256e+16,8.857530527494526e+16,20007540405785.55,158684491006773.72,3200569197842452.5,1.3977572031078222e+16
7.935351927497144,1.1175532315101544e+16,1.5038915326885664e+17,3.1274489786361136e+16,8.977479115014608e+16,20956719955081.652,166210847973584.2,3349645015384614.0,1.4627527433934598e+16
8.194058966047088,1.1324214765183632e+16,1.5298005628652147e+17,3.1690574330980188e+16,9.096917684567454e+16,21936529771371.426,173979972277211.6,3503367506866049.5,1.5296806335768592e+16
8.45794014536803,1.1472278677896064e+16,1.555884342582274e+17,3.210492791025835e+16,9.215859368997829e+16,22947703592032.0,181997678284892.84,3661846215152590.5,1.5985842383065152e+16
8.72709894827539,1.161973855025832e+16,1.582150228980737e+17,3.251759109392045e+16,9.33431581431884e+16,23990990822488.496,190269904635081.56,3825193069805090.0,1.6695081145443822e+16
9.0016409272409,1.1766607145081978e+16,1.6086055184658224e+17,3.29285995985442e+16,9.452297273418768e+16,25067156701099.684,198802715557452.88,3993522430479666.5,1.7424980066030142e+16
9.281673745785717,1.191289560648412e+16,1.635257459499922e+17,3.3337984610822824e+16,9.569812698857328e+16,26176982486519.758,207602302378548.0,4166951139955427.0,1.817600831929149e+16
9.567307220701432,1.205861356223107e+16,1.6621132645420483e+17,3.3745773073972744e+16,9.686869825082002e+16,27321265641671.984,216674984998907.44,4345598566424603.5,1.89486467501159e+16
9.85865336511546,1.2203769202645524e+16,1.6891801212285398e+17,3.4151987908553476e+16,9.803475231815694e+16,28500819985962.45,226027213107718.56,4529586623192021.0,1.9743388037212276e+16
10.155826432417769,1.23483693418745e+16,1.7164652028786445e+17,3.455664818392457e+16,9.919634393273798e+16,29716475819839.766,235665567170082.3,4719039779825731.0,2.0560737006511652e+16
10.458942961066125,1.2492419481018024e+16,1.743975678399038e+17,3.4959769294909972e+16,1.0035351728876544e+17,30969080062362.715,245596759523647.2,4914085094789285.0,2.140121084083511e+16
10.768121820287448,1.2635923887002104e+16,1.771718721652952e+17,3.5361363182523012e+16,1.0150630666610853e+17,32259496438988.48,255827635891497.84,5114852283114668.0,2.2265339014216468e+16
11.083484256693197,1.277888567866651e+16,1.7997015203523914e+17,3.576143857488245e+16,1.0265473712188835e+17,33588605706314.625,266365177200142.38,5321473794397927.0,2.315366308249745e+16
11.405153941827061,1.2921306894759618e+16,1.8279312845255466e+17,3.6160001177494824e+16,1.0379882503670362e+17,34957305850518.074,277216501179123.5,5534084855959925.0,2.406673668060691e+16
11.733257020663602,1.306318852766758e+16,1.856415254605974e+17,3.655705376764467e+16,1.049385783855699e+17,36366512206192.336,288388863303073.56,5752823462820526.0,2.5005125941385464e+16
12.067922161076874,1.3204530536758324e+16,1.885160709185239e+17,3.695259623173603e+16,1.0607399684508568e+17,37817157517414.89,299889657259087.25,5977830352621024.0,2.5969410137546296e+16
12.409280604298411,1.3345331877053612e+16,1.9141749724664973e+17,3.734662564553057e+16,1.0720507202375152e+17,39310192034893.97,311726415716235.2,6209249033391568.0,2.696018205917136e+16
12.75746621638438,1.3485590566883394e+16,1.9434654214528067e+17,3.773913646347768e+16,1.0833178800547408e+17,40846583729370.45,323906812058094.6,6447225893700663.0,2.7978047819957372e+16
13.112615540712067,1.36253037782647e+16,1.9730394929006013e+17,3.81301207716396e+16,1.0945412207563979e+17,42427318593783.6,336438662847566.5,6691910341782125.0,2.9023626341292624e+16
13.474867851526309,1.3764467902801332e+16,2.00290469006587e+17,3.851956847211126e+16,1.1057204525052064e+17,44053400898109.33,349329929897341.6,6943454871606456.0,3.0097549178751828e+16
13.844365208556836,1.3903078558198036e+16,2.033068589267894e+17,3.890746730124895e+16,1.1168552232957483e+17,45725853269063.23,362588720892045.8,7202015001993242.0,3.1200461161613016e+16
14.221252512727972,1.4041130551869176e+16,2.0635388462931504e+17,3.929380272782758e+16,1.1279451160304843e+17,47445716614467.19,376223288730991.5,7467749154841875.0,3.2333021586382484e+16
14.605677562982532,1.4178617863764034e+16,2.0943232026600125e+17,3.9678557904976424e+16,1.1389896471396946e+17,49214050079951.69,390242031146140.75,7740818623097130.0,3.349590507896819e+16
14.997791114242183,1.4315533703276016e+16,2.1254294917630973e+17,4.0061713829439064e+16,1.1499882711533702e+17,51031931244187.6,404653492296989.8,8021387730409185.0,3.4689801374307256e+16
15.397746936527026,1.4451870631991456e+16,2.1568656449145136e+17,4.044324968508679e+16,1.160940390562653e+17,52900456570420.79,419466366481740.0,8309624117239234.0,3.591541417781633e+16
15.805701875257567,1.4587620676407934e+16,2.188639697297724e+17,4.082314315836071e+16,1.1718453648753478e+17,54820741875029.96,434689501980710.1,8605698941079944.0,3.717346022253324e+16
16.221815912762718,1.4722775347208858e+16,2.220759793848341e+17,4.12013704922107e+16,1.1827025121641245e+17,56793922487905.36,450331902345650.75,8909786804007728.0,3.846466970016082e+16
16.64625223101797,1.4857325552390098e+16,2.2532341950750077e+17,4.157790624297831e+16,1.1935111020867886e+17,58821152991648.17,466402724210961.5,9222065437609210.0,3.978978818864162e+16
17.079177275638333,1.4991261487904052e+16,2.2860712828326403e+17,4.195272297436201e+16,1.2042703471003861e+17,60903606803026.46,482911273815120.8,9542715419900878.0,4.114957881044038e+16
17.5207608211511,1.5124572626407508e+16,2.3192795660594906e+17,4.2325791225927624e+16,1.2149794015570832e+17,63042476078844.98,499867006219045.9,9871920242703938.0,4.254482287290372e+16
17.97117603757412,1.525724785800113e+16,2.3528676864886032e+17,4.269707990696879e+16,1.2256373730110774e+17,65238972245221.48,517279529680913.56,1.0209866800870794e+16,4.397631827998566e+16
18.430599558325603,1.538927570944422e+16,2.3868444243433997e+17,4.306655690998114e+16,1.2362433398301434e+17,67494326942729.57,535158613454506.75,1.0556745999307834e+16,4.544487689219522e+16
18.899211549492115,1.552064448412363e+16,2.4212187040261232e+17,4.343418950236551e+16,1.2467963624404187e+17,69809792743892.44,553514193683554.1,1.0912752987271044e+16,4.695132319838277e+16
19.37719578048196,1.5651342205298246e+16,2.45599959980723e+17,4.379994416759562e+16,1.2572954787662501e+17,72186643046249.73,572356372469662.0,1.1278086745121756e+16,4.849649597056653e+16
19.864739696091597,1.578135639433014e+16,2.4911963415234675e+17,4.4163785984594e+16,1.2677396864129323e+17,74626171136474.05,591695410100736.8,1.1652949262144714e+16,5.008125228874746e+16
20.36203449001343,1.5910673862210222e+16,2.5268183202921187e+17,4.452567804431423e+16,1.2781279259176864e+17,77129689150356.0,611541716450929.2,1.2037544963945822e+16,5.1706471161371704e+16
20.869275179813698,1.6039280711843618e+16,2.5628750942486835e+17,4.4885581456136136e+16,1.288459080933262e+17,79698527910818.45,631905849667283.0,1.243208098576737e+16,5.337305380021694e+16
21.38666068340997,1.6167162605633754e+16,2.599376394314535e+17,4.524345609670274e+16,1.2987319997256614e+17,82334038093094.39,652798525826775.0,1.2836768296598814e+16,5.50819198960321e+16
21.91439389707817,1.6294305143336066e+16,2.6363321300002752e+17,4.559926166734739e+16,1.3089455255307629e+17,85037592140031.92,674230634758330.1,1.3251822956106166e+16,5.683400245326324e+16
22.452681775019734,1.642069408111224e+16,2.673752395249758e+17,4.595295830711754e+16,1.3190985141527202e+17,87810585598706.8,696213251031640.4,1.3677466516398158e+16,5.863024536844552e+16
23.00173541052013,1.6546315208727334e+16,2.7116474743294886e+17,4.630450624910773e+16,1.3291898240974109e+17,90654436747256.2,718757630786684.1,1.4113925076110298e+16,6.04716064217286e+16
23.561770118730532,1.667115394497529e+16,2.7500278477684675e+17,4.665386468825153e+16,1.3392182840684195e+17,93570584540607.12,741875194690489.1,1.4561427492610766e+16,6.235906446493624e+16
24.133005521105144,1.6795194940196362e+16,2.78890419835389e+17,4.700099066896212e+16,1.3491826610330978e+17,96560486261672.22,765577508523306.6,1.5020204042177704e+16,6.429362608595803e+16
24.715665631527248,1.691842200989422e+16,2.8282874171880765e+17,4.73458388993593e+16,1.3590816548894891e+17,99625616772101.55,789876277048290.1,1.5490486720579278e+16,6.627632670620556e+16
25.309978944157795,1.70408185154451e+16,2.8681886098110323e+17,4.7688362816688856e+16,1.3689139290527182e+17,102767470368320.58,814783359425674.5,1.5972511319691856e+16,6.830822459421161e+16
25.91617852304095,1.7162367987258566e+16,2.908619102391746e+17,4.80285163312443e+16,1.3786781605197096e+17,105987564425290.12,840310799342192.2,1.6466520063144872e+16,7.039039144178834e+16
26.53450209350177,1.728305458044357e+16,2.94959044799041e+17,4.836625510155129e+16,1.388373076476941e+17,109287442504130.02,866470850607259.4,1.6972762931355926e+16,7.252390624488472e+16
27.165192135371807,1.740286302600899e+16,2.9911144328939757e+17,4.870153639779887e+16,1.3979974503790909e+17,112668674599218.73,893275979030203.1,1.7491496460909566e+16,7.470985771314194e+16
27.808495978079243,1.7521778065365528e+16,3.0332030830286515e+17,4.903431751928408e+16,1.4075500565161224e+17,116132853928782.45,920738835737653.4,1.802298047359552e+16,7.694935490334128e+16
28.464665897640828,1.7639783722725024e+16,3.075868670454281e+17,4.936455375821286e+16,1.4170296115574522e+17,119681592108153.47,948872217223918.1,1.856747479174859e+16,7.924353980766443e+16
29.133959215593645,1.775686292279622e+16,3.119123719945767e+17,4.9692197329817864e+16,1.4264347438377746e+17,123316516016279.75,977689039529396.5,1.912523834793735e+16,8.15935934547023e+16
29.816638399905518,1.78729977742945e+16,3.162981015665011e+17,5.001719816576531e+16,1.435764016134738e+17,127039268982260.55,1007202348197972.4,1.969653176655169e+16,8.400073062923552e+16
30.51297116790363,1.7988170415015798e+16,3.207453607924448e+17,5.033950627910486e+16,1.445015993562553e+17,130851516280362.56,1037425363793488.1,2.0281622204005828e+16,8.646618565798909e+16
31.223230591261704,1.810236392474376e+16,3.252554820041336e+17,5.065907431904813e+16,1.4541893169147338e+17,134754951937328.92,1068371538098966.0,2.088078747693698e+16,8.899119810189499e+16
31.947695203086937,1.821556272349823e+16,3.298298255282276e+17,5.097585868546845e+16,1.463282734658512e+17,138751302548539.83,1100054585408413.1,2.1494316572179244e+16,9.157700819327362e+16
32.686649107148675,1.832775216203336e+16,3.3446978039001517e+17,5.128981838290104e+16,1.4722950700342323e+17,142842325244414.25,1132488465380413.8,2.212250568427119e+16,9.422486636676171e+16
33.44038208929165,1.8438917511696816e+16,3.391767650268932e+17,5.1600912193649656e+16,1.4812251398996576e+17,147029800472707.2,1165687323120532.2,2.2765651804452788e+16,9.693605240353486e+16
34.20918973107749,1.854904296138601e+16,3.4395222801232915e+17,5.1909095870757496e+16,1.490071674145194e+17,151315523760079.12,1199665421037658.8,2.3424047768460532e+16,9.971189305240795e+16
34.993373525699035,1.8658111269599676e+16,3.4879764879081e+17,5.221432116427227e+16,1.498833287740246e+17,155701301801287.3,1234437106690649.0,2.4097982214414976e+16,1.0255376696000643e+17
35.793240996213015,1.876610435483963e+16,3.537145384237967e+17,5.251653747349432e+16,1.507508528166984e+17,160188956094643.38,1270016843093605.2,2.478774515761654e+16,1.0546309282195963e+17
36.60910581613728,1.887300454699354e+16,3.587044403462438e+17,5.281569534898698e+16,1.5160959759570285e+17,164780332948433.34,1306419291553631.8,2.5493636400247916e+16,1.084413068298104e+17
37.44128793246003,1.897879580518629e+16,3.63768931133087e+17,5.311174990074462e+16,1.5245943425333296e+17,169477314611745.47,1343659403511206.0,2.621597191699775e+16,1.114898425387022e+17
