t(s),Total solute volume 1,Total retention volume 1,Total 1 volume 1,Total 2 volume 1,Total 3 volume 1,Total 4 volume 1,Total 5 volume 1,Total 6 volume 1
0.1,1198922522623410.5,1797285705327306.5,247551059597552.8,350812123106343.5,0.0,0.0,0.0,0.0
0.202,1487061221396285.2,3107302481881425.0,307045351979327.9,435123320761070.2,384172028025.07446,1073877135406.9832,27302939713714.59,849311598867592.2
0.30604000000000003,1617003368045255.5,4354937376773637.5,333875540976141.94,473145203858929.4,843796142058.6974,2358735088613.2993,59976983475185.99,1867733749187455.8
0.41216080000000005,1690288636425850.2,5593293314075229.0,349007333434314.8,494588930436285.2,1336263593914.6448,3735476192603.0864,94988925850107.97,2959347748142154.5
0.5204040160000001,1736992825470706.5,6839009367893889.0,358650718957096.9,508254867476772.2,1849247920812.834,5169650206034.594,131462080109650.48,4096629977752815.5
0.6308120963200001,1769183015098169.2,8099336566352549.0,365297283547751.1,517673917825499.2,2378048592619.567,6648123068369.059,169062239708917.8,5269093938511224.0
0.7434283382464002,1792620751670101.2,9378149300609314.0,370136659520970.06,524531945850936.9,2920600676790.2095,8165127944583.222,207642661275991.06,6472131553669942.0
0.8582969050113283,1810394155961628.2,1.0677845446417256e+16,373806475741030.94,529732554932554.1,3475937428802.4727,9717967890323.7,247134715296146.28,7703583639166775.0
0.9754628431115548,1824302176734957.8,1.2000089094586308e+16,376678175470753.8,533802128687780.7,4043612113771.9272,11305399744716.465,287506764854126.5,8962450836980219.0
1.094972099973786,1835461096520763.2,1.3346145551277088e+16,378982246445269.44,537067298342298.44,4623448833684.389,12926937654321.207,328746444054053.25,1.0248338079426696e+16
1.2168715419732616,1844598875460630.0,1.4717049004164288e+16,380868996386752.25,539741069571633.7,5215423831381.236,14582521304402.244,370852216129602.4,1.1561189901479876e+16
1.3412089728127268,1852209697167359.0,1.6113693391017738e+16,382440463317639.94,541968043582401.5,5819604415990.607,16272345213737.893,413829029719820.56,1.2901154207600786e+16
1.4680331522689813,1858640365162994.8,1.7536884861353244e+16,383768254520506.44,543849697248203.9,6436115552015.734,17996765355399.125,457685942695146.4,1.4268507720818976e+16
1.597393815314361,1864141142378758.8,1.8987373673176176e+16,384904043774062.25,545459259064007.7,7065120650066.566,19756245474605.36,502434756095835.25,1.566361310573884e+16
1.729341691620648,1868896974614758.5,2.046587444750492e+16,385886018309276.1,546850845324991.56,7706810061316.078,21551324940701.992,548089196032534.7,1.7086893278221324e+16
1.863928525453061,1873047374743990.5,2.19730795192595e+16,386742984459175.9,548065278368545.44,8361393948488.389,23382598833089.465,594664406904210.2,1.8538815482002004e+16
2.001207095962122,1876699486416135.5,2.3509668030772564e+16,387497065025700.94,549133909095427.2,9029097743003.188,25250705256640.02,642176628590784.2,2.001988113864488e+16
2.1412312378813647,1879936902315540.2,2.5076312310218384e+16,388165520055588.2,550081197247015.06,9710159183153.326,27156317077081.414,690642986128161.8,2.1530619228211828e+16
2.284055862638992,1882825759759963.5,2.6673682467527612e+16,388762005447144.1,550926495015513.44,10404826347976.91,29100136440212.54,740081350230743.8,2.3071581894286044e+16
2.4297369798917723,1885419043770655.0,2.8302449790033404e+16,389297461439358.44,551685306149085.2,11113356334863.72,31082891091160.773,790510243626180.0,2.46433414876221e+16
2.578331719489608,1887759682185837.5,2.9963289311758744e+16,389780751684614.1,552370191601368.5,11836014363211.46,33105331885223.54,841948777718047.6,2.624648856232042e+16
2.7298983538794,1889882809644939.0,3.165688180253727e+16,390219130711526.75,552991431987382.4,12573073166082.088,35168231104434.77,894416609756742.8,2.788163051616619e+16
2.884496320956988,1891817448928121.8,3.3383915342726024e+16,390618591084488.75,553557519553962.8,13324812580330.922,37272381329629.375,947933914150336.6,2.9549390675099136e+16
3.0421862473761276,1893587776886277.5,3.514508659737371e+16,390984124790318.06,554075528598780.1,14091519275968.26,39418594702442.16,1002521363701783.1,3.125040768941816e+16
3.2030299723236504,1895214089614951.2,3.694110186949629e+16,391319922525391.56,554551397886255.75,14873486584837.732,41607702465692.25,1058200117933452.0,3.2985335152485664e+16
3.3670905717701234,1896713546810212.8,3.877267798910524e+16,391629527388727.4,554990148450729.0,15671014401268.973,43840554705754.77,1114991816554553.8,3.4754841380793956e+16
3.5344323832055258,1898100751903815.5,4.0640543078888584e+16,391915954667105.9,555396053347634.94,16484409135693.857,46118020243809.87,1172918576719694.2,3.6559609312870824e+16
3.7051210308696363,1899388208618698.0,4.254543722648887e+16,392181786103721.1,555772771244486.75,17313983707826.355,48440986638544.29,1232002993126078.5,3.840033649704948e+16
3.879223451487029,1900586683509663.5,4.448811308558446e+16,392429244754832.7,556123452502549.75,18160057569843.055,50810360273609.69,1292268140269825.2,4.027773514670413e+16
4.0568079205167695,1901705496256087.0,4.646933642244364e+16,392660254928819.94,556450824118293.5,19022956752662.17,53227066510577.44,1353737576371253.2,4.219253224750601e+16
4.237944078927105,1902752753911673.8,4.848988662060103e+16,392876490553588.6,556757258266341.9,19903013930286.473,55692049893355.94,1416435348611922.8,4.414546970543386e+16
4.422702960505647,1903735541300925.5,5.055055715335997e+16,393079414489243.56,557044828010659.56,20800568498505.28,58206274393750.69,1480385999420781.5,4.613730452724609e+16
4.61115701971576,1904660076820259.8,5.2652156031639944e+16,393270310697587.4,557315352892938.6,21715966665203.445,60770723690515.52,1545614573614749.2,4.816880902725863e+16
4.803380160110075,1905531840738790.8,5.479550623304641e+16,393450310733406.44,557570436474211.1,22649561550219.78,63386401476184.65,1612146626248357.0,5.024077105582528e+16
4.9994477633122765,1906355681482145.5,5.698144611680605e+16,393620415689729.75,557811497434147.1,23601713293204.695,66054331787396.336,1680008231063403.2,5.235399424605599e+16
5.199436718578522,1907135904170663.8,5.921082982825932e+16,393781514479022.8,558039795477900.75,24572789168303.785,68775559355471.89,1749225989456235.0,5.450929827615169e+16
5.403425452950093,1907876344764288.8,6.148452769588096e+16,393934399142466.94,558256453031352.06,25563163704773.367,71551149974801.1,1819827039900441.5,5.67075191453628e+16
5.611493962009095,1908580432463335.2,6.38034266232289e+16,394079777734347.94,558462473499974.4,26573218812846.96,74382190887174.66,1891839067777675.8,5.89495094620534e+16
5.823723841249277,1909251242472843.5,6.6168430477785624e+16,394218285216728.25,558658756708008.7,27603343914329.293,77269791180657.67,1965290315580857.0,6.123613874271215e+16
6.040198318074262,1909891540817726.2,6.8580460478307464e+16,394350492712789.5,558846112011657.3,28653936077518.844,80215082201935.36,2040209593462722.2,6.3568293721023176e+16
6.261002284435747,1910503822567415.0,7.104045558202394e+16,394476915399376.4,559025269483849.9,29725400156152.355,83219217981333.1,2116626290109406.2,6.594687866632635e+16
6.486222330124463,1911090344570265.2,7.354937287280926e+16,394598019265934.94,559196889492545.06,30818148932137.656,86283375669913.38,2194570383923984.0,6.83728157109545e+16
6.715946776726952,1911653153593585.0,7.610818795127725e+16,394714226924803.7,559361570934667.6,31932603261897.69,89408755988216.1,2274072454509038.0,7.084704518606507e+16
6.950265712261491,1912194110602148.0,7.871789532760469e+16,394825922624192.4,559519858340160.3,33069192226193.625,92596583686329.16,2355163694440359.0,7.337052596568547e+16
7.18927102650672,1912714911777955.2,8.137950881778006e+16,394933456588299.7,559672248022493.3,34228353283327.598,95848108015084.4,2437875921326711.5,7.594423581876634e+16
7.433056447036854,1913217106778959.2,8.409406194387754e+16,395037148787340.5,559819193421286.9,35410532425656.67,99164603208245.14,2522241590152316.5,7.856917176910379e+16
7.681717575977592,1913702114649798.5,8.686260833888312e+16,395137292222754.6,559961109757884.56,36616184339367.57,102547368975621.0,2608293805900590.0,8.124635046303706e+16
7.935351927497144,1914171237728524.0,8.968622215653984e+16,395234155798649.25,560098378104555.06,37845772567482.23,105997731007095.78,2696066336458838.5,8.397680854487458e+16
8.194058966047088,1914625673837157.0,9.256599848662307e+16,395327986838870.25,560231348951518.94,39099769676078.12,109517041487595.4,2785593625804836.5,8.676160304002706e+16
8.45794014536803,1915066526997633.0,9.550305377602066e+16,395419013299614.6,560360345342506.75,40378657423715.46,113106679623059.88,2876910807476876.0,8.960181174585734e+16
8.72709894827539,1915494816876812.2,9.849852625595344e+16,395507445719617.2,560485665638427.4,41682926934078.266,116768052177511.31,2970053718329967.0,9.249853363027696e+16
9.0016409272409,1915911487132758.0,1.0155357637564845e+17,395593478943468.56,560607585959534.94,43013078871837.56,120502594021330.83,3065058912581047.0,9.545288923813843e+16
9.281673745785717,1916317412808327.8,1.0466938724274763e+17,395677293648233.44,560726362348850.5,44369623621756.57,124311768690886.17,3161963676147061.0,9.84660211054824e+16
9.567307220701432,1916713406896596.0,1.0784716507071866e+17,395759057699063.4,560842232693236.06,45753081471058.98,128197068959658.5,3260806041279843.5,1.0153909418171906e+17
9.85865336511546,1917100226184231.0,1.1108813963351675e+17,395838927355727.06,560955418433207.8,47163982795087.305,132160017421041.48,3361624801502317.0,1.046732962598251e+17
10.155826432417769,1917478576463858.5,1.1439356472773498e+17,395917048348844.3,561066126088107.0,48602868246281.89,136202167082993.34,3464459526850825.0,1.0786983841465403e+17
10.458942961066125,1917849117193574.5,1.1776471864246379e+17,395993556841979.0,561174548619501.25,50070288946512.72,140325101974736.31,3569350579428776.0,1.1112995544945882e+17
10.768121820287448,1918212465670923.2,1.2120290463707794e+17,396068580293466.94,561280866652514.8,51566806682800.18,144530437765709.22,3676339129276913.0,1.1445490635073557e+17
11.083484256693197,1918569200779461.8,1.2470945142715482e+17,396142238230006.8,561385249572100.56,53092994106461.336,148819822396987.97,3785467170565939.0,1.1784597475150378e+17
11.405153941827061,1918919866358337.2,1.2828571367872688e+17,396214642942394.06,561487856508996.4,54649434935720.96,153194936725395.03,3896777538117386.5,1.213044694031386e+17
11.733257020663602,1919264974238501.0,1.3193307251106077e+17,396285900112440.4,561588837228141.4,56236724161827.875,157657495180531.72,4010313924258805.5,1.2483172465588045e+17
12.067922161076874,1919605006983661.2,1.3565293600815515e+17,396356109378915.5,561688332930698.25,57855468258717.15,162209246434975.25,4126120896019625.5,1.2842910094814854e+17
12.409280604298411,1919940420369141.2,1.3944673973914286e+17,396425364849377.25,561786476979376.06,59506285396261.33,166851974087879.72,4244243912674189.0,1.3209798530478654e+17
12.75746621638438,1920271645627613.0,1.4331594728778173e+17,396493755563869.7,561883395555554.8,61189805657152.68,171587497362243.88,4364729343638666.5,1.358397918443766e+17
13.112615540712067,1920599091487183.8,1.4726205079121578e+17,396561365915736.5,561979208255634.2,62906671257461.77,176417671816099.72,4487624486728739.0,1.3965596229575504e+17
13.474867851526309,1920923146024079.8,1.51286571488184e+17,396628276034165.1,562074028633145.2,64657536770914.0,181344390067893.38,4612977586785127.0,1.4354796652386886e+17
13.844365208556836,1921244178349599.8,1.553910602768581e+17,396694562132505.7,562167964692364.25,66443069356930.74,186369582536329.97,4740837854674180.0,1.47517303065116e+17
14.221252512727972,1921562540148638.5,1.595770982824822e+17,396760296825935.3,562261119338491.25,68263948992478.47,191495218194965.3,4871255486671060.0,1.5156549967231082e+17
14.605677562982532,1921878567085047.0,1.6384629743499466e+17,396825549421641.1,562353590788865.75,70120868707770.85,196723305341827.53,5004281684232898.0,1.5569411386941664e+17
14.997791114242183,1922192580087358.2,1.6820030105680186e+17,396890386184292.06,562445472949183.9,72014534825868.94,202055892384365.62,5139968674169934.0,1.599047335162007e+17
15.397746936527026,1922504886526882.5,1.7264078446088394e+17,396954870579288.56,562536855758212.75,73945667206223.22,207495068640023.16,5278369729222455.0,1.6419897738295085e+17
15.805701875257567,1922815781298811.2,1.7716945555940557e+17,397019063495987.94,562627825504128.75,75914999492204.58,213042965152742.62,5419539189051675.0,1.685784957354101e+17
16.221815912762718,1923125547815793.2,1.8178805548300336e+17,397083023452855.44,562718465115243.4,77923279362664.33,218701755525713.25,5563532481652846.0,1.7304497093007827e+17
16.64625223101797,1923434458922440.0,1.8649835921092883e+17,397146806786288.75,562808854427594.94,79971268787572.3,224473656770682.22,5710406145199139.0,1.776001180200353e+17
17.079177275638333,1923742777738277.2,1.913021762122202e+17,397210467824671.4,562899070431600.44,82059744287773.12,230360930174151.28,5860217850324817.0,1.822456853714388e+17
17.5207608211511,1924050758435904.2,1.9620135109807434e+17,397274059049040.0,562989187499748.6,84189497198905.77,236365882180796.56,6013026422856792.0,1.8698345529085322e+17
17.97117603757412,1924358646960340.0,2.0119776428560214e+17,397337631241623.5,563079277597089.4,86361333939528.42,242490865294445.72,6168891867003216.0,1.9181524466356592e+17
18.430599558325603,1924666681695048.5,2.0629333267313235e+17,397401233623350.4,563169410476112.2,88576076283491.78,248738278996957.9,6327875389008767.0,1.9674290560304845e+17
18.899211549492115,1924975094079402.2,2.11490010327249e+17,397464913981349.56,563259653857422.1,90834561636600.86,255110570685360.66,6490039421285598.0,2.017683261117235e+17
19.37719578048196,1925284109182015.8,2.167897891817333e+17,397528718787329.9,563350073597500.8,93137643317607.7,261610236627605.34,6655447647029945.0,2.0689343075319117e+17
19.864739696091597,1925593946233881.0,2.22194699748584e+17,397592693307657.56,563440733844702.8,95486190843573.53,268239822937300.2,6824165025333885.0,2.1212018133608288e+17
20.36203449001343,1925904819124806.2,2.2770681184130157e+17,397656881705863.6,563531697184521.2,97881090219640.92,275001926567802.03,6996257816802400.0,2.174505776096965e+17
20.869275179813698,1926216936866411.2,2.3332823531060278e+17,397721327138240.56,563623024775061.1,100323244233252.05,281899196326042.8,7171793609685955.0,2.2288665797157776e+17
21.38666068340997,1926530504024562.0,2.3906112079274957e+17,397786071843129.44,563714776473566.0,102813572752851.67,288934333906480.5,7350841346538923.0,2.2843050018721014e+17
21.91439389707817,1926845721123835.0,2.44907660470665e+17,397851157224435.3,563807010954780.5,105353013031109.39,296110094945571.25,7533471351414573.0,2.3408422212197056e+17
22.452681775019734,1927162785026443.5,2.5087008884801686e+17,397916623929866.0,563899785821814.6,107942520012697.14,303429290097163.4,7719755357607383.0,2.3984998248552096e+17
23.00173541052013,1927481889287756.8,2.569506835364409e+17,397982511924337.6,563993157710174.8,110583066646651.92,310894786129226.94,7909766535953826.0,2.457299815887891e+17
23.561770118730532,1927803224490353.5,2.631517660560913e+17,398048860558952.06,564087182385510.8,113275644203359.64,318509507042335.56,8103579523702838.0,2.517264621137079e+17
24.133005521105144,1928126978558445.0,2.6947570264967645e+17,398115708635916.9,564181914835616.4,116021262596185.05,326276435210330.2,8301270453967544.0,2.5784170989587232e+17
24.715665631527248,1928453337054242.2,2.7592490511017747e+17,398183094469736.25,564277409357152.8,118820950707781.0,334198612543595.2,8502916985769967.0,2.6407805472027514e+17
25.309978944157795,1928782483457798.5,2.8250183162241056e+17,398251055944996.6,564373719637521.1,121675756721099.03,342279141675397.3,8708598334690700.0,2.704378711302833e+17
25.91617852304095,1929114599431635.5,2.892089876186137e+17,398319630571004.9,564470898832310.0,124586748455127.12,350521187171734.06,8918395304135860.0,2.769235792500164e+17
26.53450209350177,1929449865071443.5,2.960489266482351e+17,398388855533550.56,564568999638636.9,127555013705380.34,358927976765149.44,9132390317233642.0,2.83537645620287e+17
27.165192135371807,1929788459143937.0,3.0302425126208864e+17,398458767744018.1,564668074364754.6,130581660589156.83,367502802612997.5,9350667449373370.0,2.9028258404826016e+17
27.808495978079243,1930130559312957.2,3.101376139110623e+17,398529403886074.94,564768174996208.8,133667817895584.1,376249022580617.7,9573312461399986.0,2.971609564709909e+17
28.464665897640828,1930476342354723.8,3.173917178595372e+17,398600800460113.2,564869353258820.1,136814635440468.0,385170061549918.8,9800412833477132.0,3.041753738329953e+17
29.133959215593645,1930825984363155.8,3.2478931811369504e+17,398672993825643.5,564971660678763.6,140023284425955.08,394269412753866.06,1.0032057799632454e+16,3.1132849697801555e+17
29.816638399905518,1931179660946042.0,3.323332223648894e+17,398746020241804.56,565075148639971.8,143294957805020.62,403550639137371.75,1.0268338382999038e+16,3.1862303755512045e+17
30.51297116790363,1931537547412812.8,3.400262919482257e+17,398819915906127.06,565179868439070.1,146630870650789.06,413017374745112.3,1.050934743176674e+16,3.2606175893930624e+17
31.223230591261704,1931899818954587.8,3.478714428165474e+17,398894716991716.75,565285871338070.8,150032260530686.38,422673326136789.5,1.0755179655857924e+16,3.3364747716673715e+17
31.947695203086937,1932266650817156.0,3.5587164652995334e+17,398970459682962.6,565393208614979.9,153500387885431.2,432522273830376.8,1.1005931664342442e+16,3.413830618847803e+17
32.686649107148675,1932638218467410.2,3.640299312610525e+17,399047180209912.56,565501931612500.4,157036536412853.94,442568073773889.1,1.126170200360647e+16,3.49271437316969e+17
33.44038208929165,1933014697753878.5,3.7234938281605997e+17,399124914881407.5,565612091785002.2,160642013456544.62,452814658846235.25,1.1522591196290704e+16,3.5731558324304666e+17
34.20918973107749,1933396265061720.5,3.808331456719459e+17,399203700117095.75,565723740743878.6,164318150399309.34,463266040387713.94,1.1788701781013202e+16,3.655185359942229e+17
34.993373525699035,1933783097462784.8,3.8948442402973965e+17,399283572478410.4,565836930301453.0,168066303061430.53,473926309760732.6,1.2060138352893002e+16,3.738833894637823e+17
35.793240996213015,1934175372861054.2,3.9830648288417594e+17,399364568698600.25,565951712513532.4,171887852103702.88,484799639941336.3,1.2337007604890576e+16,3.824132961331675e+17
36.60910581613728,1934573270133927.2,4.0730264910979904e+17,399446725711904.0,566068139720754.5,175784203435225.44,495890287142129.8,1.261941836998156e+16,3.9111146811367405e+17
37.44128793246003,1934976969269698.0,4.164763125636887e+17,399530080681937.44,566186264588813.0,179756788625921.25,507202592467226.9,1.2907481664180626e+16,3.999811782038748e+17
38.29011369110923,1935386651501592.2,4.258309272049272e+17,399614671029364.75,566306140147672.9,183807065323747.7,518740983599812.7,1.3201310730432808e+16,4.0902576096289235e+17
39.15591596493141,1935802499438658.8,4.3537001223094995e+17,399700534458928.06,566427819829870.5,187936517676564.25,530509976522980.6,1.3501021083389504e+16,4.1824861379963386e+17
40.03903428423004,1936224697193828.2,4.4509715323090195e+17,399787708985888.4,566551357507996.6,192146656758605.4,542514177274460.1,1.3806730555087334e+16,4.2765319807809446e+17
40.93981496991464,1936653430509435.2,4.550160033561192e+17,399876232961942.3,566676807531406.9,196439021001515.84,554758283735906.0,1.4118559341547794e+16,4.3724304023883117e+17
41.85861126931294,1937088886880455.8,4.6513028450785926e+17,399966145100667.7,566804224762294.5,200815176629887.03,567247087457402.9,1.4436630050316496e+16,4.470217329367117e+17
