t(s),Total solute volume 1,Total retention volume 1,Total 1 volume 1,Total 2 volume 1,Total 3 volume 1,Total 4 volume 1,Total 5 volume 1,Total 6 volume 1
0.1,1386011386779396.2,8520484941412214.0,2082602288778356.8,5051871265854462.0,0.0,0.0,0.0,0.00819856729667888
0.202,2027084819233888.0,1.2461947102528088e+16,3045872596794542.5,7388555181062252.0,203333991.86925697,1287864577.7204235,57119927378.01362,375894311452.57574
0.30604000000000003,2529299227284732.5,1.5550081036274384e+16,3800494003063775.5,9219089490091598.0,512508189.78412694,3248273234.76842,149757937232.17596,1044797115614.229
0.41216080000000005,2957108769530088.0,1.818108420450558e+16,4443315473433934.0,1.077842227489886e+16,907816578.3279347,5755272459.361039,270161784262.21432,1960861769405.883
0.5204040160000001,3338109347133714.5,2.052457687258185e+16,5015802333343886.0,1.2167139545674082e+16,1380132720.2458622,8750863444.899445,414988520962.09937,3100526913042.9663
0.6308120963200001,3686633291654779.0,2.2668652677324748e+16,5539490186784361.0,1.3437481833330016e+16,1924527472.3606207,12203740129.6069,582515472581.1031,4450721815416.252
0.7434283382464002,4011151960580529.5,2.46653808854036e+16,6027107998739955.0,1.4620326681191506e+16,2538177627.699157,16095975088.89868,771775100363.4353,6003835638533.741
0.8582969050113283,4317139972078734.0,2.6548411873563484e+16,6486881866655198.0,1.573562868964916e+16,3219490282.5319777,20417453183.268623,982222016724.9346,7755486220185.098
0.9754628431115548,4608369060575339.0,2.834092988673779e+16,6924479154195691.0,1.6797135557028764e+16,3967668947.5524592,25163115135.45054,1213577272225.047,9703406881696.018
1.094972099973786,4887564999105624.0,3.005969078385739e+16,7343995575537031.0,1.7814782523683346e+16,4782472528.17134,30331426909.133842,1465744801417.5515,11846826830532.668
1.2168715419732616,5156771958487856.0,3.171726151967408e+16,7748502677339330.0,1.879602043813625e+16,5664070204.076873,35923458301.842384,1738762172032.0027,14186096010091.861
1.3412089728127268,5417568884969450.0,3.33233500575751e+16,8140372965310290.0,1.974660443912403e+16,6612948709.454126,41942294325.26443,2032769553523.3535,16722443374780.598
1.4680331522689813,5671205146034793.0,3.4885639070603616e+16,8521483724018346.0,2.0671088375146404e+16,7629850364.159685,48392641842.22218,2347989176980.307,19457813734883.062
1.597393815314361,5918689382143493.0,3.641033203052241e+16,8893350524472666.0,2.1573148662719276e+16,8715730191.446564,55280557379.397644,2684711220031.6,22394753679388.5
1.729341691620648,6160849858757272.0,3.790252413068012e+16,9257217908366590.0,2.245580426512801e+16,9871725432.08995,62613253633.76863,3043283823210.918,25536329625964.332
1.863928525453061,6398376730553264.0,3.936646203839261e+16,9614122893783602.0,2.3321570742370068e+16,11099133418.274467,70398959043.56956,3424105871005.802,28886067722206.4
2.001207095962122,6631852419057308.0,4.08057305916769e+16,9964940620267706.0,2.417257097536393e+16,12399395267.325842,78646814299.0544,3827621685765.425,32447909092602.926
2.1412312378813647,6861773942410818.0,4.222339003406923e+16,1.0310417901264614e+16,2.5010616556269924e+16,13774083739.717472,87366795283.43921,4254317083404.271,36226176161460.28
2.284055862638992,7088569653700588.0,4.362207888520655e+16,1.0651198374935994e+16,2.5837268798434664e+16,15224894149.233896,96569655384.69495,4704716422979.842,40225547162799.45
2.4297369798917723,7312612005740888.0,4.500409239090627e+16,1.0987841684368e+16,2.6653885263048896e+16,16753637558.58251,106266882311.6421,5179380397763.55,44451036830825.93
2.578331719489608,7534227435213773.0,4.637144326979567e+16,1.1320838329361866e+16,2.7461655786082056e+16,18362235719.794224,116470665982.75447,5678904390577.381,48907981845707.93
2.7298983538794,7753704121152705.0,4.772590939661012e+16,1.1650621324238172e+16,2.8261630757358452e+16,20052717370.53017,127193875019.5001,6203917266371.182,53602030002056.29
2.884496320956988,7971298149822865.0,4.906907169210872e+16,1.1977575461111716e+16,2.9054743591070244e+16,21827215601.655975,138450040037.72336,6755080509344.865,58539132338904.03
3.0421862473761276,8187238467713100.0,5.0402344565566216e+16,1.2302044752197646e+16,2.984182877904971e+16,23687966084.501194,150253342394.2706,7333087635889.709,63725537661403.3
3.2030299723236504,8401730900949178.0,5.172700062026798e+16,1.2624338469333272e+16,3.0623636541218524e+16,25637305998.36092,162618607376.98212,7938663831672.514,69167789021925.85
3.3670905717701234,8614961447033651.0,5.304419088744058e+16,1.294473609010671e+16,3.1400844823723516e+16,27677673536.617947,175561301066.21567,8572565773520.083,74872721828585.98
3.5344323832055258,8827098993292013.0,5.435496153738184e+16,1.326349138256123e+16,3.217406920746108e+16,29811607897.713085,189097530272.81198,9235581605819.182,80847463323529.17
3.7051210308696363,9038297579191842.0,5.566026778784592e+16,1.3580835804528666e+16,3.29438711540536e+16,32041749687.976513,203244045089.3323,9928531047892.713,87099433229124.8
3.879223451487029,9248698292458492.0,5.696098556231314e+16,1.3896981352709858e+16,3.371076491704291e+16,34370841679.04356,218018243691.085,10652265613900.066,93636345402605.2
4.0568079205167695,9458430868717182.0,5.825792132666748e+16,1.4212122966277706e+16,3.447522337246062e+16,36801729874.5861,233438179099.68118,11407668930692.13,100466210372291.97
4.237944078927105,9667615049250654.0,5.9551820439754136e+16,1.4526440567027148e+16,3.5237682967747892e+16,39337364850.37452,249522567680.7558,12195657142046.168,107597338653870.05
4.422702960505647,9876361739986340.0,6.0843374282772344e+16,1.4840100800855424e+16,3.5998547946172964e+16,41980803338.927,266290799193.46417,13017179390040.04,115038344765029.06
4.61115701971576,1.0084774006046208e+16,6.213322637849076e+16,1.5153258532160572e+16,3.675819397188703e+16,44735210035.712814,283762948245.58124,13873218366161.248,122798151872517.88
4.803380160110075,1.029294792940912e+16,6.342197766959073e+16,1.546605813255447e+16,3.751697125603609e+16,47603859608.41285,301959787036.82904,14764790926204.426,130885997018209.3
4.9994477633122765,1.050097335195161e+16,6.47101910929677e+16,1.5778634597346952e+16,3.827520726508591e+16,50590138894.37929,320902799296.15027,15692948764177.695,139311436880874.88
5.199436718578522,1.0708934521983352e+16,6.599839556132322e+16,1.609111451702212e+16,3.9033209077393176e+16,53697549274.375565,340614195337.28577,16658779141380.715,148084354038574.3
5.403425452950093,1.0916910659110278e+16,6.728708944320006e+16,1.6403616925994878e+16,3.9791265442086696e+16,56929709213.074936,361116928172.2294,17663405667583.574,157214963703256.8
5.611493962009095,1.112497644964218e+16,6.857674361653961e+16,1.6716254047004304e+16,4.054964858478897e+16,60290356958.75999,382434710634.6078,18707989131863.84,166713820904690.28
5.823723841249277,1.1333202482662822e+16,6.986780415794138e+16,1.7029131946347388e+16,4.1308615797057704e+16,63783353396.292885,404592033475.3381,19793728381178.785,176591828105410.66
6.040198318074262,1.154165563518695e+16,7.116069471939722e+16,1.7342351112611246e+16,4.206841084025215e+16,67412685048.779335,427614184401.5218,20921861245180.332,186860243232189.47
6.261002284435747,1.1750399413453082e+16,7.245581863582128e+16,1.7656006969495474e+16,4.28292651895186e+16,71182467224.48747,451527268036.74316,22093665506143.395,197530688112736.44
6.486222330124463,1.1959494256277578e+16,7.375356079979451e+16,1.7970190331628454e+16,4.359139913949215e+16,75096947306.54207,476358226787.03033,23310459913182.64,208615157309056.06
6.715946776726952,1.2168997805474542e+16,7.505428933427883e+16,1.8284987810896804e+16,4.43550227899553e+16,79160508183.73338,502134862601.94025,24573605240193.293,220126027341194.9
6.950265712261491,1.2378965147584328e+16,7.635835708938342e+16,1.8600482179663836e+16,4.512033692691958e+16,83377671821.4825,528885859624.67584,25884505387173.215,232076066297091.72
7.18927102650672,1.2589449030524116e+16,7.766610298539141e+16,1.8916752696306024e+16,4.5887533812299864e+16,87753102972.61198,556640807728.988,27244608524776.42,244478443825951.2
7.433056447036854,1.2800500058248462e+16,7.897785322102859e+16,1.923387539770768e+16,4.665679789343622e+16,92291613028.09708,585430226943.9908,28655408282114.246,257346741514055.72
7.681717575977592,1.301216686606875e+16,8.029392236326e+16,1.955192336269365e+16,4.742830644211967e+16,96998164008.44106,615285592770.9359,30118444977967.44,270694963643215.03
7.935351927497144,1.322449627891191e+16,8.161461433263554e+16,1.9870966949827076e+16,4.820223013143252e+16,101877872696.72466,646239362398.6205,31635306895701.094,284537548333213.06
8.194058966047088,1.3437533454487798e+16,8.294022329629067e+16,2.0191074012530984e+16,4.897873355758229e+16,106936014914.75041,678325001826.4196,33207631602289.8,298889379070618.75
8.45794014536803,1.365132201307167e+16,8.427103447910053e+16,2.0512310094097692e+16,4.975797571294807e+16,112178029944.02832,711577013906.0255,34837107311963.598,313765796627241.4
8.72709894827539,1.3865904155384484e+16,8.560732490210414e+16,2.0834738604814468e+16,5.054011041574547e+16,117609525093.652,746030967314.8755,36525474295078.266,329182611372323.06
9.0016409272409,1.4081320769863784e+16,8.694936405615422e+16,2.1158420983147452e+16,5.132528670101989e+16,123236280417.3848,781723526475.9836,38274526332899.52,345156115983311.56
9.281673745785717,1.4297611530454614e+16,8.829741451773846e+16,2.1483416842681e+16,5.211364917708702e+16,129064253582.53183,818692482440.4979,40086112219068.3,361703098560730.3
9.567307220701432,1.4514814985910512e+16,8.965173251307e+16,2.1809784106300404e+16,5.290533835102762e+16,135099584893.40175,856976784750.7806,41962137308587.45,378840856153281.3
9.85865336511546,1.4732968641474496e+16,9.101256843579904e+16,2.2137579128924508e+16,5.370049092640815e+16,141348602472.38785,896616574303.1986,43904565115237.7,396587208699906.44
10.155826432417769,1.4952109033705862e+16,9.238016732306363e+16,2.2466856809939856e+16,5.449924007601856e+16,147817827601.90225,937653217231.1475,45915418958394.72,414960513396062.94
10.458942961066125,1.517227179912935e+16,9.37547692940468e+16,2.279767069635181e+16,5.530171569209331e+16,154513980230.59296,980129339830.0558,47996783660279.61,433979679491979.06
10.768121820287448,1.5393491737305096e+16,9.513660995472898e+16,2.3130073077552988e+16,5.610804461619586e+16,161443984647.46198,1024088864547.3077,50150807294732.85,453664183531142.7
11.083484256693197,1.5615802868849974e+16,9.652592077210563e+16,2.346411507250509e+16,5.6918350850701784e+16,168614975327.68933,1069577047061.2124,52379702988657.65,474034085037710.9
11.405153941827061,1.5839238488881966e+16,9.792292942078256e+16,2.3799846710044024e+16,5.77327557535998e+16,176034302954.1328,1116640514474.198,54685750777330.61,495110042661996.4
11.733257020663602,1.6063831216307534e+16,9.932786010453931e+16,2.413731700293837e+16,5.855137821813976e+16,183709540618.65253,1165327304646.5554,57071299514833.13,516913330793582.2
12.067922161076874,1.6289613039326616e+16,1.007409338551758e+17,2.4476574016264664e+16,5.937433483869472e+16,191648490207.57812,1215686906698.0732,59538768840902.7,539465856652033.56
12.409280604298411,1.6516615357490038e+16,1.0216236881071258e+17,2.4817664930602428e+16,6.02017400640573e+16,199859188975.79156,1267770302705.9746,62090651205559.14,562790177865564.9
12.75746621638438,1.6744869020609452e+16,1.0359238047479994e+17,2.516063610049961e+16,6.103370633926262e+16,208349916314.07114,1321630010628.5857,64729513952903.695,586909520548420.9
13.112615540712067,1.697440436478837e+16,1.050311819590029e+17,2.550553310861259e+16,6.187034423691913e+16,217129200714.4942,1377320128485.181,67458001465543.89,611847797888088.6
13.474867851526309,1.7205251245816478e+16,1.064789842094599e+17,2.5852400815883784e+16,6.271176257892784e+16,226205826938.86743,1434896379823.486,70278837371139.61,637629629253844.4
13.844365208556836,1.7437439070144346e+16,1.0793599621926603e+17,2.6201283408084148e+16,6.355806854938262e+16,235588843395.299,1494416160507.3064,73194826812617.02,664280359838503.9
14.221252512727972,1.767099682363459e+16,1.0940242522780062e+17,2.6552224439014172e+16,6.4409367799366056e+16,245287569728.19867,1555938586857.7825,76208858783645.62,691826080845603.2
14.605677562982532,1.7905953098266808e+16,1.1087847690809966e+17,2.690526687063048e+16,6.5265764544286904e+16,255311604627.14484,1619524545182.7437,79323908531017.86,720293650234602.0
14.997791114242183,1.8142336116955896e+16,1.1236435554327266e+17,2.7260453110337244e+16,6.612736165434019e+16,265670833860.2179,1685236742729.7322,82543040025622.84,749710714037068.5
15.397746936527026,1.838017375662845e+16,1.1386026419286882e+17,2.7617825045661104e+16,6.69942607386197e+16,276375438537.5672,1753139760099.1855,85869408503751.86,780105728257141.9
15.805701875257567,1.86194935696892e+16,1.1536640485001472e+17,2.7977424076505612e+16,6.786656222336064e+16,287435903611.12885,1823300105155.379,89306263080521.73,811507981369956.8
16.221815912762718,1.8860322803995644e+16,1.1688297859007163e+17,2.833929114516548e+16,6.874436542474609e+16,298863026616.58923,1895786268473.7288,92856949437252.88,843947617432039.9
16.64625223101797,1.9102688421449904e+16,1.1841018571149413e+17,2.8703466764262136e+16,6.9627768616672296e+16,310667926663.84406,1970668780364.1035,96524912584683.81,877455659818077.1
17.079177275638333,1.9346617115305788e+16,1.1994822586951309e+17,2.9069991042749296e+16,7.0516869093832024e+16,322862053682.3747,2048020269510.8718,100313699703961.31,912064035598791.0
17.5207608211511,1.9592135326281044e+16,1.2149729820320987e+17,2.943890371012292e+16,7.141176323044221e+16,335457197928.12933,2127915523271.454,104226963067385.7,947805600575034.9
17.97117603757412,1.983926925755647e+16,1.2305760145650323e+17,2.9810244138958764e+16,7.231254653491411e+16,348465499758.6708,2210431549676.264,108268463040951.31,984714164983581.2
18.430599558325603,2.0088044888736264e+16,1.2462933409352533e+17,3.0184051365888852e+16,7.321931370073814e+16,361899459683.52216,2295647641173.9873,112442071170764.77,1022824519890441.4
18.899211549492115,2.0338487988838212e+16,1.2621269440882331e+17,3.0560364111120704e+16,7.413215865383213e+16,375771948696.8206,2383645440167.263,116751773355484.45,1062172464287923.8
19.37719578048196,2.0590624128375804e+16,1.2780788063279002e+17,3.0939220796591436e+16,7.505117459657862e+16,390096218899.55676,2474509006384.995,121201673106968.25,1102794832912011.9
19.864739696091597,2.0844478690589012e+16,1.2941509103269309e+17,3.1320659562843296e+16,7.59764540487617e+16,404885914418.8785,2568324886138.6064,125795994901376.89,1144729524797018.5
20.36203449001343,2.110007688187682e+16,1.3103452400964122e+17,3.1704718284699116e+16,7.69080888855912e+16,420155082632.0926,2665182183510.734,130539087623031.92,1188015532584856.0
20.869275179813698,2.13574437414783e+16,1.3266637819180706e+17,3.2091434585809276e+16,7.78461703729903e+16,435918185703.20044,2765172633526.026,135435428103378.97,1232692972606644.0
21.38666068340997,2.161660415044697e+16,1.3431085252419165e+17,3.2480845852136292e+16,7.87907892003064e+16,452190112439.99615,2868390677354.892,140489624757469.14,1278803115754731.0
21.91439389707817,2.1877582839958576e+16,1.3596814635520189e+17,3.2872989244438016e+16,7.974203551059106e+16,468986190479.91864,2974933539602.301,145706421320419.94,1326388419163685.2
22.452681775019734,2.214040439898873e+16,1.3763845952029102e+17,3.3267901709804092e+16,8.069999892858622e+16,486322198813.0754,3084901307734.8057,151090700686379.12,1375492558719082.0
23.00173541052013,2.2405093281395524e+16,1.3932199242289202e+17,3.3665619992297924e+16,8.166476858653824e+16,504214380651.0276,3198397013700.435,156647488852572.56,1426160462413416.5
23.561770118730532,2.2671673812437172e+16,1.4101894611285645e+17,3.406618064275036e+16,8.263643314795464e+16,522679456650.1279,3315526717797.1216,162381958971070.94,1478438344568831.2
24.133005521105144,2.2940170194754344e+16,1.4272952236260304e+17,3.446962002774829e+16,8.361508082940934e+16,541734638498.418,3436399594846.7593,168299435510974.94,1532373740946751.2
24.715665631527248,2.321060651384326e+16,1.4445392374115763e+17,3.487597433785876e+16,8.460079942049125e+16,561397642875.2731,3561128022733.179,174405398533775.2,1588015544764935.8
25.309978944157795,2.3483006743043804e+16,1.4619235368626083e+17,3.528527959512395e+16,8.55936763019862e+16,581686705793.1957,3689827673363.732,180705488084705.6,1645414043642908.0
25.91617852304095,2.375739474806545e+16,1.4794501657470326e+17,3.569757165986177e+16,8.659379846237264e+16,602620597331.3945,3822617606115.4243,187205508702968.03,1704620957497084.8
26.53450209350177,2.4033794291071344e+16,1.4971211779104374e+17,3.611288623680234e+16,8.760125251270827e+16,624218636770.9408,3959620363827.794,193911434053770.72,1765689477407399.0
27.165192135371807,2.4312229034339476e+16,1.5149386379484605e+17,3.653125888058966e+16,8.861612469997462e+16,646500708141.5607,4100962071406.4253,200829411685186.72,1828674305477650.2
27.808495978079243,2.459272254351873e+16,1.532904621865759e+17,3.695272500067373e+16,8.963850091894533e+16,669487276190.3231,4246772537101.806,207965767912896.6,1893631695712172.8
28.464665897640828,2.4875298290495796e+16,1.551021217722765e+17,3.737731986561846e+16,9.066846672263498e+16,693199402782.6742,4397185356530.2563,215327012835953.5,1960619495932006.0
29.133959215593645,2.515997965588771e+16,1.5692905262714378e+17,3.780507860684713e+16,9.1706107331385e+16,717658763746.5374,4552338019504.524,222919845486763.22,2029697190753994.5
29.816638399905518,2.544678993117378e+16,1.5877146615811437e+17,3.823603622184527e+16,9.275150764063395e+16,742887666170.3817,4712372019743.361,230751159118550.66,2100925945656914.8
30.51297116790363,2.5735752320479336e+16,1.606295751655664e+17,3.867022757684153e+16,9.380475222741922e+16,768909066166.4165,4877432967530.835,238828046633631.0,2174368652158987.8
31.223230591261704,2.6026889942022964e+16,1.6250359390423725e+17,3.910768740898188e+16,9.486592535565222e+16,795746587110.2789,5047670705397.261,247157806155898.3,2250089974131737.5
31.947695203086937,2.6320225829238292e+16,1.6439373814345184e+17,3.954845032801528e+16,9.593511098020632e+16,823424538368.8114,5223239426895.71,255747946750985.5,2328156395275551.0
32.686649107148675,2.6615782931578684e+16,1.6630022522674576e+17,3.999255081750261e+16,9.701239274985107e+16,851967934527.7872,5404297798548.74,264606194297636.0,2408636267782800.0
33.44038208929165,2.691358411501575e+16,1.6822327413097974e+17,4.04400232355665e+16,9.809785400906838e+16,881402515131.6403,5591009085042.181,273740497513886.4,2491599862214770.5
34.20918973107749,2.721365216223837e+16,1.701631055250095e+17,4.0890901815189016e+16,9.919157779877837e+16,911754764947.5101,5783541277743.95,283159034141737.3,2577119418619391.0
34.993373525699035,2.7516009772560364e+16,1.7211994182800963e+17,4.134522066407433e+16,1.0029364685600246e+17,943051934766.1444,5982067226627.3955,292870217294050.56,2665269198916767.0
35.793240996213015,2.782067956154385e+16,1.7409400726750275e+17,4.180301376408184e+16,1.0140414361249064e+17,975322062752.4719,6186764775680.359,302882701967490.4,2756125540580562.5
36.60910581613728,2.8127684060344136e+16,1.7608552793718742e+17,4.2264314970242344e+16,1.0252315019233362e+17,1008593996358.8284,6397816901882.341,313205391725391.6,2849766911643361.0
37.44128793246003,2.843704571478228e+16,1.7809473185461094e+17,4.272915800936413e+16,1.0365074840858256e+17,1042897414814.1525,6615411857834.325,323847445554510.2,2946273967054815.5
38.29011369110923,2.874878688415035e+16,1.8012184901877418e+17,4.319757647823794e+16,1.0478701975889422e+17,1078262852202.6356,6839743318126.475,334818284899685.94,3045729606421862.0
39.15591596493141,2.9062929839754416e+16,1.8216711146771363e+17,4.366960384144761e+16,1.0593204542021984e+17,1114721721145.5908,7071010529531.276,346127600880514.7,3148219033160792.5
