t(s),Total solute volume 1,Total retention volume 1,Total 1 volume 1,Total 2 volume 1,Total 3 volume 1,Total 4 volume 1,Total 5 volume 1,Total 6 volume 1
0.1,1252217186918146.0,2056959543180943.2,321479351742078.75,483263004520719.3,0.0,0.0,0.0,0.0
0.202,1850729754432903.5,3133690058682641.5,475134360516508.0,714244548861170.2,30367907842.977642,92945199881.89212,2704163481126.6396,90753918283209.44
0.30604000000000003,2283529176887125.0,3984742321288354.5,586246141591828.4,881273065987412.5,75687569269.385,231653575429.6497,6740953220784.398,226645642456504.75
0.41216080000000005,2630922199744245.5,4729955183024391.0,675431698262189.4,1015341037976487.4,132113552705.51369,404355295914.3523,11767338072886.975,395956440119965.75
0.5204040160000001,2923794552444037.0,5414107583877815.0,750620265965524.2,1128368070378228.0,197728429288.40106,605181819920.6068,17612459275316.594,592909325565495.2
0.6308120963200001,3177869672025075.5,6059357527528249.0,815848493125997.5,1226422245378803.0,271347972821.73718,830508715158.713,24170813521556.824,813944446788832.9
0.7434283382464002,3402473339724585.5,6678505881858610.0,873510570000415.8,1313102623674103.5,352158974904.86523,1077847112206.5801,31369957894069.145,1056619384478326.6
0.8582969050113283,3603695871184854.5,7279717692872680.0,925170051847719.0,1390759615867728.5,439567219022.54065,1345378401598.431,39156960613682.84,1319150247738070.0
0.9754628431115548,3785787220366897.5,7868576102267349.0,971918021336884.8,1461033389283375.2,533120906801.3184,1631719867342.662,47491577773806.62,1600181052732233.8
1.094972099973786,3951860112971333.0,8449102770634418.0,1014553602667805.9,1525125225389126.0,632467262041.9308,1935791866972.0806,56342386866453.51,1898653183610686.5
1.2168715419732616,4104279839630270.0,9024315371468580.0,1053684032443788.9,1583947951095681.8,737325811240.0692,2256736052778.9263,65684406307928.11,2213725080126899.0
1.3412089728127268,4244896429642783.0,9596554781605208.0,1089784265197425.5,1638215540618165.0,847470887271.1442,2593861822012.7173,75497536746555.48,2544719676690998.0
1.4680331522689813,4375190933615450.0,1.0167688176404886e+16,1123234528257296.9,1688499569737572.8,962719615056.0942,2946609545521.2925,85765490784364.9,2891088324849623.5
1.597393815314361,4496371853368310.0,1.0739240915057886e+16,1154345078016011.2,1735266430599706.5,1082923344405.0477,3314524346991.813,96475029809153.28,3252385075573302.5
1.729341691620648,4609441118407598.0,1.1312485426444078e+16,1183373137945677.2,1778902793745093.0,1207961351018.5845,3697236824216.585,107615402890280.73,3628247775280192.5
1.863928525453061,4715240655047209.0,1.1888503011653732e+16,1210534854200653.2,1819733580339141.0,1337736086542.7432,4094448511458.068,119177923671196.36,4018383813797513.0
2.001207095962122,4814486138800715.0,1.2468227971490942e+16,1236013960805500.2,1858034988094384.8,1472169520067.6733,4505920682330.129,131155644490292.6,4422559149097655.0
2.1412312378813647,4907792020854262.0,1.3052479843986546e+16,1259968204654193.0,1894044149634518.8,1611200269269.834,4931465569493.45,143543100843558.62,4840589702161257.0
2.284055862638992,4995690455317976.0,1.3641987431261542e+16,1282534204667634.2,1927966437010801.2,1754781315990.398,5370939373099.551,156336107908139.47,5272334505667916.0
2.4297369798917723,5078645864165693.0,1.4237407025405956e+16,1303831191023201.8,1959981082689483.2,1902878162994.1616,5824236619530.155,169531596365158.12,5717690176379885.0
2.578331719489608,5157066318359562.0,1.4839336452509052e+16,1323963927009349.5,1990245571822460.2,2055467329576.2214,6291285557228.936,183127478405873.53,6176586404024996.0
2.7298983538794,5231312553172850.0,1.544832604772808e+16,1343025023512458.8,2018899121493777.0,2212535111422.834,6772044361322.717,197122537276410.53,6648982232799822.0
2.884496320956988,5301705197123554.0,1.6064887341899024e+16,1361096794887311.5,2046065470552263.0,2374076549369.4863,7266497977605.447,211516335429982.1,7134862969378929.0
3.0421862473761276,5368530632441157.0,1.6689500017062494e+16,1378252763503654.2,2071855141317394.2,2540094565313.12,7774655478125.002,226309137568254.66,7634237592188617.0
3.2030299723236504,5432045793477823.0,1.7322617535467274e+16,1394558891633266.2,2096367291410389.2,2710599233346.517,8296547830641.823,241501845727516.34,8147136566154265.0
3.3670905717701234,5492482131070069.0,1.7964671740061994e+16,1410074599213037.5,2119691243704002.5,2885607161370.428,8832226006226.168,257095944205553.22,8673609988701727.0
3.5344323832055258,5550048914816380.0,1.861607664896567e+16,1424853611632465.2,2141907760756967.8,3065140963783.0405,9381759365617.348,273093452601186.75,9213726008829292.0
3.7051210308696363,5604936004577498.0,1.927723161207544e+16,1438944671255717.0,2163090114407700.5,3249228809873.5796,9945234277293.43,289496885597143.2,9767569473150234.0
3.879223451487029,5657316192599299.0,1.99485239583481e+16,1452392138710385.8,2183304989660140.2,3437904035619.2104,10522752929604.414,306309218390623.94,1.033524076202243e+16
4.0568079205167695,5707347195381880.0,2.0630331233031624e+16,1465236504256292.5,2202613253397585.0,3631204808955.2725,11114432306576.732,323533856887097.44,1.091685478599325e+16
4.237944078927105,5755173357631586.0,2.132302310226207e+16,1477514825237886.2,2221070611981921.2,3829173840436.7446,11720403302654.008,341174611937469.1,1.1512540118330108e+16
4.422702960505647,5800927117846436.0,2.2026962985935816e+16,1489261102341212.2,2238728176860949.5,4031858132663.7056,12340809956090.572,359235677028338.94,1.2122438243770142e+16
4.61115701971576,5844730275247459.0,2.2742509467179052e+16,1500506604850804.8,2255632953509997.5,4239308762998.5693,12975808784250.537,377721608937970.1,1.2746702907085562e+16
4.803380160110075,5886695090130410.0,2.3470017517046708e+16,1511280153140904.8,2271828266086139.0,4451580695027.644,13625568206894.291,396637310952931.4,1.3385499547834426e+16
4.9994477633122765,5926925243728789.0,2.420983956556302e+16,1521608365099281.8,2287354127864135.0,4668732614965.703,14290268045819.115,415988018306865.0,1.4039004809903158e+16
5.199436718578522,5965516678954930.0,2.4962326444326104e+16,1531515871969105.2,2302247565700264.0,4890826789808.232,14970099091074.729,435779285556786.3,1.4707406116264152e+16
5.403425452950093,6002558339627497.0,2.5727828221260628e+16,1541025508129444.5,2316542905319286.5,5117928944531.966,15665262725492.246,456016975656501.3,1.5390901300857848e+16
5.611493962009095,6038132822781797.0,2.650669494441275e+16,1550158478561631.5,2330272023057893.5,5350108156052.096,16375970600513.834,476707250523059.9,1.6089698290731836e+16
5.823723841249277,6072316956229851.0,2.729927730873786e+16,1558934507125189.0,2343464568760103.5,5587436761982.332,17102444357343.57,497856562922231.9,1.6804014832581152e+16
6.040198318074262,6105182311565550.0,2.8105927257457244e+16,1567371968260665.0,2356148163759235.0,5829990282525.066,17844915388300.63,519471649524039.94,1.7534078258676924e+16
6.261002284435747,6136795661199430.0,2.892699852764506e+16,1575488004323316.2,2368348577259422.0,6077847354054.005,18603624633975.137,541559525000325.06,1.828012528787457e+16
6.486222330124463,6167219386685696.0,2.976284714814258e+16,1583298630412146.8,2380089883919648.5,6331089673149.092,19378822412392.344,564127477053906.0,1.904240185798566e+16
6.715946776726952,6196511844512694.0,3.061383189662107e+16,1590818828278570.0,2391394605021708.5,6589801950010.846,20170768276901.48,587183062283788.5,1.9821162986297396e+16
6.950265712261491,6224727694621787.0,3.1480314721564084e+16,1598062630666467.5,2402283835254144.0,6854071870322.408,20979730899938.797,610734102803479.1,2.0616672655447904e+16
7.18927102650672,6251918196165313.0,3.236266113407184e+16,1605043197241568.5,2412777356852934.5,7123990064748.305,21805987980183.414,634788683540164.5,2.142920372222693e+16
7.433056447036854,6278131474381865.0,3.326124057367144e+16,1611772883105835.5,2422893742595566.5,7399650085362.058,22649826170940.555,659355150151781.0,2.225903784718006e+16
7.681717575977592,6303412761935177.0,3.4176426751715124e+16,1618263300755933.0,2432650448939934.5,7681148388383.2,23511541027856.227,684442107506751.6,2.310646544316112e+16
7.935351927497144,6327804617614382.0,3.510859797544774e+16,1624525376229733.0,2442063900426460.0,7968584322680.081,24391436974301.68,710058418678100.6,2.3971785641202104e+16
8.194058966047088,6351347124912219.0,3.605813745540185e+16,1630569400086947.0,2451149566314546.5,8262060123561.396,25289827282967.766,736213204409372.4,2.4855306272272204e+16
8.45794014536803,6374078072674623.0,3.702543359842416e+16,1636405073786916.0,2459922030299950.5,8561680911435.517,26207034072381.242,762915843014979.0,2.575734386366378e+16
8.72709894827539,6396033119737468.0,3.801088028833409e+16,1642041551955525.2,2468395054052340.5,8867554694967.01,27143388317211.195,790175970681952.9,2.6678223648894652e+16
9.0016409272409,6417245945230417.0,3.901487715596294e+16,1647487480972411.2,2476581635221476.0,9179792378402.525,28099229871362.367,818003482143939.4,2.761827959014488e+16
9.281673745785717,6437748386023237.0,4.003782984009817e+16,1652751034257282.8,2484494060481263.5,9498507772776.49,29074907502969.387,846408531701694.5,2.8577854412358904e+16
9.567307220701432,6457570562614488.0,4.108015024068025e+16,1657839944589124.5,2492143954113489.0,9823817610739.6,30070778940508.875,875401534567199.4,2.955729964824464e+16
9.85865336511546,6476740994610898.0,4.214225676543145e+16,1662761533752956.5,2499542322574304.0,10155841564783.006,31087210929332.375,904993168511219.4,3.055697569348785e+16
10.155826432417769,6495286706813400.0,4.322457457096382e+16,1667522739775140.5,2506699595435551.5,10494702268656.182,32124579298005.918,935194375796349.0,3.1577251871576704e+16
10.458942961066125,6513233326811587.0,4.432753579929463e+16,1672130141978587.5,2513625663048989.5,10840525341799.713,33183269033907.645,966016365379644.1,3.2618506507700216e+16
10.768121820287448,6530605174888224.0,4.5451579810595064e+16,1676589984063794.0,2520329911242813.0,11193439416633.389,34263674367599.57,997470615370694.5,3.368112701124535e+16
11.083484256693197,6547425346948119.0,4.659715341290925e+16,1680908195399009.2,2526821253326015.0,11553576168559.809,35366198865542.35,1029568875732680.4,3.4765509966469332e+16
11.405153941827061,6563715791109086.0,4.7764711089506024e+16,1685090410683277.0,2533108159646823.0,11921070348556.932,36491255530773.27,1062323171215239.8,3.5872061230972228e+16
11.733257020663602,6579497378525362.0,4.895471522445735e+16,1689141988128831.8,2539198684925322.5,12296059818249.871,37639266911205.44,1095745804509355.2,3.70011960416391e+16
12.067922161076874,6594789968954952.0,5.016763632698001e+16,1693068026294033.2,2545100493557547.0,12678685587362.664,38810665215253.93,1129849359615536.2,3.81533391277554e+16
12.409280604298411,6609612471529578.0,5.140395325502557e+16,1696873379684764.8,2550820883068234.0,13069091853463.865,40005892434520.94,1164646705417608.2,3.932892483103735e+16
12.75746621638438,6623982901140370.0,5.266415343856174e+16,1700562673230185.8,2556366805871457.5,13467426043928.879,41225400473307.38,1200150999455329.8,4.052839723234705e+16
13.112615540712067,6637918430810840.0,5.394873310294687e+16,1704140315728389.2,2561744889482769.5,13873838860051.457,42469651284747.67,1236375691889862.5,4.1752210284890296e+16
13.474867851526309,6651435440393040.0,5.525819749276679e+16,1707610512348029.2,2566961455312294.5,14288484323245.523,43739117013385.836,1273334529656916.2,4.300082795371991e+16
13.844365208556836,6664549561889873.0,5.659306109647123e+16,1710977276263869.8,2572022536155760.5,14711519823284.984,45034280144038.04,1311041560802924.2,4.427472436139148e+16
14.221252512727972,6677275721678180.0,5.79538478721248e+16,1714244439496610.2,2576933892489499.5,15143106168537.098,46355633656804.86,1349511139000410.5,4.557438393963472e+16
14.605677562982532,6689628179881320.0,5.9341091474559656e+16,1717415663020960.8,2581701027665365.5,15583407638149.98,47703681188117.34,1388757928239078.2,4.6900301586926616e+16
14.997791114242183,6701620567117129.0,6.075533548419989e+16,1720494446199856.2,2586329202092685.5,16032592036161.598,49078937197714.17,1428796907689716.5,4.825298283186663e+16
15.397746936527026,6713265918826439.0,6.2197133637808216e+16,1723484135597561.5,2590823446486561.5,16490830747501.533,50481927141471.51,1469643376738553.8,4.963294400227006e+16
15.805701875257567,6724576707369018.0,6.366705006138934e+16,1726387933219588.2,2595188574254492.5,16958298795862.197,51913187650008.984,1511312960189911.8,5.104071239991051e+16
16.221815912762718,6735564872057125.0,6.516565950547247e+16,1729208904223176.2,2599429193087122.5,17435174903420.197,53373266713019.75,1553821613635653.2,5.247682648085294e+16
16.64625223101797,6746241847282030.0,6.669354758297957e+16,1731949984138143.2,2603549715812992.0,17921641552392.703,54862723869279.09,1597185628990012.2,5.394183604133463e+16
17.079177275638333,6756618588875524.0,6.825131100987862e+16,1734613985634631.5,2607554370572123.5,18417885048416.492,56382130402296.09,1641421640188901.8,5.5436302409156664e+16
17.5207608211511,6766705598835909.0,6.983955784880915e+16,1737203604870971.5,2611447210358422.0,18924095585741.633,57932069541586.875,1686546629052982.8,5.6960798640563576e+16
17.97117603757412,6776512948537686.0,7.145890775585976e+16,1739721427452243.2,2615232121976905.5,19440467314233.91,59513136669555.875,1732577931314130.8,5.851590972259507e+16
18.430599558325603,6786050300533604.0,7.310999223066893e+16,1742169934027492.2,2618912834457631.5,19967198408184.24,61125939533976.39,1779533242805128.8,6.010223278090296e+16
18.899211549492115,6795326929049100.0,7.479345487001573e+16,1744551505551228.5,2622492926965129.5,20504491136923.87,62771098466078.14,1827430625812665.2,6.172037729303467e+16
19.37719578048196,6804351739261093.0,7.650995162505864e+16,1746868428232817.8,2625975836238488.0,21052551937248.246,64449246604248.39,1876288515593978.0,6.3370965307190984e+16
19.864739696091597,6813133285445366.0,7.826015106237858e+16,1749122898195445.2,2629364863594962.5,21611591487655.1,66161030123365.97,1926125727057641.0,6.505463166647417e+16
20.36203449001343,6821679788070470.0,8.004473462897344e+16,1751317025864596.8,2632663181526934.5,22181824784401.4,67907108469791.36,1976961461609187.2,6.677202423864816e+16
20.869275179813698,6829999149909614.0,8.186439692135464e+16,1753452840104414.2,2635873839919894.5,22763471219390.93,69688154602044.02,2028815314162476.5,6.8523804151436776e+16
21.38666068340997,6838098971236730.0,8.371984595888363e+16,1755532292118987.0,2638999771917019.5,23356754659899.71,71504855237202.05,2081707280317853.8,7.031064603339585e+16
21.91439389707817,6845986564167474.0,8.561180346149205e+16,1757557259134053.2,2642043799453742.0,23961903530154.734,73357911103065.14,2135657763708327.2,7.213323826039525e+16
22.452681775019734,6853668966201751.0,8.754100513192106e+16,1759529547873777.8,2645008638484124.5,24579150894777.4,75248037196130.9,2190687583515099.8,7.399228320775549e+16
23.00173541052013,6861152953019597.0,8.950820094261653e+16,1761450897845804.0,2647896903919173.0,25208734544109.5,77175963045430.45,2246817982153984.5,7.588849750808848e+16
23.561770118730532,6868445050578885.0,9.15141554274105e+16,1763322984447058.0,2650711114295604.0,25850897081436.918,79142432982284.12,2304070633134389.5,7.782261231489086e+16
24.133005521105144,6875551546559188.0,9.355964797812734e+16,1765147421901738.5,2653453696192360.5,26505886012130.32,81148206416038.67,2362467649092567.5,7.979537357195338e+16
24.715665631527248,6882478501193423.0,9.564547314623826e+16,1766925766042097.5,2656126988410836.5,27173953834722.727,83194058115844.3,2422031590001061.0,8.180754228864021e+16
25.309978944157795,6889231757525788.0,9.777244094969986e+16,1768659516941909.0,2658733245933627.5,27855358133944.47,85280778498548.39,2482785471556428.0,8.385989482110955e+16
25.91617852304095,6895816951131136.0,9.99413771851028e+16,1770350121411767.0,2661274643675552.5,28550361675738.273,87409173922774.64,2544752773747252.5,8.595322315953874e+16
26.53450209350177,6902239519329596.0,1.0215312374526189e+17,1771998975364659.8,2663753280039757.0,29259232504277.12,89580066989264.14,2607957449604808.5,8.808833522142954e+16
27.165192135371807,6908504709926565.0,1.0440853894237376e+17,1773607426059861.2,2666171180290770.5,29982244041010.305,91794296847559.88,2672423934138592.0,9.026605515106915e+16
27.808495978079243,6914617589507483.0,1.0670849783687221e+17,1775176774232349.2,2668530299755586.0,30719675185762.605,94052719509118.3,2738177153459344.0,9.248722362522272e+16
28.464665897640828,6920583051313175.0,1.090538925721116e+17,1776708276114682.8,2670832526863061.0,31471810419913.316,96356208166934.62,2805242534091903.0,9.475269816514202e+16
29.133959215593645,6926405822721590.0,1.1144563271500056e+17,1778203145357742.2,2673079686031208.0,32238939911682.63,98705653521770.44,2873646012480688.5,9.7063353454976e+16
29.816638399905518,6932090472358327.0,1.1388464560272395e+17,1779662554856226.8,2675273540411425.0,33021359623554.516,101101964115082.47,2943414044690473.5,9.94200816666687e+16
30.51297116790363,6937641416858149.0,1.1637187669567523e+17,1781087638484511.0,2677415794497886.0,33819371421864.64,103546066668742.22,3014573616305350.0,1.0182379279143867e+17
31.223230591261704,6943062927297311.0,1.1890828993673368e+17,1782479492748006.8,2679508096609961.5,34633283188584.89,106038906431651.27,3087152252528639.5,1.0427541497792952e+17
31.947695203086937,6948359135315868.0,1.214948681170144e+17,1783839178354930.8,2681552041254960.5,35463408935334.08,108581447533353.36,3161178028486999.0,1.067758948771329e+17
32.686649107148675,6953534038947453.0,1.2413261324822522e+17,1785167721712967.5,2683549171378010.5,36310068919649.75,111174673344748.38,3236679579741515.0,1.0932619799418101e+17
33.44038208929165,6958591508172973.0,1.2682254694176035e+17,1786466116355076.8,2685500980505371.5,37173589763549.67,113819586846015.33,3313686113009253.5,1.1192730904710813e+17
34.20918973107749,6963535290213890.0,1.2956571079466582e+17,1787735324298409.5,2687408914787231.5,38054304574423.05,116517211001860.72,3392227417098294.0,1.145802323326917e+17
34.993373525699035,6968369014579430.0,1.3236316678260944e+17,1788976277340067.2,2689274374945568.0,38952553068279.51,119268589144198.78,3472333874059646.5,1.1728599209947234e+17
35.793240996213015,6973096197881168.0,1.3521599765999258e+17,1790189878293175.5,2691098718132246.5,39868681695395.5,122074785362386.28,3554036470559540.0,1.200456329280688e+17
36.60910581613728,6977720248428061.0,1.3812530736733792e+17,1791377002166498.0,2692883259702312.5,40803043768393.22,124936884901127.86,3637366809475486.0,1.2286022011889611e+17
37.44128793246003,6982244470613414.0,1.4109222144609138e+17,1792538497290748.2,2694629274907076.0,41755999592788.4,127855994566177.25,3722357121719690.0,1.2573084008740146e+17
38.29011369110923,6986672069105347.0,1.441178874609786e+17,1793675186394381.0,2696338000511290.0,42727916600044.8,130833243137952.66,3809040278293526.5,1.2865860076693594e+17
39.15591596493141,6991006152851046.0,1.472034754300538e+17,1794787867631589.8,2698010636338539.0,43719169483174.516,133869781793201.33,3897449802576680.0,1.3164463201937947e+17
40.03903428423004,6995249738904905.0,1.5035017826258323e+17,1795877315565098.8,2699648346748569.0,44730140334922.34,136966784534837.72,3987619882854903.0,1.3469008605364e+17
40.93981496991464,6999405756089560.0,1.535592122049074e+17,1796944282106060.2,2701252262050207.0,45761218788574.1,140125448630088.25,4079585385090121.0,1.3779613785215262e+17
41.85861126931294,7003477048498838.0,1.5683181729442128e+17,1797989497413373.2,2702823479853230.5,46812802161429.05,143346995057079.8,4173381865936898.5,1.4096398560550086e+17
42.7957834946992,7007466378850763.0,1.6016925782182736e+17,1799013670754463.0,2704363066362372.0,47885295600979.836,146632668960005.22,4269045586009281.0,1.4419485115528938e+17
