t(s),Total solute volume 1,Total retention volume 1,Total 1 volume 1,Total 2 volume 1,Total 3 volume 1,Total 4 volume 1,Total 5 volume 1,Total 6 volume 1
0.1,1277535415264620.8,2216485712870468.2,368078767489456.25,570871530116391.1,0.0,0.0,0.0,3.710125213445117e-74
0.202,1914885892861366.2,3341064490027521.0,551709835835765.6,855674091769918.5,5240697664.904414,16829181256.668715,525603127876.55963,18246996553673.25
0.30604000000000003,2396309935735247.0,4205171090213647.0,690415950671610.9,1070800280114801.0,13247572612.502563,42541489791.76751,1328970707268.5557,46260163922316.414
0.41216080000000005,2799540109198096.5,4941548014148768.0,806593136554032.5,1250985232946380.2,23447814132.66359,75297371848.7117,2352484190576.889,81978306073697.42
0.5204040160000001,3154009045972949.5,5600296001787523.0,908721415198514.4,1409381038897294.8,35576439951.70753,114245884010.57211,3569535265439.985,124465144129360.11
0.6308120963200001,3474435601843105.5,6206405406092034.0,1001041528982287.9,1552564876023253.0,49482662078.83883,158902802127.81882,4964987338576.641,173190026440599.3
0.7434283382464002,3769393288863473.5,6774409576589777.0,1086023646510434.0,1684367851360166.5,65072095586.161644,208965030861.43018,6529367182328.583,227821385546929.0
0.8582969050113283,4044381873198617.0,7313627071721358.0,1165252340073412.5,1807247556625669.5,82282915068.63976,264234033842.3283,8256470220041.845,288142314654713.1
0.9754628431115548,4303172690814234.0,7830452877440948.0,1239814193040421.8,1922889227809252.5,101074056639.35849,324577946444.6889,10142175930560.027,354008937843386.06
1.094972099973786,4548481479783173.0,8329501935923634.0,1310491653818480.2,2032506402906577.2,121418651811.381,389910489919.83746,12183788663308.438,425327281610365.44
1.2168715419732616,4782338391630743.0,8814236721171501.0,1377869642153921.8,2137006262922842.8,143300057911.1799,460178223836.92804,14379639158994.053,502039307023249.56
1.3412089728127268,5006306561778611.0,9287337211180958.0,1442398522840692.5,2237087300920287.0,166709305913.13293,535352350311.51324,16728828370459.633,584113935614692.8
1.4680331522689813,5221618653937407.0,9750931560469402.0,1504433446385854.5,2333300337406579.5,191643379592.73746,615423187857.1797,19231054736316.52,671541001435798.9
1.597393815314361,5429266091656353.0,1.0206746554296166e+16,1564260058073647.5,2426088393796494.0,218104010403.5387,700396301384.561,21886493223225.805,764327017234667.2
1.729341691620648,5630059573136430.0,1.065620945210652e+16,1622111933269642.8,2515813733689015.5,246096807085.03162,790289707123.4203,24695707967314.055,862492117529919.9
1.863928525453061,5824671405715095.0,1.110051910476969e+16,1678182774675860.2,2602776780194566.5,275630610767.04114,885131801682.2549,27659587549438.793,966067794222292.5
2.001207095962122,6013665914681641.0,1.1540696948201454e+16,1732635173606160.5,2687229704231053.0,306717006801.0075,984959794405.1954,30779296001272.484,1075095182880123.6
2.1412312378813647,6197521788542556.0,1.1977624411621846e+16,1785607048021419.2,2769386409591430.5,339369948457.3977,1089818498964.7283,34056235039259.402,1189623741979755.8
2.284055862638992,6376648827418820.0,1.2412070910890136e+16,1837216468015798.2,2849430017029397.0,373605462323.7019,1199759387319.545,37492014498623.17,1309710219077841.0
2.4297369798917723,6551400716820280.0,1.2844715166118212e+16,1887565336149349.0,2927518572269483.0,409441414580.335,1314839839169.7625,41088428877424.08,1435417830747927.5
2.578331719489608,6722084921395218.0,1.3276161689456274e+16,1936742237998530.8,3003789467066977.0,446897323448.59283,1435122539684.529,44847438514643.484,1566815604617765.2
2.7298983538794,6888970454143110.0,1.370695371546925e+16,1984824680593045.5,3078362910910475.0,485994207213.5992,1560674991471.8591,48771154338689.24,1703977846285249.2
2.884496320956988,7052294053139995.0,1.413758346908033e+16,2031880872031083.0,3151344691115300.0,526754460048.58215,1691569115827.022,52861825406102.2,1846983703811967.0
3.0421862473761276,7212265147294751.0,1.4568500412052092e+16,2077971152194647.0,3222828391790713.5,569201749846.3588,1827880924653.0708,57121828648936.83,1995916809448552.5
3.2030299723236504,7369069889198786.0,1.50001179345969e+16,2123149154679312.0,3292897195934304.5,613360933677.3557,1969690248985.6807,61553660391146.734,2150864983210696.5
3.3670905717701234,7522874460737884.0,1.5432818836815188e+16,2167462759194818.8,3361625362557253.0,659257987519.0278,2117080513348.1938,66159929297246.14,2311919986527141.5
3.5344323832055258,7673827805641489.0,1.5866959858054398e+16,2210954878857118.0,3429079447734494.0,706919947657.0162,2270138547588.478,70943350492335.28,2479177316833715.5
3.7051210308696363,7822063905970121.0,1.6302875449821434e+16,2253664116081472.0,3495319321861860.5,756374861722.1444,2428954429659.807,75906740649164.47,2652736035967432.5
3.879223451487029,7967703692333360.0,1.6740880942218192e+16,2295625312947381.0,3560399023244247.0,807651747753.4952,2593621354176.4224,81053013880677.33,2832698626710583.5
4.0568079205167695,8110856657467944.0,1.7181275220064066e+16,2336870016096760.5,3624367479129238.5,860780560003.3818,2764235522619.809,86385178309157.94,3019170872978351.5
4.237944078927105,8251622227689049.0,1.7624342999552014e+16,2377426871871396.0,3687269118545294.0,915792160451.5549,2940896051879.619,91906333208336.64,3212261760025590.5
4.422702960505647,8390090935273044.0,1.807035677711967e+16,2417321964095518.5,3749144396185573.5,972718295191.9396,3123704898442.4,97619666634491.81,3412083391737397.5
4.61115701971576,8526345426063963.0,1.8519578507566044e+16,2456579104383664.0,3810030242660642.0,1031591575009.504,3312766796036.619,103528453478057.7,3618750922608686.0
4.803380160110075,8660461329824401.0,1.897226105713728e+16,2495220082902920.0,3869960453418168.5,1092445459587.0936,3508189204935.3413,109636053879526.5,3832382502447740.0
4.9994477633122765,8792508015576612.0,1.94286494685068e+16,2533264885999066.5,3928966026269970.0,1155314244879.8357,3710082271431.6104,115945911963238.67,4053099232181611.5
5.199436718578522,8922549250036540.0,1.988898206767185e+16,2570731885902098.5,3987075455615787.0,1220233053273.4246,3918558796254.41,122461554850556.02,4281025129417353.0
5.403425452950093,9050643773965026.0,2.0353491437329916e+16,2607638006782430.5,4044314989988048.5,1287237826206.3184,4133734210897.7876,129186591920310.23,4516287102636932.0
5.611493962009095,9176845808648016.0,2.082240527695424e+16,2643998870676067.0,4100708858374397.0,1356365318987.8645,4355726561002.5664,136124714289633.44,4759014933086119.0
5.823723841249277,9301205502620736.0,2.1295947166305476e+16,2679828926193183.5,4156279469838268.5,1427653097587.0505,4584656496067.187,143279694492561.8,5009341263567074.0
6.040198318074262,9423769327060452.0,2.1774337246306704e+16,2715141562437156.0,4211047590201524.0,1501139537201.6895,4820647264876.906,150655386337326.22,5267401593468153.0
6.261002284435747,9544580426896512.0,2.2257792828931936e+16,2749949210165125.0,4265032498939328.5,1576863822446.991,5063824716134.266,158255724926175.38,5533334279466259.0
6.486222330124463,9663678933564956.0,2.2746528945898036e+16,2784263431897692.5,4318252128935836.5,1654865949026.8145,5314317303851.909,166084726824002.97,5807280541422666.0
6.715946776726952,9781102244414334.0,2.3240758844424324e+16,2818095002420266.0,4370723191337649.0,1735186726771.0256,5572256097133.397,174146490364101.28,6089384473064088.0
6.950265712261491,9896885273008020.0,2.3740694437069844e+16,2851453980899279.5,4422461287402440.5,1817867783939.7148,5837774794023.234,182445196081060.47,6379793057101106.0
7.18927102650672,1.0011060673939322e+16,2.4246546711612972e+16,2884349775655045.0,4473481008958391.0,1902951572709.1038,6111009739152.826,190985107262289.75,6678656184486068.0
7.433056447036854,1.0123659045250014e+16,2.4758526106074876e+16,2916791202481886.0,4523796028855743.0,1990481375766.3674,6392099944948.762,199770570610848.9,6986126677555638.0
7.681717575977592,1.0234709111104856e+16,2.5276842853262868e+16,2948786537279572.0,4573419182595560.0,2080501313950.897,6681187116202.435,208806017013323.3,7302360316839414.0
7.935351927497144,1.0344237887005064e+16,2.5801707298602028e+16,2980343563654093.0,4622362542156073.0,2173056354888.1892,6978415677828.935,218095962407352.28,7627515871346739.0
8.194058966047088,1.0452270829514254e+16,2.633333019451163e+16,3011469616056053.5,4670637482898155.0,2268192322570.332,7283932805666.694,227645008744189.75,7961755132170760.0
8.45794014536803,1.0558831972205868e+16,2.6871922974150564e+16,3042171618949443.5,4718254744314107.0,2365955907843.2666,7597888460190.703,237457845042301.3,8305242949270773.0
8.72709894827539,1.066394404931951e+16,2.741769800698769e+16,3072456122438955.5,4765224485283888.0,2466394679766.7544,7920435423029.392,247539248528590.25,8658147271313957.0
9.0016409272409,1.0767628608421856e+16,2.7970868838341636e+16,3102329334729475.5,4811556334418054.0,2569557097817.5127,8251729336190.938,257894085864285.03,9020639188474010.0
9.281673745785717,1.0869906113206166e+16,2.8531650414765296e+16,3131797151744326.5,4857259435994222.0,2675492524910.4253,8591928743917.936,268527314452975.72,9392892978098790.0
9.567307220701432,1.0970796037424776e+16,2.9100259296923116e+16,3160865184188637.5,4902342491930988.0,2784251241215.8857,8941195137100.63,279443983828607.72,9775086153171772.0
9.85865336511546,1.1070316950828278e+16,2.9676913861411524e+16,3189538782309964.5,4946813800190376.0,2895884458754.9263,9299693000189.164,290649237121580.4,1.0167399513502358e+16
10.155826432417769,1.1168486597883138e+16,3.026183449280301e+16,3217823058578021.0,4990681289952957.0,3010444336755.963,9667589860553.482,302148312601348.5,1.0570017199590238e+16
10.458942961066125,1.126532196994845e+16,3.085524376704813e+16,3245722908480031.0,5033952553870407.0,3127983997759.6387,10045056340247.615,313946545294167.3,1.0983126749117082e+16
10.768121820287448,1.1360839371516458e+16,3.145736662724196e+16,3273243029605651.0,5076634877665282.0,3248557544460.2485,10432266210141.02,326049368674822.0,1.1406919156025138e+16
11.083484256693197,1.1455054481052682e+16,3.206843055265143e+16,3300387939176055.5,5118735267317699.0,3372220077273.8726,10829396446385.549,338462316431374.4,1.184158893214997e+16
11.405153941827061,1.154798240691406e+16,3.2688665721804064e+16,3327161990154857.5,5160260474052539.0,3499027712625.053,11236627289192.143,351191024302091.3,1.22873341713787e+16
11.733257020663602,1.1639637738771414e+16,3.331830517035344e+16,3353569386063687.5,5201217017317804.0,3629037601945.099,11654142303894.615,364241231983875.56,1.2744356616310832e+16
12.067922161076874,1.1730034594917704e+16,3.3957584944364476e+16,3379614194612597.0,5241611205924523.0,3762307951376.34,12082128444283.105,377618785111638.9,1.3212861727402356e+16
12.409280604298411,1.1819186665804994e+16,3.460674424959654e+16,3405300360243661.5,5281449157501299.0,3898898042177.83,12520776118191.895,391329637308159.5,1.3693058754578064e+16
12.75746621638438,1.1907107254117052e+16,3.526602559730538e+16,3430631715676600.0,5320736816401066.0,4038868251828.645,12970279255330.387,405379852304051.1,1.418516081129949e+16
13.112615540712067,1.1993809311655574e+16,3.5935674947036236e+16,3455611992536293.5,5359479970183679.0,4182280075826.1294,13430835377347.58,419775606127575.94,1.468938495107995e+16
13.474867851526309,1.207930547328993e+16,3.6615941846834776e+16,3480244831134243.0,5397684264786638.0,4329196150176.793,13902645670124.402,434523189364081.2,1.5205952246439612e+16
13.844365208556836,1.2163608088197276e+16,3.730707957126545e+16,3504533789469368.5,5435355218484749.0,4479680274578.578,14385915058288.08,449629009484936.8,1.5735087870296282e+16
14.221252512727972,1.224672924859848e+16,3.80093452575911e+16,3528482351507310.5,5472498234730919.0,4633797436293.562,14880852281946.93,465099593245878.25,1.6277021179790254e+16
14.605677562982532,1.2328680816176792e+16,3.872300004043733e+16,3552093934792024.0,5509118613961423.0,4791613834710.703,15387669975644.266,480941589154737.8,1.6831985802541978e+16
14.997791114242183,1.2409474446349342e+16,3.944830918523967e+16,3575371897438896.0,5545221564441832.0,4953196906599.093,15906584749532.215,497161770008586.44,1.7400219725344946e+16
15.397746936527026,1.2489121610547446e+16,4.018554222074505e+16,3598319544553962.0,5580812212222839.0,5118615352051.889,16437817272767.455,513767035500347.56,1.798196538529557e+16
15.805701875257567,1.2567633616647306e+16,4.0934973070818376e+16,3620940134120352.5,5615895610269990.0,5287939161122.478,16981592359132.47,530764414895007.25,1.8577469763365532e+16
16.221815912762718,1.264502162768187e+16,4.1696880185789496e+16,3643236882389542.0,5650476746825074.0,5461239641153.816,17538139054886.824,548161069775552.7,1.9186984480421456e+16
16.64625223101797,1.2721296678954078e+16,4.247154667355103e+16,3665212968811885.5,5684560553053256.0,5638589444803.1455,18107690728854.89,565964296858843.4,1.981076589569921e+16
17.079177275638333,1.2796469693661334e+16,4.325926043061073e+16,3686871540538287.0,5718151910024917.0,5820062598763.903,18690485164756.242,584181530881612.9,2.0449075207741064e+16
17.5207608211511,1.2870551497133458e+16,4.406031427328423e+16,3708215716522456.5,5751255655077945.0,6005734533187.439,19286764655787.207,602820347556883.0,2.1102178557804544e+16
17.97117603757412,1.2943552829778276e+16,4.487500606919955e+16,3729248591250635.5,5783876587602549.0,6195682111807.461,19896776101463.273,621888466601043.6,2.1770347135753896e+16
18.430599558325603,1.301548435882211e+16,4.570363886928028e+16,3749973238124347.5,5816019474287533.0,6389983662769.881,20520771106730.78,641393754831951.8,2.2453857288444904e+16
18.899211549492115,1.3086356688926244e+16,4.65465210403582e+16,3770392712519065.5,5847689053864256.0,6588719010171.913,21159006083361.016,661344229338361.1,2.3152990630616736e+16
19.37719578048196,1.3156180371754704e+16,4.740396639856167e+16,3790510054540907.5,5878890041382140.0,6791969506314.056,21811742353637.32,681748060721092.9,2.3868034158302916e+16
19.864739696091597,1.322496591456347e+16,4.827629434361551e+16,3810328291501322.0,5909627132046677.0,6999818064668.537,22479246256348.863,702613576406333.1,2.4599280364776624e+16
20.36203449001343,1.3292723787876976e+16,4.916382999418222e+16,3829850440128802.0,5939905004649768.0,7212349193569.157,23161789255105.18,723949264031522.9,2.5347027359046456e+16
20.869275179813698,1.3359464432312746e+16,5.006690432436904e+16,3849079508535136.5,5969728324619340.0,7429649030626.599,23859648048985.77,745763774904265.6,2.611157898691799e+16
21.38666068340997,1.3425198264611682e+16,5.098585430151729e+16,3868018497952939.5,5999101746713971.0,7651805377874.64,24573104685542.055,768065927534812.4,2.689324495464046e+16
21.91439389707817,1.3489935682927974e+16,5.192102302538646e+16,3886670404259650.0,6028029917386769.0,7878907737651.858,25302446676167.54,790864711242613.6,2.769234095515557e+16
22.452681775019734,1.355368707142884e+16,5.287275986884288e+16,3905038219302869.0,6056517476840710.0,8111047349225.081,26047967113854.133,814169289837517.0,2.8509188796969836e+16
23.00173541052013,1.3616462804251792e+16,5.384142062015488e+16,3923124932040432.0,6084569060796988.0,8348317226159.892,26809964793355.383,837989005376206.4,2.9344116535669932e+16
23.561770118730532,1.3678273248863684e+16,5.4827367626995256e+16,3940933529508308.0,6112189301996053.0,8590812194444.563,27588744333774.35,862333381994519.6,3.0197458608104496e+16
24.133005521105144,1.373912876886448e+16,5.583096994224951e+16,3958466997628309.0,6139382831450418.0,8838628931374.234,28384616303599.44,887212129816300.8,3.1069555969254944e+16
24.715665631527248,1.3799039726274426e+16,5.685260347172023e+16,3975728321867152.5,6166154279466800.0,9091866005201.643,29197897348208.668,912635148939484.5,3.1960756231818904e+16
25.309978944157795,1.3858016483342954e+16,5.789265112382418e+16,3992720487757571.5,6192508276454290.0,9350623915562.25,30028910319868.375,938612533500156.1,3.287141380853374e+16
25.91617852304095,1.3916069403914276e+16,5.8951502961365976e+16,4009446481291774.5,6218449453534713.0,9615005134680.62,30877984410247.22,965154575815348.2,3.3801890057264916e+16
26.53450209350177,1.3973208854383234e+16,6.00295563554793e+16,4025909289196874.0,6243982442969651.0,9885114149366.836,31745455285475.57,992271770605383.5,3.4752553428889216e+16
27.165192135371807,1.4029445204273144e+16,6.112721614181737e+16,4042111899101340.5,6269111878418720.0,10161057503810.512,32631665223773.555,1019974819296604.0,3.5723779617999876e+16
27.808495978079243,1.4084788826465496e+16,6.22448947790802e+16,4058057299601216.0,6293842395042197.0,10442943843181.535,33536963255678.51,1048274634405383.0,3.671595171646715e+16
28.464665897640828,1.4139250097110078e+16,6.338301250995727e+16,4073748480234165.0,6318178629460832.0,10730883958046.416,34461705306899.594,1077182344004323.6,3.772946036988296e+16
29.133959215593645,1.4192839395241938e+16,6.4541997524567464e+16,4089188431369180.0,6342125219584756.0,11024990829609.53,35406254343831.266,1106709296271604.9,3.8764703936926536e+16
29.816638399905518,1.4245567102131362e+16,6.572228612647758e+16,4104380144019221.0,6365686804322876.0,11325379675789.867,36370980521757.59,1136867064124484.5,3.982208865168212e+16
30.51297116790363,1.4297443600389694e+16,6.692432290137637e+16,4119326609583682.0,6388868023183522.0,11632167998142.31,37356261335779.84,1167667449938002.5,4.090202878894749e+16
31.223230591261704,1.4348479272855402e+16,6.81485608884833e+16,4134030819527406.5,6411673515776471.0,11945475629635.182,38362481774502.664,1199122490349952.5,4.20049468325701e+16
31.947695203086937,1.4398684501280496e+16,6.939546175476999e+16,4148495765002178.5,6434107921226100.0,12265424783294.53,39390034476514.11,1231244461153251.8,4.313127364684813e+16
32.686649107148675,1.4448069664838794e+16,7.066549597206876e+16,4162724436416970.0,6456175877504691.0,12592140101726.855,40439319889699.016,1264045882276879.0,4.428144865103998e+16
33.44038208929165,1.449664513847421e+16,7.19591429971488e+16,4176719822962087.5,6477882020694535.0,12925748707532.195,41510746433419.97,1297539522856568.5,4.54559199970204e+16
34.20918973107749,1.4544421291108772e+16,7.3276891454833e+16,4190484912092821.0,6499230984186968.0,13266380254619.53,42604730663610.234,1331738406396564.0,4.66551447501297e+16
34.993373525699035,1.459140848372624e+16,7.461923932423285e+16,4204022688977313.0,6520227397826170.0,13614166980437.771,43721697440818.195,1366655816023636.5,4.787958907325829e+16
35.793240996213015,1.4637617067348256e+16,7.598669412817627e+16,4217336135913489.5,6540875887004743.0,13969243759135.207,44862080101244.99,1402305299834798.2,4.912972841421487e+16
36.60910581613728,1.4683057380918526e+16,7.73797731259068e+16,4230428231719409.5,6561181071718277.0,14331748155660.92,46026320630821.836,1438700676340024.5,5.040604769642397e+16
37.44128793246003,1.472773974910907e+16,7.879900350912454e+16,4243301951101228.0,6581147565585015.0,14701820480822.277,47214869842370.61,1475856040001439.5,5.17090415130047e+16
38.29011369110923,1.4771674480062264e+16,8.024492260145282e+16,4255960264002663.0,6600779974836966.0,15079603847313.22,48428187555895.945,1513785766870445.8,5.303921432427718e+16
39.15591596493141,1.4814871863081806e+16,8.171807806139832e+16,4268406134939714.0,6620082897287988.0,15465244226727.752,49666742782055.78,1552504520324240.2,5.439708065875577e+16
40.03903428423004,1.4857342166284282e+16,8.321902808888717e+16,4280642522323998.5,6639060921284485.0,15858890507574.283,50931013908862.4,1592027256903390.5,5.578316531767451e+16
40.93981496991464,1.4899095634222484e+16,8.474834163544898e+16,4292672377778067.0,6657718624643319.0,16260694554306.271,52221488891661.875,1632369232251942.2,5.719800358310721e+16
41.85861126931294,1.4940142485491742e+16,8.630659861812989e+16,4304498645445685.0,6676060573582195.0,16670811267385.916,53538665446447.99,1673546007161809.8,5.864214142973466e+16
