t(s),Total solute volume 1,Total retention volume 1,Total 1 volume 1,Total 2 volume 1,Total 3 volume 1,Total 4 volume 1,Total 5 volume 1,Total 6 volume 1
0.1,1063829490026819.8,1368988609462191.8,135960145783138.03,169198973652234.8,0.0,0.0,0.0,0.0
0.202,1602196919018368.5,2061813567974348.5,204764889242876.94,254824745826307.6,23372907.645332877,53496260.78023185,1008690077.1696299,25928327551.2728
0.30604000000000003,2012368816295408.0,2589684665061278.5,257185913341809.4,320061390066075.2,59299196.88843015,135724962.70172644,2559177680.7168474,65791156147.24088
0.41216080000000005,2359333648977113.5,3036229454788440.0,301528911869507.2,375245134761558.1,105329560.50675356,241080058.04498428,4545739852.969233,116867030785.98438
0.5204040160000001,2667468594601694.5,3432816442490014.5,340909350889882.8,424253099104503.7,160376754.78231177,367073040.2091744,6921451287.061961,177948992850.42456
0.6308120963200001,2948923171063414.0,3795079556908041.5,376879970065510.6,469017628526583.2,223857719.79941106,512369390.12388843,9661147618.058975,248389877807.36987
0.7434283382464002,3210759772920070.5,4132106652787057.5,410343361598682.6,510661976298403.9,295439262.4274649,676206488.985553,12750448590.65496,327819875555.3557
0.8582969050113283,3457502994141871.0,4449719985142813.5,441877780243812.2,549905765899823.7,374933559.2479739,858154443.061372,16181247950.677004,416030521346.4347
0.9754628431115548,3692253486832876.0,4751909518442031.0,471879497319698.94,587242147006779.9,462246670.80818754,1057998242.0532422,19949491350.58874,512917546413.84595
1.094972099973786,3917243982418392.0,5041548409309384.0,500633861648570.4,623026229041360.0,557350030.3269428,1275672501.8812125,24053945829.501793,618449232692.8807
1.2168715419732616,4134144563292224.5,5320785825434179.0,528354314058343.94,657523633737661.9,660263312.9646273,1511222255.5357635,28495460471.18343,732647399909.8334
1.3412089728127268,4344242719957229.5,5591278639404349.0,555205399148636.25,690939132705147.2,771043507.7028904,1764777940.5871606,33276494760.932964,855575277121.4022
1.4680331522689813,4548555676464077.0,5854335966223908.0,581317120770921.6,723434512462193.1,889777622.383604,2036538702.3408084,38400803745.50982,987329406639.6377
1.597393815314361,4747903695364639.0,6111013489936158.0,606794310590245.2,755140233375208.8,1016577640.609675,2326760851.097649,43873220380.56513,1128034047192.8066
1.729341691620648,4942959726043892.0,6362177349420773.0,631722973269804.2,786163326081037.1,1151576939.6070776,2635749663.2905445,49699500931.15561,1277837198505.1953
1.863928525453061,5134284092563924.0,6608548773430362.0,656174719666693.8,816592908487389.1,1294927692.478575,2963853435.71505,55886212857.17369,1436907718367.151
2.001207095962122,5322349378250275.0,6850736101100165.0,680209947146086.2,846504143593745.8,1446798955.3061166,3311459107.254928,62440652255.81245,1605433199749.26
2.1412312378813647,5507558688549496.0,7089258281854636.0,703880173621409.6,875961144145578.5,1607375244.0264301,3678989001.609609,69370782441.87206,1783618391460.3625
2.284055862638992,5690259322339702.0,7324562467098054.0,727229784783032.6,905019147016409.9,1776855470.1368368,4066898391.3191724,76685188014.60487,1971684017027.3625
2.4297369798917723,5870753185711285.0,7557037410264843.0,750297365006245.0,933726169489290.8,1955452145.0155602,4475673676.599173,84393040517.51852,2169865891675.0037
2.578331719489608,6049304847576928.0,7787023832495522.0,773116726878930.8,962124290478057.4,2143390789.275193,4905831033.459262,92504072947.06812,2378414266843.7334
2.7298983538794,6226147857333469.0,8014822552019100.0,795717718615026.0,990250655333027.0,2340909501.44039,5357915426.486078,101028561137.50945,2597593351518.4253
2.884496320956988,6401489761013092.0,8240700938832256.0,818126865131544.1,1018138273645219.0,2548258652.5095434,5832499909.751757,109977310578.69016,2827680973256.8716
3.0421862473761276,6575516128634566.0,8464898097058600.0,840367882754434.0,1045816659784818.2,2765700681.5546684,6330185158.980797,119361647594.47261,3068968351344.859
3.2030299723236504,6748393820491573.0,8687629068029554.0,862462096658630.9,1073312352394817.0,2993509973.6448913,6851599192.140571,129193414074.09698,3321759961308.898
3.3670905717701234,6920273660696135.0,8909088270670352.0,884428782553781.6,1100649339610282.4,3231972805.8250103,7397397245.7977,139484965140.68192,3586373474952.184
3.5344323832055258,7091292644060027.0,9129452341427952.0,906285448729373.9,1127849410056417.8,3481387350.1535316,7968261782.073422,150249169282.31067,3863139763711.048
3.7051210308696363,7261575771926110.0,9348882496769726.0,928048070678702.5,1154932444832177.5,3742063725.246808,8564902606.620444,161499410576.54968,4152402955839.943
3.879223451487029,7431237590275484.0,9567526512603992.0,949731287672931.8,1181916662141730.0,4014324089.621155,9188057082.268162,173249592718.8973,4454520539980.614
4.0568079205167695,7600383486932020.0,9785520393737300.0,971348568547158.5,1208818823611052.0,4298502771.535755,9838490426.211393,185514144626.5334,4769863509236.734
4.237944078927105,7769110792319187.0,1.0002989790570274e+16,992912352379966.4,1235654409360087.5,4594946431.128843,10516996081.112877,198308027435.79477,5098816541084.991
4.422702960505647,7937509718860305.0,1.0220051208185692e+16,1014434168551214.9,1262437767411611.2,4904014251.49087,11224396152.437122,211646742748.51312,5441778209397.713
4.61115701971576,8105664166951691.0,1.0436813043765734e+16,1035924739747461.0,1289182241878929.0,5226078155.988488,11961541905.868107,225546342011.29016,5799161225596.333
4.803380160110075,8273652419908765.0,1.0653376481162524e+16,1057394070777872.1,1315900283495004.2,5561523049.686292,12729314319.882235,240023436934.79276,6171392706546.263
4.9994477633122765,8441547745981725.0,1.0869836265906324e+16,1078851525513366.6,1342603545361306.2,5910747083.141036,13528624689.5278,255095210878.5948,6558914467278.333
5.199436718578522,8609418922157673.0,1.108628137958996e+16,1100305893829897.5,1369302966257024.5,6274161937.188008,14360415278.25238,270779431142.0127,6962183337005.474
5.403425452950093,8777330691795428.0,1.1302795629127754e+16,1121765450095325.2,1396008843424518.5,6652193127.6217165,15225660015.264215,287094462113.5307,7381671497215.81
5.611493962009095,8945344166009976.0,1.1519458163651432e+16,1143238004467410.0,1422730896408365.5,7045280328.9037695,16125365236.443775,304059279241.4165,7817866840880.292
5.823723841249277,9113517177017818.0,1.1736343929607992e+16,1164730948052253.0,1449478323253906.0,7453877716.222693,17060570467.260052,321693483796.36426,8271273352025.127
6.040198318074262,9281904590277828.0,1.1953524072853904e+16,1186251292796679.8,1476259850152333.8,7878454325.389983,18032349246.510475,340017318403.92816,8742411505097.213
6.261002284435747,9450558581144066.0,1.2171066295102262e+16,1207805706845219.2,1503083775441522.8,8319494430.191127,19041809990.012318,359051683330.26385,9231818683698.768
6.486222330124463,9619528880835950.0,1.238903517090522e+16,1229400545975676.2,1529958008726851.0,8777497936.923452,20090096893.6322,378818153509.64374,9740049618394.299
6.715946776726952,9788862995781334.0,1.2607492430391602e+16,1251041881631799.2,1556890105767100.0,9252980795.950268,21178390875.26263,399338996306.3499,10267676843400.271
6.950265712261491,9958606403772626.0,1.282649721218563e+16,1272735525992485.0,1583887299672493.5,9746475430.183771,22307910555.545567,420637190007.1776,10815291172059.982
7.18927102650672,1.0128802729862178e+16,1.3046106290272824e+16,1294487054451693.8,1610956528880361.8,10258531180.481337,23479913277.308323,442736443043.91876,11383502191087.646
7.433056447036854,1.0299493904500004e+16,1.3266374278033814e+16,1316301825828829.5,1638104462306456.2,10789714768.003485,24695696163.821365,465661213947.8478,11972938773634.023
7.681717575977592,1.047072030605804e+16,1.3487353812206212e+16,1338185000583751.8,1665337522013062.8,11340610773.637026,25956597216.115795,489436732040.7306,12584249611289.273
7.935351927497144,1.0642520889588996e+16,1.3709095719151724e+16,1360141557272428.8,1692661903687683.5,11911822134.636559,27263996449.710705,514089018868.9425,13218103765192.535
8.194058966047088,1.0814933303413364e+16,1.393164916548097e+16,1382176307447122.0,1720083595185876.8,12503970658.681866,28619317071.202614,539644910389.2266,13875191236467.818
8.45794014536803,1.098799399491713e+16,1.4155061794813184e+16,1404293909177538.5,1747608393358063.0,13117697555.588728,30024026695.26058,566132079916.3445,14556223556249.393
8.72709894827539,1.116173830675974e+16,1.4379379852217468e+16,1426498879346515.5,1775241919351145.0,13753663986.947308,31479638602.654675,593579061844.449,15261934395601.51
9.0016409272409,1.1336200564539422e+16,1.4604648297681172e+16,1448795604853834.5,1802989632551385.8,14412551633.9963,32987713040.02302,622015276155.4784,15993080195673.166
9.281673745785717,1.1511414156829712e+16,1.483091090978286e+16,1471188352845118.8,1830856843314017.5,15095063284.070913,34549858562.15169,651471053729.1823,16750440818465.059
9.567307220701432,1.1687411608388768e+16,1.5058210380601844e+16,1493681280068169.8,1858848724606955.0,15801923435.994165,36167733417.61192,681977662470.6737,17534820218616.627
9.85865336511546,1.1864224647245532e+16,1.5286588402769736e+16,1516278441446723.5,1886970322680651.5,16533878924.806173,37843046978.6598,713567334272.6276,18347047136652.7
10.155826432417769,1.2041884266282394e+16,1.5516085749463724e+16,1538983797950911.5,1915226566862659.2,17291699566.253925,39577561216.36403,746273292830.2585,19187975814157.695
10.458942961066125,1.2220420779862468e+16,1.574674234804561e+16,1561801223834359.2,1943622278563994.0,18076178821.48828,41373092221.98436,780129782328.4493,20058486731373.6
10.768121820287448,1.2399863875985382e+16,1.5978597347970578e+16,1584734513299801.2,1972162179574396.5,18888134482.43944,43231511775.68089,815172097021.2981,20959487367744.32
11.083484256693197,1.2580242664401226e+16,1.6211689183520174e+16,1607787386648229.5,2000850899714726.0,19728409378.364822,45154748963.682434,851436611725.4542,21891912985955.26
11.405153941827061,1.276158572106519e+16,1.6446055631849988e+16,1630963495960246.8,2029692983907285.8,20597872104.08795,47144791845.10257,888960813249.5961,22856727440041.816
11.733257020663602,1.2943921129272036e+16,1.6681733866791306e+16,1654266430353186.2,2058692898718201.2,21497417770.466187,49203689169.634575,927783332783.267,23854924008166.47
12.067922161076874,1.3127276517774308e+16,1.6918760508797868e+16,1677699720852735.2,2087855038419973.8,22427968777.651207,51333552147.41368,967943979269.4054,24887526250686.875
12.409280604298411,1.3311679096155748e+16,1.7157171671386846e+16,1701266844913720.5,2117183730617531.8,23390475611.72359,53536556272.38183,1009483773785.6963,25955588894163.832
12.75746621638438,1.3497155677432284e+16,1.7397003004740984e+16,1724971229317240.5,2146683239886509.8,24385917653.31694,55814943287.01177,1052445045290.97,27060212198712.13
13.112615540712067,1.3683732749702368e+16,1.7638289734963964e+16,1748816259293088.8,2176357778994290.8,25415304070.427216,58171022773.07683,1096871227348.3662,28202489420010.223
13.474867851526309,1.3871436443058816e+16,1.7881066702875492e+16,1772805274343060.2,2206211503899692.2,26479674618.041603,60607174656.60094,1142807253023.5105,29383587471629.934
13.844365208556836,1.4060292597246964e+16,1.8125368398876804e+16,1796941576853104.8,2236248524338829.2,27580100581.458916,63125850919.98426,1190299356859.6377,30604695129547.586
14.221252512727972,1.425032677622632e+16,1.8371228995979268e+16,1821228433963036.8,2266472906184894.0,28717685687.660954,65729577799.02739,1239395173520.6238,31867037167999.5
14.605677562982532,1.4441564291397272e+16,1.8618682380793844e+16,1845669080534960.0,2296888675142295.5,29893567055.66961,68420957958.141945,1290143778807.591,33171875415506.402
14.997791114242183,1.4634030223350326e+16,1.886776218265044e+16,1870266721932885.2,2327499820205784.0,31108916174.976864,71202672729.81389,1342595731886.1746,34520509840615.402
15.397746936527026,1.4827749442254386e+16,1.911850180099874e+16,1895024536628404.2,2358310296903204.5,32364939912.802185,74077484420.05185,1396803118758.0693,35914279669633.06
15.805701875257567,1.5022746626991584e+16,1.9370934431231e+16,1919945678646161.5,2389324030338763.5,33662881550.961845,77048238681.60722,1452819597010.496,37354564537216.28
16.221815912762718,1.5219046283135066e+16,1.9625093089050292e+16,1945033279861456.2,2420544918052373.5,35004021853.15238,80117866956.81322,1510700441878.3623,38842785670716.01
16.64625223101797,1.5416672759858202e+16,1.9881010633500616e+16,1970290452161331.0,2451976832709071.5,36389680163.47878,83289388991.93417,1570502593654.8335,40380407109189.56
17.079177275638333,1.5615650265856552e+16,2.013871978876267e+16,1995720289479358.5,2483623624631251.0,37821215537.0772,86565915424.97752,1632284706487.139,41968936958031.55
17.5207608211511,1.581600288435428e+16,2.0398253164810464e+16,2021325869713572.2,2515489124185484.5,39300027903.7108,89950650448.97328,1696107198595.391,43609928680191.42
17.97117603757412,1.6017754587263528e+16,2.0659643277016756e+16,2047110256536030.0,2547577144034459.5,40827559265.23682,93446894552.78294,1762032303953.2576,45304982424979.48
18.430599558325603,1.6220929248556884e+16,2.09229225647859e+16,2073076501101870.8,2579891481263898.5,42405294927.87309,97058047341.55598,1830124125470.5415,47055746395488.64
18.899211549492115,1.6425550656909858e+16,2.1188123409288756e+16,2099227643665035.5,2612435919393241.5,44034764770.21337,100787610439.01349,1900448689718.6262,48863918255687.25
19.37719578048196,1.663164252766372e+16,2.1455278150365756e+16,2125566715107182.0,2645214230278347.0,45717544547.97028,104639190473.792,1973074003241.0234,50731246578265.84
19.864739696091597,1.6839228514156528e+16,2.172441910266019e+16,2152096738385774.2,2678230175913657.5,47455257236.446915,108616502152.14757,2048070110492.281,52659532334354.44
20.36203449001343,1.704833221846519e+16,2.1995578571038332e+16,2178820729906983.0,2711487510140643.5,49249574411.77167,112723371419.37791,2125509153449.782,54650630426250.945
20.869275179813698,1.7258977201598244e+16,2.2268788865349228e+16,2205741700828335.0,2744989980269007.0,51102217671.94984,116963738712.3828,2205465432944.0703,56706451264337.016
21.38666068340997,1.7471186993176018e+16,2.2544082314571604e+16,2232862658295853.8,2778741328616217.5,53014960098.819954,121341662305.85129,2288015471754.5703,58828962389384.38
21.91439389707817,1.7684985100631494e+16,2.282149128039294e+16,2260186606619981.0,2812745293970940.0,54989627762.031075,125861321754.62228,2373238079518.7466,61020190141489.24
22.452681775019734,1.7900395017963164e+16,2.3101048170261524e+16,2287716548394172.5,2847005612985105.5,57028101266.17964,130527021434.83815,2461214419504.19,63282221376903.49
23.00173541052013,1.811744023406816e+16,2.338278544995031e+16,2315455485559943.5,2881526021499289.5,59132317342.2837,135343194186.5772,2552028077294.045,65617205234063.52
23.561770118730532,1.8336144240682108e+16,2.366673565566637e+16,2343406420421546.5,2916310255805522.5,61304270484.795944,140314405060.71786,2645765131437.969,68027354950152.99
24.133005521105144,1.855653053995004e+16,2.3952931405740564e+16,2371572356613609.5,2951362053851428.0,63546014635.38777,145445355172.85745,2742514226121.617,70514949729566.39
24.715665631527248,1.8778622651650756e+16,2.424140541192648e+16,2399956300024387.0,2986685156389218.0,65859664914.77266,150740885667.18112,2842366645909.4634,73082336665680.03
25.309978944157795,1.9002444120095396e+16,2.453219049033689e+16,2428561259677423.5,3022283308072913.5,68247399403.86482,156205981793.26248,2945416392616.8223,75731932717366.8
25.91617852304095,1.9228018520719824e+16,2.482531957204495e+16,2457390248574116.0,3058160258506826.5,70711460975.60152,161845777098.81195,3051760264368.5225,78466226741731.25
26.53450209350177,1.9455369466388004e+16,2.5120825713373816e+16,2486446284499232.5,3094319763248109.5,73254159178.79558,167665557741.53146,3161497936903.056,81287781584576.56
27.165192135371807,1.9684520613423564e+16,2.541874210589783e+16,2515732390791803.5,3130765584766021.0,75877872175.41055,173670766923.23126,3274732047182.4214,84199236230151.62
27.808495978079243,1.9915495667383948e+16,2.5719102086176676e+16,2545251597083083.5,3167501493360328.0,78585048732.69211,179867009449.52002,3391568279369.4893,87203308011765.28
28.464665897640828,2.0148318388592332e+16,2.6021939145241844e+16,2575006940003532.0,3204531268041144.5,81378210271.62396,186260056418.3982,3512115453236.147,90302794884893.86
29.133959215593645,2.038301259743999e+16,2.6327286937855144e+16,2605001463860433.0,3241858697372219.0,84259952973.20312,192855850041.20807,3636485615066.985,93500577764444.06
29.816638399905518,2.061960217947079e+16,2.6635179291555764e+16,2635238221287780.0,3279487580279642.0,87232949944.08109,199660508599.4511,3764794131124.9424,96799622927878.92
30.51297116790363,2.0858111090260268e+16,2.6945650215512492e+16,2665720273869755.5,3317421726827820.5,90299953443.13794,206680331541.08688,3897159783746.8223,100202984485946.9
31.223230591261704,2.1098563360098384e+16,2.725873390919683e+16,2696450692739283.5,3355664958964298.5,93463797170.60849,213921804719.9883,4033704870138.2974,103713806922804.84
31.947695203086937,2.1340983098487304e+16,2.7574464770890784e+16,2727432559152758.0,3394221111235041.5,96727398621.40497,221391605782.35083,4174555303939.553,107335327707354.95
32.686649107148675,2.1585394498461116e+16,2.789287740604339e+16,2758668965042215.0,3433094031471587.0,100093761504.32715,229096609703.9006,4319840719634.457,111070879977672.12
33.44038208929165,2.1831821840738284e+16,2.8214006635488628e+16,2790163013545952.0,3472287581451363.5,103565978228.89046,237043894481.87393,4469694579877.835,114923895300425.38
34.20918973107749,2.208028949771193e+16,2.8537887503535372e+16,2821917819518525.0,3511805637532410.5,107147232461.53497,245240746985.799,4624254285817.0205,118897906507253.45
34.993373525699035,2.2330821937286844e+16,2.8864555285942864e+16,2853936510021137.5,3551652091263593.0,110840801753.02583,253694668971.22958,4783661290485.736,122996550610089.45
35.793240996213015,2.2583443726568532e+16,2.919404549778936e+16,2886222224793085.0,3591830849971392.5,114650060238.89133,262413383260.64917,4948061215349.986,127223571797473.8
36.60910581613728,2.2838179535410756e+16,2.952639390124557e+16,2918778116705173.5,3632345837324071.5,118578481414.78816,271404840095.87524,5117603970087.376,131582824513942.06
37.44128793246003,2.309505413982596e+16,2.986163651326061e+16,2951607352195541.0,3673200993874107.5,122629640988.72221,280677223666.3774,5292443875683.138,136078276624616.69
38.29011369110923,2.3354092425263132e+16,3.019980961316798e+16,2984713111688599.5,3714400277579561.0,126807219812.09494,290238958818.0167,5472739790927.667,140714012667168.58
39.15591596493141,2.3615319389757584e+16,3.0540949750220816e+16,3018098589997590.5,3755947664305003.5,131115006891.58633,300098717946.80566,5658655242402.529,145494237193370.66
40.03903428423004,2.3878760146954388e+16,3.088509375105882e+16,3051766996710973.0,3797847148302376.5,135556902483.92183,310265428082.3902,5850358558043.075,150423278202497.62
40.93981496991464,2.414443992900773e+16,3.123227872711561e+16,3085721556562997.0,3840102742672186.5,140136921275.6181,320748278166.0277,6048023004367.874,155505590668861.2
41.85861126931294,2.44123840893584e+16,3.158254208196763e+16,3119965509788592.0,3882718479805149.5,144859195649.82986,331556726527.92523,6251826927466.673,160745760165838.3
42.7957834946992,2.4682618105386756e+16,3.1935921518627744e+16,3154502112462556.5,3925698411804221.5,149727979042.46353,342700508568.91614,6461953897840.221,166148506588749.75
43.751699164593184,2.4955167580942264e+16,3.2292455046783988e+16,3189334636822661.5,3969046610886891.0,154747649389.75726,354189644651.47186,6678592859186.573,171718687979012.56
