t(s),Total solute volume 1,Total retention volume 1,Total 1 volume 1,Total 2 volume 1,Total 3 volume 1,Total 4 volume 1,Total 5 volume 1,Total 6 volume 1
0.1,1386011386779396.2,8520484941412214.0,2082602288778356.8,5051871265854462.0,0.0,0.0,0.0,0.00819856729667888
0.202,2021269119146885.2,1.2478021273339398e+16,3037134000764813.0,7367357497298874.0,24467790921.968346,154972352811.95148,6872349356388.778,45208866628697.016
0.30604000000000003,2513004575161561.5,1.5592372631183284e+16,3776009862810488.5,9159696892019836.0,61450641746.865105,389473566079.7189,17955091743366.67,125255285240206.94
0.41216080000000005,2926466571463362.0,1.8257701860816428e+16,4397272883160405.5,1.0666733976019756e+16,108419368834.31198,687344032530.2202,32261314542854.266,234171352228687.88
0.5204040160000001,3289707125278515.0,2.0642688812031256e+16,4943073741657780.0,1.1990717265392008e+16,164138307608.76883,1040731321166.9788,49340241387943.49,368645568686221.8
0.6308120963200001,3617353434450258.5,2.2834922626565536e+16,5435391104989025.0,1.3184962059074218e+16,227885896138.1986,1445052435194.8794,68939023815992.52,526604065904718.94
0.7434283382464002,3918088832140156.5,2.488618204140653e+16,5887272450486302.0,1.4281118540156076e+16,299198490527.9592,1897362962037.0632,90897429824290.12,706608227347144.1
0.8582969050113283,4197551351918354.5,2.6829948791133984e+16,6307189421892214.0,1.5299736950936538e+16,377762735506.9787,2395672901527.22,115107140238834.72,907590490511018.4
0.9754628431115548,4459644363458193.5,2.8689315832734764e+16,6701007176701842.0,1.6255044795624468e+16,463361972205.3838,2938606212615.7407,141492613188592.66,1128724915576838.0
1.094972099973786,4707202590216842.0,3.0481000862770612e+16,7072985136973748.0,1.7157374436003916e+16,555846257145.5403,3525210419368.7803,170000737061396.53,1369356905838200.5
1.2168715419732616,4942361811597507.0,3.2217571413203016e+16,7426332499608342.0,1.801451063223514e+16,655114124362.36,4154840814167.038,200594659696539.22,1628961855126975.0
1.3412089728127268,5166778590085858.0,3.390876565097099e+16,7763538395810396.0,1.8832491433447104e+16,761100762209.8801,4827085397410.826,233249831782787.56,1907119213685226.5
1.4680331522689813,5381768146587083.0,3.5562320016502944e+16,8086579060962829.0,1.9616110723689796e+16,873769952879.3081,5541713707425.882,267951322300616.62,2203495279302285.2
1.597393815314361,5588394791558679.0,3.7184511124428776e+16,8397053715383690.0,2.0369247836917188e+16,993108348011.8691,6298640480549.022,304691911956589.06,2517831119784071.0
1.729341691620648,5787533472703932.0,3.878052370586163e+16,8696277045162708.0,2.109509189382801e+16,1119121264971.4624,7097898963872.482,343470687910360.75,2849933586027785.5
1.863928525453061,5979913006250783.0,4.035470818956464e+16,8985344160967554.0,2.1796299376676096e+16,1251829514268.7075,7939620773111.717,384291976644516.7,3199668218738294.0
2.001207095962122,6166147283348942.0,4.191076578786933e+16,9265177488404870.0,2.2475107874259948e+16,1391266951870.4153,8824020351639.379,427164514572418.94,3566953339979668.0
2.1412312378813647,6346758341260744.0,4.345188451962677e+16,9536561434516794.0,2.3133420174687452e+16,1537478557584.0425,9751382768942.826,472100792147760.9,3951754915687486.5
2.284055862638992,6522193782522349.0,4.498084115983259e+16,9800168561605116.0,2.377286775691587e+16,1690518905913.4912,10722054010669.03,519116528766820.75,4354081957105851.0
2.4297369798917723,6692840172072299.0,4.6500078985390696e+16,1.0056579717597296e+16,2.4394859622287844e+16,1850450936527.1572,11736433170995.578,568230248902826.8,4773982340422893.0
2.578331719489608,6859033509048697.0,4.801176798179218e+16,1.0306299770844662e+16,2.500062046345691e+16,2017344957651.3328,12794966124123.752,619462938144840.8,5211538989215279.0
2.7298983538794,7021067527946358.0,4.951785211327054e+16,1.0549770083342764e+16,2.5591220921495704e+16,2191277833012.83,13898140361500.979,672837763126135.6,5666866399165078.0
2.884496320956988,7179200359550012.0,5.1020086898899656e+16,1.0787378519371026e+16,2.6167601864512108e+16,2372332314791.417,15046480756457.72,728379842897272.4,6140107499497991.0
3.0421862473761276,7333659932029299.0,5.25200696201532e+16,1.1019467561114404e+16,2.673059407425034e+16,2560596493444.799,16240546071237.291,786116061827916.8,6631430848366541.0
3.2030299723236504,7484648390326426.0,5.401926385492661e+16,1.1246340949183356e+16,2.728093435444167e+16,2756163341468.9067,17480926060730.068,846074916020280.8,7141028155552698.0
3.3670905717701234,7632345740981904.0,5.551901959166011e+16,1.14682691592863e+16,2.78192788159339e+16,2959130332895.102,18768239057297.676,908286386720073.2,7669112119347737.0
3.5344323832055258,7776912879333449.0,5.7020589863198904e+16,1.1685493950863068e+16,2.834621391061608e+16,3169599124047.305,20103129944698.094,972781835444945.1,8215914557872631.0
3.7051210308696363,7918494119816488.0,5.8525144613309864e+16,1.1898232169084934e+16,2.8862265654183988e+16,3387675284052.2783,21486268447988.99,1039593916581453.8,8781684809911033.0
3.879223451487029,8057219323474952.0,6.003378234284478e+16,1.2106678941627282e+16,2.9367907380765508e+16,3613468065981.5474,22918347681441.55,1108756504063393.4,9366688377166232.0
4.0568079205167695,8193205696849544.0,6.154753995958131e+16,1.2311010381658124e+16,2.9863566299740596e+16,3847090211415.255,24400082908648.58,1180304629456911.5,9971205778756044.0
4.237944078927105,8326559321217217.0,6.3067401163604376e+16,1.2511385885655322e+16,3.0349629069709384e+16,4088657782740.1416,25932210478685.492,1254274429357076.5,1.0595531589403954e+16
4.422702960505647,8457376459409132.0,6.45943036302606e+16,1.2707950097015932e+16,3.0826446561750076e+16,4338290018694.557,27515486909815.1,1330703100462386.0,1.123997363469454e+16
4.61115701971576,8585744678248011.0,6.61291451992917e+16,1.2900834592617326e+16,3.1294337950621976e+16,4596109209612.561,29150688098199.38,1409628861055265.8,1.1904852319441292e+16
4.803380160110075,8711743817396628.0,6.767278923749746e+16,1.3090159338597546e+16,3.1753594246147844e+16,4862240589549.364,30838608633721.12,1491090917895482.2,1.2590500068236712e+16
4.9994477633122765,8835446829652623.0,6.922606931014703e+16,1.327603395297225e+16,3.2204481356027204e+16,5136812243036.334,32580061208616.93,1575129437746185.8,1.3297260860297114e+16
5.199436718578522,8956920513129970.0,7.078979327113007e+16,1.3458558805802096e+16,3.2647242754584264e+16,5419955024653.534,34375876107415.492,1661785522914139.8,1.4025489843567558e+16
5.403425452950093,9076226152087450.0,7.236474686188653e+16,1.3637825982093846e+16,3.308210181853995e+16,5711802489950.865,36226900768856.51,1751101190308905.8,1.4775553015597574e+16
5.611493962009095,9193420080205460.0,7.395169689325418e+16,1.3813920128173536e+16,3.3509263880114548e+16,6012490836519.887,38133999412184.3,1843119353620495.8,1.554782696089149e+16
5.823723841249277,9308554177727164.0,7.5551394071627e+16,1.3986919198684736e+16,3.392891803906984e+16,6322158854233.965,40098052721581.18,1937883808288706.0,1.6342698636280766e+16
6.040198318074262,9421676311948508.0,7.716457552052691e+16,1.4156895118463648e+16,3.4341238768262264e+16,6640947883849.086,42119957583613.24,2035439218995717.2,1.7160565197389352e+16
6.261002284435747,9532830728972706.0,7.879196704034294e+16,1.4323914371184782e+16,3.4746387341558492e+16,6969001783299.859,44200626873463.5,2135831109460389.8,1.800183386050974e+16
6.486222330124463,9642058403364728.0,8.04342851421696e+16,1.4488038524747468e+16,3.514451310829954e+16,7306466901143.119,46340989286477.06,2239105854351125.0,1.886692179521909e+16
6.715946776726952,9749397351291922.0,8.209223888608651e+16,1.4649324701797364e+16,3.553575463467481e+16,7653492056699.743,48541989212164.125,2345310673165879.5,1.9756256043887676e+16
6.950265712261491,9854882911873498.0,8.376653154959946e+16,1.4807826002478664e+16,3.592024072921915e+16,8010228526527.42,50804586648330.11,2454493625954535.0,2.067027346489872e+16
7.18927102650672,9958548000746708.0,8.545786214814379e+16,1.496359188543975e+16,3.629809136704239e+16,8376830036926.859,53129757153442.336,2566703610781313.5,2.160942069694327e+16
7.433056447036854,1.0060423339264362e+16,8.716692682636416e+16,1.5116668512222498e+16,3.666941852523658e+16,8753452762242.689,55518491835718.305,2681990362843940.0,2.257415414219881e+16
7.681717575977592,1.0160537662242754e+16,8.889442013622085e+16,1.5267099059421902e+16,3.703432694010135e+16,9140255328770.229,57971797377735.67,2800404455182703.5,2.3564939966565604e+16
7.935351927497144,1.0258917906763816e+16,9.06410362157393e+16,1.541492400237784e+16,3.73929147953129e+16,9537398824121.883,60490696095635.25,2921997300926346.0,2.4582254115438588e+16
8.194058966047088,1.0355589384185898e+16,9.240746988033422e+16,1.5560181373636464e+16,3.774527434889021e+16,9945046811942.975,63076226032216.09,3046821157033796.0,2.562658234374375e+16
8.45794014536803,1.0450575937222186e+16,9.419441763704563e+16,1.5702906998974336e+16,3.809149250573371e+16,10363365351896.998,65729441083416.06,3174929129500944.0,2.669842025917911e+16
8.72709894827539,1.0543900083695512e+16,9.600257863066858e+16,1.5843134713402582e+16,3.843165134160018e+16,10792523024866.604,68451411157834.7,3306375180010486.0,2.7798273377777116e+16
9.0016409272409,1.0635583148364666e+16,9.783265552960992e+16,1.5980896559247672e+16,3.876582858359974e+16,11232690963337.664,71243222369092.39,3441214134010363.5,2.8926657191055028e+16
9.281673745785717,1.072564538403606e+16,9.968535535831318e+16,1.6116222968132196e+16,3.9094098051638216e+16,11684042886951.998,74105977260933.53,3579501690212773.0,3.0084097244146092e+16
9.567307220701432,1.0814106083017736e+16,1.0156139028225429e+17,1.6249142928444424e+16,3.941653006465836e+16,12146755143229.002,77040795065074.92,3721294431511067.0,3.127112922441433e+16
9.85865336511546,1.0900983679839408e+16,1.0346147835077798e+17,1.6379684139684128e+16,3.973319181504673e+16,12621006753467.635,80048811991874.64,3866649837316447.5,3.248829906014597e+16
10.155826432417769,1.0986295846046314e+16,1.053863442024244e+17,1.6507873154898692e+16,4.0044147714149496e+16,13106979463850.342,83131181553954.9,4015626297320098.0,3.373616302899203e+16
10.458942961066125,1.1070059577775216e+16,1.0733671973684787e+17,1.6633735512273858e+16,4.034945971148087e+16,13604857801776.123,86289074922957.12,4168283126689483.5,3.5015287875903824e+16
10.768121820287448,1.1152291276734462e+16,1.0931334475696531e+17,1.6757295856813206e+16,4.064918758988846e+16,14114829137455.607,89523681319634.61,4324680582709869.0,3.6326250940362184e+16
11.083484256693197,1.1233006825134948e+16,1.113169675845604e+17,1.6878578052928762e+16,4.094338923867169e+16,14637083750802.758,92836208437507.17,4484879882884035.0,3.766964029275265e+16
11.405153941827061,1.1312221655054076e+16,1.1334834565221834e+17,1.6997605288666158e+16,4.123212090640753e+16,15171814903659.371,96227882900306.34,4648943224504354.0,3.904605487978229e+16
11.733257020663602,1.1389950812657622e+16,1.1540824607415218e+17,1.7114400172203982e+16,4.151543743503503e+16,15719218917387.32,99699950753436.62,4816933805712111.0,4.0456104678872616e+16
12.067922161076874,1.1466209017655704e+16,1.1749744619821442e+17,1.7228984821191286e+16,4.179339247656728e+16,16279495255861.234,103253677989660.86,4988915848059511.0,4.1900410861495096e+16
12.409280604298411,1.154101071832519e+16,1.1961673414114998e+17,1.7341380945423844e+16,4.206603869364468e+16,16852846613890.592,106890351109198.05,5164954620589282.0,4.3379605965443896e+16
12.75746621638438,1.1614370142394024e+16,1.2176690930893845e+17,1.7451609923302212e+16,4.233342794500425e+16,17439479011095.252,110611277714385.97,5345116465446734.0,4.489433407606575e+16
13.112615540712067,1.1686301344049436e+16,1.2394878290389093e+17,1.7559692872465832e+16,4.259561145682142e+16,18039601891251.85,114417787139025.2,5529468825037769.0,4.644525101648615e+16
13.474867851526309,1.1756818247304e+16,1.2616317842000888e+17,1.7665650714954168e+16,4.2852639980776264e+16,18653428227121.69,118311231112472.6,5718080270745445.0,4.8033024546889416e+16
13.844365208556836,1.1825934685927782e+16,1.2841093212796842e+17,1.7769504237208546e+16,4.310456393960358e+16,19281174630761.84,122292984458500.72,5911020533215857.0,4.965833457292338e+16
14.221252512727972,1.1893664440133856e+16,1.3069289355097224e+17,1.7871274145195146e+16,4.3351433560808904e+16,19923061469312.5,126364445828881.56,6108360534222401.0,5.132187336331371e+16
14.605677562982532,1.19600212701847e+16,1.3300992593260059e+17,1.7970981114901838e+16,4.359329899916236e+16,20579312986243.63,130527038471589.42,6310172420115298.0,5.302434577677856e+16
14.997791114242183,1.202501894707151e+16,1.3536290669769803e+17,1.8068645838436316e+16,4.383021044852216e+16,21250157428032.324,134782211033452.38,6516529596860707.0,5.4766469498345864e+16
15.397746936527026,1.20886712804032e+16,1.3775272790724582e+17,1.8164289065932044e+16,4.406221824348882e+16,21935827176233.33,139131438397006.6,6727506766671358.0,5.6548975285177176e+16
15.805701875257567,1.2150992143630794e+16,1.4018029670809904e+17,1.8257931643449972e+16,4.428937295134683e+16,22636558884890.68,143576222551241.22,6943179966227736.0,5.837260722200759e+16
16.221815912762718,1.2211995496721566e+16,1.4264653577839853e+17,1.8349594547048612e+16,4.451172545471047e+16,23352593623228.793,148118093495837.38,7163626606485662.0,6.0238122986313064e+16
16.64625223101797,1.2271695406388902e+16,1.4515238376941136e+17,1.8439298913181124e+16,4.472932702526112e+16,24084177023548.035,152758610178434.47,7388925514063359.0,6.214629412331499e+16
17.079177275638333,1.2330106063976386e+16,1.4769879574450707e+17,1.8527066065567692e+16,4.494222938893362e+16,24831559434237.516,157499361464376.28,7619156974197578.0,6.4097906330933224e+16
17.5207608211511,1.2387241801088074e+16,1.502867436159236e+17,1.8612917538681668e+16,4.515048478288872e+16,25594996077806.176,162341967138308.66,7854402775255108.0,6.609375975479395e+16
17.97117603757412,1.2443117103052262e+16,1.5291721657995066e+17,1.86968750979798e+16,4.53541460045878e+16,26374747213820.33,167288078936932.03,8094746254782659.0,6.8134669293397416e+16
18.430599558325603,1.24977466203015e+16,1.5559122155111434e+17,1.8778960757002104e+16,4.5553266453273256e+16,27171078306624.59,172339381612128.2,8340272347074781.0,7.02214649135439e+16
18.899211549492115,1.2551145177748776e+16,1.5830978359592285e+17,1.885919679146006e+16,4.5747900164144536e+16,27984260197711.543,177497594023610.4,8591067632236045.0,7.235499197611222e+16
19.37719578048196,1.260332778223688e+16,1.610739463667101e+17,1.8937605750430264e+16,4.593810183551163e+16,28814569282594.35,182764470260183.12,8847220386710295.0,7.453611157227822e+16
19.864739696091597,1.265430962813658e+16,1.6388477253608458e+17,1.901421046476611e+16,4.6123926849200584e+16,29662287692026.3,188141800788620.7,9108820635247018.0,7.67657008702536e+16
20.36203449001343,1.2704106101167748e+16,1.6674334423248448e+17,1.90890340528395e+16,4.6305431284482424e+16,30527703477402.08,193631413629123.88,9375960204271084.0,7.904465347261702e+16
20.869275179813698,1.2752732780517002e+16,1.6965076347731155e+17,1.916209992372274e+16,4.648267192579253e+16,31411110800166.395,199235175556255.03,9648732776619926.0,8.13738797843029e+16
21.38666068340997,1.2800205439325198e+16,1.7260815262411606e+17,1.9233431777921036e+16,4.665570626450816e+16,32312810125048.51,204954993324200.5,9927233947608704.0,8.375430739130373e+16
21.91439389707817,1.284654004361792e+16,1.7561665480028253e+17,1.9303053605765696e+16,4.6824592495051736e+16,33233108416933.934,210792814915170.84,1.0211561282382392e+16,8.618688145013253e+16
22.452681775019734,1.2891752749753044e+16,1.78677434351665e+17,1.93709896835788e+16,4.698938950558788e+16,34172319341179.96,216750630809717.44,1.0501814374510374e+16,8.867256508808395e+16
23.00173541052013,1.293585990045951e+16,1.8179167729061408e+17,1.94372645677212e+16,4.715015686358609e+16,35130763467177.55,222830475277710.22,1.079809490577809e+16,9.121233981432438e+16
23.561770118730532,1.2978878019542498e+16,1.8496059174782234e+17,1.9501903086636524e+16,4.730695479652246e+16,36108768474957.914,229034427688711.62,1.1100506707128038e+16,9.380720594182926e+16
24.133005521105144,1.302082380533109e+16,1.8818540842842442e+17,1.9564930331005924e+16,4.7459844167998e+16,37106669364643.47,235364613840469.3,1.1409155820701314e+16,9.645818302018294e+16
24.715665631527248,1.3061714122945482e+16,1.9146738107277162e+17,1.962637164212883e+16,4.760888644955383e+16,38124808668541.08,241823207304249.38,1.1724150562929692e+16,9.9166310279241e+16
25.309978944157795,1.3101565995461524e+16,1.9480778692231027e+17,1.968625259864695e+16,4.7754143688468e+16,39163536665676.42,248412430785750.03,1.2045601588627888e+16,1.0193264708365445e+17
25.91617852304095,1.3140396594051758e+16,1.9820792719097818e+17,1.9744599001730364e+16,4.78956784718207e+16,40223211598575.11,255134557500344.44,1.2373621956035274e+16,1.0475827339824128e+17
26.53450209350177,1.31782232271825e+16,2.0166912754254656e+17,1.9801436858845276e+16,4.8033553887119944e+16,41304199892097.0,261991912561442.66,1.2708327192756366e+16,1.0764429026418898e+17
27.165192135371807,1.3215063328947612e+16,2.0519273857432074e+17,1.9856792366224492e+16,4.816783347977934e+16,42406876374138.82,268986874380795.3,1.3049835362550478e+16,1.1059182028606394e+17
27.808495978079243,1.325093444661988e+16,2.087801363076242e+17,1.9910691890162216e+16,4.829858120774514e+16,43531624498027.516,276121876079614.97,1.3398267132921264e+16,1.13602008129598e+17
28.464665897640828,1.32858542275016e+16,2.1243272268547994e+17,1.9963161947256236e+16,4.842586139356824e+16,44678836566436.09,283399406909451.8,1.375374584345906e+16,1.1667602103021888e+17
29.133959215593645,1.3319840405155926e+16,2.1615192607791226e+17,2.0014229183719052e+16,4.854973867421941e+16,45848913956665.74,290822013681822.1,1.411639757489021e+16,1.198150493122891e+17
29.816638399905518,1.3352910785100664e+16,2.1993920179528346e+17,2.0063920353881612e+16,4.8670277948944904e+16,47042267347147.61,298392302205677.94,1.4486351218790214e+16,1.230203069190132e+17
30.51297116790363,1.3385083230045394e+16,2.2379603261008714e+17,2.011226229801108e+16,4.878754432545787e+16,48259316945034.58,306112938731878.94,1.486373854792002e+16,1.2629303195297573e+17
31.223230591261704,1.341637564475315e+16,2.2772392928761376e+17,2.0159281919563936e+16,4.890160306476083e+16,49500492714766.12,313986651403930.94,1.5248694287148006e+16,1.2963448722726909e+17
31.947695203086937,1.3446805960605758e+16,2.317244311259077e+17,2.0205006161994224e+16,4.901251952488835e+16,50766234607505.5,322016231714357.94,1.5641356184923494e+16,1.3304596082717397e+17
32.686649107148675,1.3476392119951824e+16,2.3579910650542998e+17,2.0249461985234984e+16,4.912035910385713e+16,52056992791366.86,330204535966167.2,1.6041865085271532e+16,1.3652876668235691e+17
33.44038208929165,1.3505152060314036e+16,2.3994955344884483e+17,2.0292676341968436e+16,4.9225187182103624e+16,53373227882366.07,338554486739002.06,1.64503650002827e+16,1.4008424514955462e+17
34.20918973107749,1.3533103698531332e+16,2.4417740019134128e+17,2.0334676153798136e+16,4.932706906468387e+16,54715411176048.7,347069074359679.4,1.686700318307611e+16,1.4371376360571614e+17
34.993373525699035,1.3560264914908658e+16,2.4848430576190358e+17,2.0375488287432784e+16,4.9426069923501096e+16,56084024879768.22,355751358376934.6,1.729193020121845e+16,1.4741871705158576e+17
35.793240996213015,1.3586653537445318e+16,2.528719605759387e+17,2.0415139530987676e+16,4.952225473981982e+16,57479562345605.37,364604469040327.06,1.7725300010586806e+16,1.512005287257129e+17
36.60910581613728,1.3612287326209638e+16,2.573420870396678e+17,2.0453656570506588e+16,4.961568824731312e+16,58902528303942.97,373631608783374.2,1.8167270029667836e+16,1.5506065072888333e+17
37.44128793246003,1.3637183957925168e+16,2.6189644016668957e+17,2.0491065966800964e+16,4.970643487588074e+16,60353439097726.664,382836053711127.5,1.86180012142912e+16,1.5900056465898262e+17
