t(s),Total solute volume 1,Total retention volume 1,Total 1 volume 1,Total 2 volume 1,Total 3 volume 1,Total 4 volume 1,Total 5 volume 1,Total 6 volume 1
0.1,1171626138357391.5,1690659390667246.5,218249522949102.88,300783729360751.56,0.0,0.0,0.0,0.0
0.202,1608758418884921.0,2718710223544777.0,299678156942828.75,413005793928058.25,200915428689.3822,538030523944.9517,12830914774372.53,383697993061961.0
0.30604000000000003,1864977590133486.8,3622079890653599.0,347406448133154.25,478783233701369.75,470470638524.6717,1259892623546.5903,30047972839590.2,899134282583927.0
0.41216080000000005,2036919020679040.8,4480129942984446.0,379435552844582.2,522924610939431.1,778474197551.424,2084741697593.922,49721945968502.53,1488265596657745.2
0.5204040160000001,2161004004525628.2,5320245343098130.0,402549999052778.56,554780121881214.8,1112241064070.99,2978612086478.684,71042539700671.86,2126777824787285.2
0.6308120963200001,2254895133404382.0,6155083071029994.0,420039959439055.5,578884165867923.0,1465304019628.5994,3924188075446.1953,93596674599235.86,2802277645624326.5
0.7434283382464002,2328400941278427.0,6991553666012615.0,433732559428012.1,597754822361905.0,1834012498255.3845,4911696338960.723,117151198280126.06,3507768435826921.5
0.8582969050113283,2387463013172329.0,7833878209629837.0,444734592461065.1,612917434832194.9,2216173246850.3086,5935265964911.948,141566051905319.8,4239045678047170.0
0.9754628431115548,2435909426874937.5,8684860606586702.0,453759149636935.0,625354760144274.9,2610416015180.903,6991229935175.461,166753752057859.9,4993481871922339.0
1.094972099973786,2476324255358376.0,9546492721364462.0,461287589887840.56,635730190111729.8,3015866022705.608,8077248078553.1875,192658468792782.62,5769399103112481.0
1.2168715419732616,2510517213996432.5,1.0420271212764934e+16,467657025466580.4,644508320890901.5,3431962013306.2173,9191819871544.96,219244403384937.6,6565720467141243.0
1.3412089728127268,2539794262598270.0,1.1307375963615334e+16,473110729464749.3,652024422834176.4,3858349357588.937,10333998197602.172,246488959891799.56,7381765241271143.0
1.4680331522689813,2565121669618095.5,1.2208776512764154e+16,477828697555114.7,658526559599165.4,4294814370473.496,11503213470618.834,274378549452408.62,8217123008698268.0
1.597393815314361,2587229691569716.5,1.3125298576589344e+16,481946961305383.6,664202205072650.0,4741242438756.414,12699161515687.045,302905915533284.2,9071573399153870.0
1.729341691620648,2606680393638397.5,1.405766727273052e+16,485570221744510.44,669195654503568.0,5197590488918.646,13921729849613.451,332068375224088.5,9945033307281428.0
1.863928525453061,2623913332520765.0,1.500653614630649e+16,488780359123533.2,673619752353632.5,5663868400248.614,15170947914963.545,361866631967910.5,1.0837521254025432e+16
2.001207095962122,2639277114098124.5,1.5972507223925652e+16,491642311452325.25,677563993888206.0,6140126168374.511,16446952712497.309,392303955640737.56,1.1749132769965346e+16
2.1412312378813647,2653051678644097.5,1.6956145218087676e+16,494208225769261.25,681100246308996.8,6626444863328.017,17749964594658.535,423385605040242.0,1.2680023052867096e+16
2.284055862638992,2665464346311074.0,1.7957987813248342e+16,496520447080897.94,684286868004743.9,7122930149759.41,19080269920123.08,455118414059429.3,1.363039453772229e+16
2.4297369798917723,2676701570929344.0,1.8978553264267156e+16,498613707849750.94,687171726025680.6,7629707572870.022,20438208436762.66,487510490668311.44,1.4600487852784456e+16
2.578331719489608,2686917684035400.0,2.001834611241751e+16,500516756824524.6,689794440879616.8,8146919083661.99,21824163983465.797,520570995076366.5,1.5590575152534486e+16
2.7298983538794,2696241491050847.5,2.1077861558157156e+16,502253587770746.7,692188079924960.9,8674720448518.196,23238557560255.88,554309974398436.94,1.6600955147003376e+16
2.884496320956988,2704781310428134.0,2.2157588859337984e+16,503844378158586.25,694380451037008.2,9213279299347.766,24681842113975.285,588738238251727.4,1.7631949360049202e+16
3.0421862473761276,2712628867857833.5,2.3258014011704212e+16,505306214572510.8,696395102341831.8,9762773654138.938,26154498583902.4,623867264413663.0,1.868389929028034e+16
3.2030299723236504,2719862337550809.0,2.437962189367597e+16,506653659238756.56,698252102984364.1,10323390787354.49,27657032884470.81,659709126838599.2,1.9757164243391652e+16
3.3670905717701234,2726548740521708.0,2.5522898006378764e+16,507899196775561.2,699968658823752.0,10895326363569.8,29189973593205.785,696276440501051.5,2.085211966979992e+16
3.5344323832055258,2732745852795231.0,2.6688329904490892e+16,509053589652214.9,701559602314424.9,11478783771362.936,30753870175218.375,733582319041544.5,2.1969155886740896e+16
3.7051210308696363,2738503736293020.0,2.7876408388562236e+16,510126163361386.06,703037785520494.4,12073973611108.193,32349291620157.504,771640342254235.0,2.3108677095901796e+16
3.879223451487029,2743865976482899.5,2.9087628511661644e+16,511125036967376.6,704414397849201.8,12681113302201.494,33976825399327.8,810464531214324.6,2.427110063044629e+16
4.0568079205167695,2748870690144220.5,3.0322490440336796e+16,512057310831801.5,705699224767793.8,13300426783825.365,35637076673652.01,850069329391357.1,2.5456856381744176e+16
4.237944078927105,2753551351448885.5,3.158150020044246e+16,512929220495267.2,706900859877808.0,13932144289625.088,37330667699933.08,890469588494700.1,2.666638636813623e+16
4.422702960505647,2757937473360434.5,3.2865170331411804e+16,513746263607812.6,708026879846114.6,14576502181287.629,39058237395241.836,931680558092743.6,2.790014441692818e+16
4.61115701971576,2762055172997565.0,3.417402046732641e+16,514513305244368.1,709083989546945.9,15233742829457.473,40820441028473.82,973717878267142.9,2.915859593741247e+16
4.803380160110075,2765927643315685.5,3.550857785919221e+16,515234665769175.56,710078143153540.2,15904114533006.547,42617950015040.34,1016597574728721.6,3.0442217767677064e+16
4.9994477633122765,2769575548678616.0,3.686937784982514e+16,515914194522565.75,711014645690641.1,16587871469636.982,44451451795906.32,1060336055946747.2,3.1751498081721044e+16
5.199436718578522,2773017358231226.0,3.825696431043703e+16,516555331921327.56,711898238619036.1,17285273672289.36,46321649786193.94,1104950111938930.8,3.3086936346268e+16
5.403425452950093,2776269628157409.5,3.967189004622219e+16,517161162037492.56,712733172297771.6,17996587026981.074,48229263381653.66,1150456914443053.8,3.4449043318877796e+16
5.611493962009095,2779347241710931.0,4.111471717684806e+16,517734457311068.4,713523267605658.8,18722083288591.414,50175028013693.32,1196874018248107.5,3.5838341080670024e+16
5.823723841249277,2782263614186922.0,4.258601749665364e+16,518277716731968.1,714271968562261.4,19462040111804.6,52159695245519.35,1244219363507289.5,3.725536309830788e+16
6.040198318074262,2785030868647420.0,4.408637281848984e+16,518793198574005.56,714982387440729.5,20216741094968.875,54184032903405.12,1292511278890145.8,3.8700654310939176e+16
6.261002284435747,2787659987140384.0,4.561637530444519e+16,519282948563853.8,715657343589258.6,20986475835059.723,56248825238259.266,1341768485458633.8,4.0174771238619736e+16
6.486222330124463,2790160941295852.0,4.7176627786144424e+16,519748824208383.4,716299396958169.8,21771539992279.195,58354873113582.875,1392010101173821.8,4.167828210940232e+16
6.715946776726952,2792542805496666.0,4.876774407686165e+16,520192515876010.3,716910877153477.9,22572235363094.652,60502994216635.54,1443255645957471.8,4.3211767002798184e+16
6.950265712261491,2794813855268220.0,5.039034927732817e+16,520615565124659.8,717493908695832.1,23388869960741.07,62694023290222.45,1495525047246652.0,4.477581800774179e+16
7.18927102650672,2796981653083980.0,5.204508007682165e+16,521019380685538.8,718050433048806.0,24221758102387.48,64928812382985.44,1548838645991011.5,4.637103939352692e+16
7.433056447036854,2799053123418974.5,5.373258505088108e+16,521405252444044.5,718582227886872.0,25071220502311.34,67208231116468.55,1603217203051450.5,4.799804779246095e+16
7.681717575977592,2801034618585630.5,5.545352495679717e+16,521774363703605.9,719090923997006.0,25937584370541.168,69533166967541.32,1658681905966404.8,4.965747239320654e+16
7.935351927497144,2802931976641761.5,5.7208573027863096e+16,522127801972730.7,719578020145008.1,26821183516524.72,71904525565018.7,1715254376058128.8,5.134995514396382e+16
8.194058966047088,2804750572458702.0,5.899841526723531e+16,522466568477939.56,720044896185893.9,27722358457455.41,74323230999530.55,1772956675856379.0,5.307615096479949e+16
8.45794014536803,2806495362870818.5,6.082375074214662e+16,522791586574181.25,720492824654833.5,28641456530958.1,76790226145864.28,1831811316821038.0,5.48367279685489e+16
8.72709894827539,2808170926688868.0,6.268529187911201e+16,523103709198477.7,720922981039493.8,29578832011885.05,79306472997151.48,1891841267348735.2,5.663236768982734e+16
9.0016409272409,2809781500243780.5,6.458376476069926e+16,523403725491004.5,721336452904988.1,30534846233020.89,81872953010387.4,1953069961051294.5,5.846376532176474e+16
9.281673745785717,2811331009031000.0,6.6519909424363944e+16,523692366689757.25,721734248017690.4,31509867709529.695,84490667462877.33,2015521305296390.0,6.0331629960156664e+16
9.567307220701432,2812823095943760.5,6.849448016379556e+16,523970311389830.6,722117301593388.1,32504272267009.56,87160637819281.53,2079219690002611.0,6.223668485477962e+16
9.85865336511546,2814261146515430.5,7.050824583317596e+16,524238190245541.0,722486482777582.9,33518443173047.09,89883906109006.5,2144189996683066.2,6.41796676676723e+16
10.155826432417769,2815648311533055.0,7.256199015471022e+16,524496590182856.94,722842600450912.9,34552771272183.707,92661535313752.66,2210457607732909.2,6.61613307382246e+16
10.458942961066125,2816987527335125.5,7.465651202975822e+16,524746058180448.5,723186408440058.1,35607655124227.445,95494609765074.58,2278048415957540.5,6.818244135495574e+16
10.768121820287448,2818281534064788.5,7.679262585386514e+16,524987104669881.1,723518610203774.9,36683501145856.85,98384235551854.64,2346988834339176.0,7.024378203388996e+16
11.083484256693197,2819532892114201.5,7.897116183596805e+16,525220206598860.5,723839863054546.6,37780723755479.01,101331540937635.83,2417305806040478.5,7.234615080346683e+16
11.405153941827061,2820743996965292.0,8.119296632202971e+16,525445810195749.56,724150781968539.5,38899745521314.266,104337676787781.22,2489026814644666.5,7.449036149594629e+16
11.733257020663602,2821917092605927.5,8.345890212334166e+16,525664333468727.75,724451943029865.6,40040997312690.734,107403817006465.06,2562179894632183.5,7.667724404528566e+16
12.067922161076874,2823054283678328.5,8.576984884971512e+16,525876168468781.3,724743886549345.0,41204918454539.805,110531158983518.86,2636793642094688.0,7.890764479148597e+16
12.409280604298411,2824157546496955.5,8.812670324777008e+16,526081683342111.0,725027119893070.1,42391956885090.37,113720924051182.14,2712897225687491.0,8.118242679141424e+16
12.75746621638438,2825228739056643.0,9.053037954452213e+16,526281224194436.3,725302120051721.0,43602569316768.39,116974357950822.44,2790520397822205.5,8.35024701361296e+16
13.112615540712067,2826269610137178.5,9.29818097964565e+16,526475116786989.06,725569335977923.2,44837221400310.64,120292731309708.36,2869693506101659.5,8.586867227474266e+16
13.474867851526309,2827281807597975.0,9.548194424426922e+16,526663668081638.75,725829190715682.1,46096387892108.76,123677340127935.67,2950447504999431.5,8.82819483448543e+16
13.844365208556836,2828266885945681.5,9.80317516734529e+16,526847167650582.9,726082083343176.6,47380552824802.94,127129506275615.0,3032813967786951.5,9.074323150962603e+16
14.221252512727972,2829226313248055.0,1.0063221978089328e+17,527025888964247.4,726328390747690.6,48690209681148.24,130650578000449.02,3116825098711079.0,9.32534733015405e+16
14.605677562982532,2830161477458964.5,1.0328435554764248e+17,527200090569519.1,726568469249408.0,50025861571179.555,134241930445830.34,3202513745425512.0,9.5813643972922e+16
14.997791114242183,2831073692212464.0,1.0598918561803014e+17,527370017169046.6,726802656088881.4,51388021412705.71,137904966179609.77,3289913411679711.0,9.842473285328771e+16
15.397746936527026,2831964202137197.5,1.0874775668526589e+17,527535900611208.7,727031270791358.6,52777212115162.8,141641115733684.84,3379058270269043.0,1.0108774871360816e+17
15.805701875257567,2832834187736978.0,1.1156113588369051e+17,527697960799268.3,727254616419749.1,54193966766861.65,145451838154577.3,3469983176250147.5,1.0380372013756291e+17
16.221815912762718,2833684769878531.0,1.1443041118782538e+17,527856406527337.25,727472980726724.5,55638828825665.16,149338621565163.72,3562723680425876.0,1.06573695899876e+17
16.64625223101797,2834517013922838.5,1.1735669181837005e+17,528011436249967.0,727686637215342.0,57112352313132.97,153302983737746.25,3657316043104043.5,1.093987453518268e+17
17.079177275638333,2835331933532977.5,1.2034110865529648e+17,528163238791464.2,727895846116590.0,58615102012172.87,157346472678645.12,3753797248134701.0,1.122799588140299e+17
17.5207608211511,2836130494187707.0,1.233848146581861e+17,528311994000404.4,728100855291422.8,60147653668239.57,161470667224505.38,3852205017230586.5,1.1521844797658309e+17
17.97117603757412,2836913616427335.0,1.2648898529395595e+17,528457873354261.25,728301901064040.6,61710594194122.34,165677177650520.66,3952577824575772.0,1.1821534630668987e+17
18.430599558325603,2837682178855435.5,1.2965481897211893e+17,528601040518575.1,728499208992511.0,63304521878364.1,169967646290777.78,4054954911727445.0,1.2127180946385582e+17
18.899211549492115,2838437020917968.5,1.3288353748772227e+17,528741651864634.94,728692994582219.9,64930046597357.24,174343748170933.66,4159376302816162.0,1.2438901572277291e+17
19.37719578048196,2839178945478922.5,1.3617638647210942e+17,528879856949266.75,728883463947106.1,66587790031158.945,178807191653446.1,4265882820049878.0,1.2756816640399965e+17
19.864739696091597,2839908721209960.5,1.3953463585164882e+17,529015798959988.25,729070814423147.8,68278385883072.62,183359719095576.34,4374516099527275.5,1.308104863125496e+17
20.36203449001343,2840627084809864.0,1.4295958031457349e+17,529149615128429.7,729255235138128.9,70002480103040.91,188003107520400.16,4485318607366095.5,1.3411722418450747e+17
20.869275179813698,2841334743067913.5,1.4645253978607638e+17,529281437114702.5,729436907541368.0,71760731114897.8,192739169301055.22,4598333656152187.0,1.3748965314178443e+17
21.38666068340997,2842032374784176.5,1.5001485991180666e+17,529411391365116.25,729616005896700.0,73553810047525.34,197569752858470.72,4713605421715286.0,1.4092907115513928e+17
21.91439389707817,2842720632558449.0,1.5364791254990752e+17,529539599445413.44,729792697741738.4,75382400969963.88,202496743372824.5,4831178960237581.0,1.444368015155817e+17
22.452681775019734,2843400144458460.5,1.573530962717477e+17,529666178351524.3,729967144316143.1,77247201130523.33,207522063508975.34,4951100225701236.0,1.48014193314281e+17
23.00173541052013,2844071515577041.5,1.6113183687148512e+17,529791240799631.3,730139500961372.5,79148921199941.22,212647674156131.0,5073416087681247.0,1.5166262193110966e+17
23.561770118730532,2844735329487036.5,1.6498558788461174e+17,529914895497198.56,730309917494212.5,81088285518640.34,217875575182016.34,5198174349490241.0,1.5538348953194256e+17
24.133005521105144,2845392149602105.0,1.6891583111562986e+17,530037247396444.0,730478538556104.2,83066032348130.0,223207806201802.6,5325423766681524.0,1.5917822557484346e+17
24.715665631527248,2846042520450572.0,1.729240771749959e+17,530158397931650.9,730645503940195.6,85082914126599.42,228646447362076.47,5455214065917562.0,1.6304828732526726e+17
25.309978944157795,2846686968869236.0,1.7701186602549523e+17,530278445241535.06,730810948897791.4,87139697728755.44,234193620140124.16,5587595964210476.0,1.6699516038040736e+17
25.91617852304095,2847326005123071.0,1.8118076753817786e+17,530397484377828.5,730975004425834.0,89237164729947.25,239851488158819.28,5722621188541677.0,1.710203592028208e+17
26.53450209350177,2847960123956555.5,1.8543238205802112e+17,530515607501116.5,731137797536784.6,91376111674630.61,245622258017396.6,5860342495867898.0,1.7512542766346662e+17
27.165192135371807,2848589805581726.0,1.8976834097945334e+17,530632904064893.5,731299451512289.5,93557350349215.61,251508180138411.78,6000813693520918.0,1.793119395942858e+17
27.808495978079243,2849215516607631.5,1.9419030733190074e+17,530749460988702.25,731460086141787.4,95781708059347.86,257511549631187.06,6144089660008398.0,1.8358149935046368e+17
28.464665897640828,2849837710915566.0,1.986999763754976e+17,530865362821169.06,731619817947210.5,98050027911668.9,263634707172046.75,6290226366223469.0,1.8793574238250662e+17
29.133959215593645,2850456830484066.0,2.0329907620711722e+17,530980691893683.8,731778760394768.4,100363169100102.56,269880039901654.6,6439280897070816.0,1.923763358182723e+17
29.816638399905518,2851073306167226.0,2.0798936837686957e+17,531095528465386.6,731937024094771.0,102722007196711.81,276249982339771.84,6591311473517242.0,1.9690497905508858e+17
30.51297116790363,2851687558429823.5,2.1277264851522317e+17,531209950860103.4,732094716990346.1,105127434447174.53,282747017317757.8,6746377475074613.0,2.015234043621033e+17
31.223230591261704,2852299998042299.5,2.176507469708941e+17,531324035595802.94,732251944535856.8,107580360070918.1,289373676929138.6,6904539462723647.0,2.062333774929967e+17
31.947695203086937,2852911026738370.0,2.2262552945966394e+17,531437857507110.1,732408809865731.5,110081710565960.62,296132543498586.56,7065859202286500.0,2.11036698309202e+17
32.686649107148675,2853521037838116.5,2.276988977242696e+17,531551489861355.5,732565413954418.5,112632430018500.22,303026250569639.2,7230399688257168.0,2.1593520141377002e+17
33.44038208929165,2854130416838740.5,2.3287279020552317e+17,531665004468635.3,732721855768052.0,115233480417291.95,310057483911513.94,7398225168097900.0,2.2093075679602096e+17
34.20918973107749,2854739541975424.0,2.381491827248137e+17,531778471786280.6,732878232408434.2,117885841972857.38,317228982545364.44,7569401167010835.0,2.260252704871144e+17
34.993373525699035,2855348784754309.0,2.4353008917813786e+17,531891961018142.9,733034639249866.6,120590513441561.27,324543539790342.25,7743994513193523.0,2.312206852266904e+17
35.793240996213015,2855958510459501.0,2.4901756224181862e+17,532005540209038.6,733191170069306.8,123348512454598.86,332004004329818.4,7922073363587811.0,2.365189811407085e+17
36.60910581613728,2856569078635965.0,2.5461369409005795e+17,532119276334701.9,733347917170343.8,126160875851925.72,339613281298148.5,8103707230131077.0,2.4192217643063542e+17
37.44128793246003,2857180843549880.0,2.6032061712447776e+17,532233235387538.8,733504971501375.5,129028660021169.84,347374333388347.0,8288967006519569.0,2.474323280741096e+17
38.29011369110923,2857794154628098.0,2.661405047157998e+17,532347482458488.56,733662422768432.8,131952941241554.83,355290181981058.1,8477924995493410.0,2.530515325372289e+17
39.15591596493141,2858409356878008.0,2.720755719578141e+17,532462081815238.2,733820359542967.0,134934816032872.31,363363908295209.7,8670654936652919.0,2.5878192649859696e+17
40.03903428423004,2859026791289306.0,2.7812807643378474e+17,532577096977061.3,733978869364994.8,137975401509527.45,371598654560754.5,8867232034816645.0,2.6462568758526637e+17
40.93981496991464,2859646795218740.0,2.8430031899544394e+17,532692590786488.2,734138038841865.8,141075835739689.44,379997625213883.5,9067732988930772.0,2.7058503512071216e+17
41.85861126931294,2860269702759106.5,2.905946445547197e+17,532808625478044.2,734297953743001.6,144237278109572.16,388564088115136.8,9272236021540800.0,2.7666223088497366e+17
42.7957834946992,2860895845093514.0,2.970134428883433e+17,532925262744241.25,734458699090836.9,147460909692869.66,397301375790824.6,9480820908835432.0,2.8285957988709574e+17
