t(s),Total solute volume 1,Total retention volume 1,Total 1 volume 1,Total 2 volume 1,Total 3 volume 1,Total 4 volume 1,Total 5 volume 1,Total 6 volume 1
0.1,1343181032126672.5,2872917611672401.5,563076449980376.4,966660129565354.2,0.0,0.0,0.0,-1.5603494592410886e-89
0.202,2008092352551949.2,4325967455233257.0,841814717981647.4,1445183659732828.0,5662376059.55635,21255193593.299328,831203125824.46,30018604271355.445
0.30604000000000003,2509458444400897.0,5446228770799455.0,1051992982032366.8,1806006792959416.8,14293657662.079885,53655829782.53579,2100154687584.842,76602447231743.27
0.41216080000000005,2928156489419255.0,6402891200693180.0,1227515876359318.5,2107335375378197.5,25268592569.11399,94854417864.24654,3714098498225.008,136049238027749.95
0.5204040160000001,3295065492854776.5,7260311398308313.0,1381328226028747.2,2371392420638402.5,38294439400.86975,143751994413.5817,5629872332706.411,206713340019858.78
0.6308120963200001,3625666683008164.5,8050642931918522.0,1519919935057812.5,2609319461004915.5,53202223295.33464,199714234391.91302,7822591440133.8125,287661344949809.0
0.7434283382464002,3928992147860156.0,8792597069547041.0,1647077355635963.2,2827616709788501.5,69884140251.72968,262336450450.92676,10276388304912.725,378302247366802.8
0.8582969050113283,4210843499951007.5,9498176416120252.0,1765232588527468.5,3030459471372579.0,88267690003.42966,331346485205.1823,12980595976722.633,478240646117260.8
0.9754628431115548,4475203889933740.0,1.0175621505029928e+16,1876055414954875.2,3220714339419133.5,108302861073.6525,406556603542.0171,15927859168069.188,587205142089500.9
1.094972099973786,4724944964289926.0,1.0830882222713996e+16,1980749661177622.0,3400447980272617.0,129954991044.75793,487836690107.96265,19113082423318.15,705008742869356.6
1.2168715419732616,4962215971595962.0,1.1468425550234548e+16,2080216316186863.5,3571207164975769.0,153200445899.4796,575098029670.8524,22532793797437.8,831525005202945.5
1.3412089728127268,5188673776042357.0,1.2091711804829648e+16,2175149955942086.5,3734184305401092.5,178023839512.25494,668282869205.6641,26184735445334.867,966672725290062.1
1.4680331522689813,5405626640846517.0,1.2703491580229902e+16,2266099018983461.5,3890320932294716.5,204416157133.3905,767357373552.8378,30067587359438.9,1110405627215080.5
1.597393815314361,5614128244324491.0,1.3305999420127094e+16,2353505219018862.5,4040375356759467.5,232373440101.721,872306687910.6234,34180773753742.938,1262705146142513.0
1.729341691620648,5815041473369740.0,1.3901084910416824e+16,2437730287862368.5,4184968581142421.0,261895835095.01187,983131368787.044,38524323121711.9,1423575217716691.5
1.863928525453061,6009083073880862.0,1.449030421436325e+16,2519074693391994.5,4324616433051953.0,292986889142.3589,1099844737530.4075,43098764475577.58,1593038417936200.2
2.001207095962122,6196855738228611.0,1.5074985701143738e+16,2597791090974046.0,4459752658063797.5,325653015581.36847,1222470875577.1702,47905048750016.08,1771133041236110.5
2.1412312378813647,6378871694541036.0,1.565627808579212e+16,2674094212354716.5,4590745896455903.0,359903082128.27106,1351043078104.4995,52944488180411.81,1957910848099816.8
2.284055862638992,6555570394946347.0,1.6235186450004606e+16,2748168280768943.0,4717912413081675.0,395748088207.85583,1485602642758.6016,58218708819000.78,2153435301657662.2
2.4297369798917723,6727332011452201.0,1.6812599670471754e+16,2820172668563601.0,4841525810083187.0,433200908853.4805,1626197908282.7285,63729612848713.414,2357780168706904.0
2.578331719489608,6894487892789915.0,1.7389311631199038e+16,2890246280823304.0,4961824552471851.0,472276089144.1412,1772883482857.8728,69479348334632.87,2571028397207321.5
2.7298983538794,7057328778519628.0,1.7966037857887688e+16,2958510998814942.0,5079017879654879.0,512989677618.85376,1925719618761.623,75470284711555.31,2793271206890296.0
2.884496320956988,7216111331370478.0,1.8543428726471588e+16,3025074418417617.0,5193290506629250.0,555359090183.614,2084771701494.0369,81704992758815.38,3024607346503749.5
3.0421862473761276,7371063390205662.0,1.9122080070873144e+16,3090032052224175.0,5304806404435079.0,599402998182.9684,2250109829615.7847,88186228131035.12,3265142483049389.0
3.2030299723236504,7522388236979115.0,1.970254179053338e+16,3153469118297072.5,5413711870998512.0,645141235848.6272,2421808467326.426,94916917740187.61,3514988696815316.5
3.3670905717701234,7670268094739931.0,2.028532490134936e+16,3215462006570885.0,5520138048575300.0,692594723455.733,2599946156008.1704,101900148448963.16,3774264062134808.5
3.5344323832055258,7814867019447146.0,2.087090736216067e+16,3276079491133304.0,5624203004931687.0,741785403341.1213,2784605274052.769,109139157656658.08,4043092298314466.5
3.7051210308696363,7956333309149395.0,2.1459738928526628e+16,3335383740180145.0,5726013467182587.0,792736186552.9811,2975871836598.1035,116637325449338.83,4321602478542033.5
3.879223451487029,8094801525381600.0,2.205224522675927e+16,3393431163407391.5,5825666276550173.0,845470908366.1582,3173835328545.9526,124398168054443.31,4609928787128744.0
4.0568079205167695,8230394200354572.0,2.2648831197666444e+16,3450273127684141.5,5923249616993860.0,900014291252.7174,3378588565566.435,132425332392281.8,4908210317384740.0
4.237944078927105,8363223287558420.0,2.3249884026878276e+16,3505956565161725.5,6018844059180479.0,956391914171.7528,3590227578824.779,140722591557282.66,5216590903927356.0
4.422702960505647,8493391401307881.0,2.385577565396516e+16,3560524492904938.5,6112523452560037.0,1014630187256.4862,3808851519969.3887,149293841093326.72,5535218984391728.0
4.61115701971576,8620992881500706.0,2.446686493370304e+16,3614016459250633.5,6204355691651021.0,1074756331144.9608,4034562583551.937,158143095952272.28,5864247486433708.0
4.803380160110075,8746114712708898.0,2.508349950829512e+16,3666468929101056.0,6294403377491801.0,1136798360334.176,4267465944551.5156,167274488044434.84,6203833736644063.0
4.9994477633122765,8868837321149273.0,2.5706017438037628e+16,3717915618022761.5,6382724391204368.0,1200785070044.198,4507669709075.406,176692264305473.16,6554139388576639.0
5.199436718578522,8989235268702545.0,2.6334748629036788e+16,3768387783187171.0,6469372393465930.0,1266746026164.646,4755284876631.229,186400785216782.5,6915330367561539.0
5.403425452950093,9107377859685022.0,2.6970016089563536e+16,3817914477736045.0,6554397261190223.0,1334711557925.5867,5010425312626.796,196404523726721.22,7287576830354989.0
5.611493962009095,9223329673315318.0,2.7612137041044452e+16,3866522773997447.0,6637845470733183.0,1404712752991.5593,5273207729966.619,206708064528370.7,7671053137987200.0
5.823723841249277,9337151032602340.0,2.826142390520675e+16,3914237960048876.5,6719760435342201.0,1476781454723.9944,5543751678789.108,217316103656342.5,8065937840423470.0
6.040198318074262,9448898418591870.0,2.891818518528597e+16,3961083713373954.0,6800182803280994.0,1550950261395.7432,5822179543532.125,228233448370828.7,8472413671863398.0
6.261002284435747,9558624837454602.0,2.9582726256272436e+16,4007082254749963.0,6879150722015559.0,1627252527173.1052,6108616546634.388,239465017301745.62,8890667555676761.0
6.486222330124463,9666380146712982.0,3.025535007678329e+16,4052254485005641.0,6956700072993038.0,1705722364707.4067,6403190758279.473,251015840829734.22,9320890618118908.0
6.715946776726952,9772211345927636.0,3.0936357833185836e+16,4096620106880295.0,7032864680842937.0,1786394649200.2297,6706033111672.51,262891061684044.34,9763278210090040.0
6.950265712261491,9876162836361364.0,3.1626049524982344e+16,4140197733877750.0,7107676500252024.0,1869305023825.1382,7017277423409.661,275095935740068.06,1.0218029936303888e+16
7.18927102650672,9978276653470180.0,3.2324724499127132e+16,4183004987729231.0,7181165783283517.0,1954489906404.4373,7337060418559.71,287635833001609.4,1.0685349691317634e+16
7.433056447036854,1.0078592675516424e+16,3.303268193983422e+16,4225058585846335.0,7253361229511716.0,2041986497252.8845,7665521760126.921,300516238754940.5,1.1165445701947428e+16
7.681717575977592,1.01771488111332e+16,3.375022131950166e+16,4266374419950093.5,7324290121008417.0,2131832788111.6199,8002804082607.355,313742754883365.8,1.165853057565583e+16
7.935351927497144,1.0273981168279786e+16,3.447764281559979e+16,4306967626898966.0,7393978443936655.0,2224067572105.3047,8349053029387.013,327321101332447.75,1.2164821354550422e+16
8.194058966047088,1.036912420669729e+16,3.52152476977112e+16,4346852652599985.5,7462450998270047.0,2318730454663.7754,8704417293761.539,341257117717261.7,1.2684539574678206e+16
8.45794014536803,1.0462610875696302e+16,3.596333868835465e+16,4386043309770832.0,7529731496955730.0,2415861865356.6685,9069048663384.098,355556765064123.75,1.3217911330338968e+16
8.72709894827539,1.0554472738870186e+16,3.672222030075366e+16,4424552830221126.0,7595842655668138.0,2515503070595.776,9443102067971.5,370226127680122.1,1.3765167343175432e+16
9.0016409272409,1.064474008712723e+16,3.749219915630768e+16,4462393912236632.5,7660806274155769.0,2617696187165.061,9826735630118.207,385271415144587.44,1.432654303582617e+16
9.281673745785717,1.073344204126012e+16,3.827358428418246e+16,4499578763577672.0,7724643310058657.0,2722484196543.1724,10220110719086.7,400698964417327.9,1.4902278609953104e+16
9.567307220701432,1.0820606645125802e+16,3.906668740513857e+16,4536119140541036.0,7787373945967749.0,2829910959987.1997,10623392007455.904,416515242059044.25,1.549261912847757e+16
9.85865336511546,1.0906260950378172e+16,3.987182320146789e+16,4572026383481003.0,7849017650405581.0,2940021234350.1245,11036747530525.627,432726846559872.9,1.6097814601878392e+16
10.155826432417769,1.0990431093588716e+16,4.068930957468786e+16,4607311449139017.0,7909593233328297.0,3052860688607.47,11460348748383.885,449340510772479.6,1.6718120078422318e+16
10.458942961066125,1.1073142366492802e+16,4.151946789245524e+16,4641984940091854.0,7969118896680563.0,3168475921071.5483,11894370610557.018,466363104446515.6,1.7353795738211972e+16
10.768121820287448,1.1154419280017916e+16,4.236262322599888e+16,4676057131592939.0,8027612280475439.0,3286914477274.074,12338991623169.844,483801636861626.44,1.800510699095052e+16
11.083484256693197,1.123428562267754e+16,4.3219104579225704e+16,4709537996051636.0,8085090504819194.0,3408224868500.2764,12794393918552.709,501663259556536.2,1.8672324577333744e+16
11.405153941827061,1.1312764513851358e+16,4.408924511053719e+16,4742437225369030.0,8141570208256055.0,3532456590959.4136,13260763327239.11,519955269151994.8,1.9355724673990572e+16
11.733257020663602,1.138987845241805e+16,4.497338234827796e+16,4774764251325219.0,8197067582768281.0,3659660145578.59,13738289452304.443,538685110265667.25,2.0055589001902776e+16
12.067922161076874,1.1465649361158044e+16,4.587185840064947e+16,4806528264193525.0,8251598405731910.0,3789887058408.185,14227165746002.076,557860378517258.1,2.077220493824432e+16
12.409280604298411,1.1540098627301636e+16,4.678502016083744e+16,4837738229738698.0,8305178069098439.0,3923189901628.8877,14727589588659.584,577488823622398.4,2.150586563158593e+16
12.75746621638438,1.1613247139560292e+16,4.77132195080267e+16,4868402904740824.0,8357821606045460.0,4059622315151.4326,15239762369801.121,597578352573991.9,2.2256870120421244e+16
13.112615540712067,1.1685115321945806e+16,4.8656813504917784e+16,4898530851172688.0,8409543715315696.0,4199239028801.5557,15763889571468.766,618137032909935.4,2.302552345497339e+16
13.474867851526309,1.175572316465292e+16,4.961616459229764e+16,4928130449146229.0,8460358783442697.0,4342095885083.722,16300180853717.83,639173096066260.4,2.381213682225079e+16
13.844365208556836,1.1825090252255376e+16,5.0591640781173464e+16,4957209908732434.0,8510280905042679.0,4488249862518.17,16848850142266.484,660694940814906.0,2.4617027674323304e+16
14.221252512727972,1.1893235789440968e+16,5.158361584292682e+16,4985777280750010.0,8559323901335889.0,4637759099547.05,17410115718283.22,682711136785503.4,2.5440519859796676e+16
14.605677562982532,1.1960178624492674e+16,5.25924694979144e+16,5013840466608661.0,8607501337045244.0,4790682919005.953,17984200310298.984,705230428070629.4,2.6282943758467904e+16
14.997791114242183,1.2025937270702316e+16,5.361858760289992e+16,5041407227286189.0,8654826535807426.0,4947081853158.362,18571331188234.31,728261736914192.1,2.7144636419148476e+16
15.397746936527026,1.2090529925888516e+16,5.466236233767631e+16,5068485191510460.0,8701312594219571.0,5107017669291.171,19171740259534.703,751814167482640.9,2.8025941700646348e+16
15.805701875257567,1.2153974490174884e+16,5.572419239120521e+16,5095081863212324.0,8746972394633797.0,5270553395870.226,19785664167410.625,775897009718897.8,2.8927210415902056e+16
16.221815912762718,1.221628858217136e+16,5.680448314758116e+16,5121204628308949.0,8791818616802769.0,5437753349255.651,20413344391180.7,800519743278928.9,2.9848800479278696e+16
16.64625223101797,1.2277489553690212e+16,5.7903646872101976e+16,5146860760872978.0,8835863748470261.0,5608683160977.214,21055027348720.21,825692041551066.8,3.079107705700768e+16
17.079177275638333,1.233759450311611e+16,5.90221028977092e+16,5172057428737351.0,8879120094993512.0,5783409805571.072,21710964501019.086,851423775758199.1,3.1754412720797412e+16
17.5207608211511,1.2396620287541408e+16,6.016027781204628e+16,5196801698582666.0,8921599788076739.0,5962001628979.438,22381412458855.105,877725019143135.4,3.273918760461448e+16
17.97117603757412,1.245458353376786e+16,6.131860564536273e+16,5221100540549109.0,8963314793688761.0,6144528377515.618,23066633091593.023,904606051237458.1,3.3745789564650424e+16
18.430599558325603,1.2511500648268372e+16,6.249752805948414e+16,5244960832412565.0,9004276919232332.0,6331061227397.438,23766893638119.156,932077362214331.5,3.477461434249103e+16
18.899211549492115,1.2567387826194896e+16,6.369749453804968e+16,5268389363360830.0,9044497820026986.0,6521672814852.631,24482466819926.496,960149657325812.8,3.5826065731506356e+16
19.37719578048196,1.2622261059512164e+16,6.491896257821282e+16,5291392837403407.0,9083989005162594.0,6716437266800.306,25213630956365.14,988833861425224.8,3.690055574648622e+16
19.864739696091597,1.2676136144330306e+16,6.6162397883986184e+16,5313977876445360.0,9122761842776624.0,6915430232113.346,25960670082076.33,1018141123575371.2,3.799850479654436e+16
20.36203449001343,1.2729028687504726e+16,6.742827456140736e+16,5336151023054038.0,9160827564803868.0,7118728913466.952,26723874066630.168,1048082821743309.6,3.912034186132133e+16
20.869275179813698,1.2780954112565156e+16,6.871707531568954e+16,5357918742944723.0,9198197271243626.0,7326412099779.148,27503538736388.79,1078670567582570.5,4.0266504670517304e+16
21.38666068340997,1.2831927665032956e+16,7.002929165051841e+16,5379287427209535.0,9234881933986048.0,7538560199249.67,28299965998619.414,1109916211303792.8,4.143743988678822e+16
21.91439389707817,1.2881964417178864e+16,7.1365424069646504e+16,5400263394312113.0,9270892400236818.0,7755255273004.15,29113463967882.645,1141831846634719.5,4.263360329204308e+16
22.452681775019734,1.293107927227253e+16,7.27259822809332e+16,5420852891868884.0,9306239395574814.0,7976581069350.909,29944347094724.39,1174429815870726.5,4.385545997718216e+16
23.00173541052013,1.2979286968368384e+16,7.41114854029709e+16,5441062098236259.0,9340933526677188.0,8202623058658.311,30792936296701.598,1207722715017003.8,4.510348453531667e+16
23.561770118730532,1.3026602081671264e+16,7.552246217443667e+16,5460897123921538.0,9374985283741342.0,8433468468861.13,31659559091772.32,1241723399023625.8,4.637816125851832e+16
24.133005521105144,1.3073039029521134e+16,7.69594511663016e+16,5480364012834054.0,9408405042632920.0,8669206321604.642,32544549734084.773,1276444987114880.2,4.767998433814295e+16
24.715665631527248,1.3118612073033008e+16,7.842300099702707e+16,5499468743392013.0,9441203066785872.0,8909927469036.135,33448249352200.344,1311900868214142.0,4.900945806878071e+16
25.309978944157795,1.316333531942659e+16,7.99136705508761e+16,5518217229498900.0,9473389508878914.0,9155724631253.326,34371006089787.305,1348104706465844.0,5.0367097055884904e+16
25.91617852304095,1.320722272407618e+16,8.143202919946312e+16,5536615321402983.0,9504974412310876.0,9406692434420.127,35313175248824.45,1385070446855999.5,5.175342642713398e+16
26.53450209350177,1.3250288092310488e+16,8.297865702666197e+16,5554668806451769.0,9535967712495934.0,9662927449560.596,36275119435355.44,1422812320932897.0,5.316898204758613e+16
27.165192135371807,1.329254508098859e+16,8.455414505699443e+16,5572383409752659.0,9566379237997886.0,9924528232042.25,37257208707835.28,1461344852629587.2,5.461431073868572e+16
27.808495978079243,1.3334007199877524e+16,8.615909548761258e+16,5589764794750387.0,9596218711521412.0,10191595361760.271,38259820728113.89,1500682864189957.0,5.608997050118326e+16
28.464665897640828,1.3374687812853258e+16,8.779412192399651e+16,5606818563730647.0,9625495750776584.0,10464231484034.875,39283340915102.055,1540841482200068.0,5.759653074203673e+16
29.133959215593645,1.3414600138947644e+16,8.945984961947606e+16,5623550258258750.0,9654219869232194.0,10742541351234.252,40328162601166.4,1581836143726725.5,5.91345725053584e+16
29.816638399905518,1.3453757253259378e+16,9.11569157186933e+16,5639965359561759.0,9682400476771342.0,11026631865136.172,41394687191303.03,1623682602565098.0,6.070468870747925e+16
30.51297116790363,1.3492172087748072e+16,9.288596950511816e+16,5656069288861185.0,9710046880263074.0,11316612120041.361,42483324325140.08,1666396935597413.0,6.230748437620305e+16
31.223230591261704,1.3529857431927166e+16,9.464767265272736e+16,5671867407663523.0,9737168284060912.0,11612593446652.732,43594492041820.69,1709995549264751.8,6.394357689432231e+16
31.947695203086937,1.356682593347127e+16,9.644269948195966e+16,5687365018014908.0,9763773790439880.0,11914689456734.629,44728616947820.664,1754495186154049.8,6.561359624747488e+16
32.686649107148675,1.3603090098751758e+16,9.827173722005862e+16,5702567362725578.0,9789872399982194.0,12223016088566.346,45886134387755.28,1799912931702435.2,6.731818527642038e+16
33.44038208929165,1.3638662293313284e+16,1.0013548626591019e+17,5717479625569654.0,9815473011920016.0,12537691653205.398,47067488618232.7,1846266221021145.0,6.905799993381471e+16
34.20918973107749,1.3673554742303062e+16,1.020346604594896e+17,5732106931465075.0,9840584424444360.0,12858836881575.734,48273132984810.05,1893572845841293.2,7.083370954556947e+16
34.993373525699035,1.3707779530863194e+16,1.0396998735602618e+17,5746454346638155.0,9865215334987658.0,13186574972396.37,49503530102114.58,1941850961583814.5,7.264599707687875e+16
35.793240996213015,1.374134860449647e+16,1.0594220850499763e+17,5760526878776766.0,9889374340486670.0,13521031640967.182,50759152037188.555,1991119094555960.5,7.44955594030034e+16
36.60910581613728,1.3774273769413174e+16,1.079520797340635e+17,5774329477175910.0,9913069937632514.0,13862335168827.979,52040480496121.02,2041396149276837.8,7.63831075849003e+16
37.44128793246003,1.380656669286838e+16,1.1000037143805288e+17,5787867032878999.0,9936310523113024.0,14210616454307.887,53348007014030.9,2092701415934413.0,7.83093671497896e+16
38.29011369110923,1.3838238903495798e+16,1.1208786887310936e+17,5801144378817805.0,9959104393853180.0,14566009063982.338,54682233148465.02,2145054577976656.0,8.027507837675349e+16
39.15591596493141,1.3869301791644962e+16,1.1421537245612048e+17,5814166289953885.0,9981459747257764.0,14928649285055.363,56043670676280.15,2198475719839275.0,8.228099658746312e+16
40.03903428423004,1.3899766609727746e+16,1.1638369806952789e+17,5826937483423783.0,1.0003384681460696e+16,15298676178684.941,57432841794074.24,2252985334812887.0,8.432789244212992e+16
40.93981496991464,1.3929644472579094e+16,1.1859367737164584e+17,5839462618690314.0,1.0024887195584734e+16,15676231634270.3,58850279322237.95,2308604333052166.0,8.6416552240783e+16
41.85861126931294,1.395894635783686e+16,1.2084615811259363e+17,5851746297701627.0,1.00459751900146e+16,16061460424719.188,60296526912697.38,2365354049729897.5,8.854777822997307e+16
