t(s),Total solute volume 1,Total retention volume 1,Total 1 volume 1,Total 2 volume 1,Total 3 volume 1,Total 4 volume 1,Total 5 volume 1,Total 6 volume 1
0.1,919935341976466.9,1072551036543860.6,72903600131805.52,79712094435588.67,0.0,0.0,0.0,0.0
0.202,1383599148911037.5,1617927953420468.8,109648314060663.72,119888411450616.77,8225412287.192668,15427479222.223293,215818642184.7087,4552607464458.467
0.30604000000000003,1734899238716266.0,2034853777516901.5,137488359094215.61,150328448861963.25,20833490187.806984,39075143544.812805,546633037054.8084,11531189173669.3
0.41216080000000005,2030475665454387.0,2388849999480863.5,160912381081962.0,175940049131665.03,36940364834.75077,69285279572.11304,969252324553.4968,20446425843887.16
0.5204040160000001,2291557538214638.0,2704433952605834.5,181602757492927.03,198562707622406.03,56145016561.02267,105305793414.41322,1473155188884.6482,31076343277005.816
0.6308120963200001,2528729058262850.0,2993816084112668.5,200398271603858.88,219113541904150.34,78224903911.49333,146719340328.4509,2052503283031.3464,43297764814534.99
0.7434283382464002,2748144067272767.5,3264092868095946.5,217786606835374.16,238125780338418.53,103045661421.7254,193273957016.84012,2703771849692.514,57036322181247.36
0.8582969050113283,2953744727682352.5,3519811903365020.5,234080174094873.9,255941010006080.78,130523928849.0921,244813345675.46155,3424774433972.275,72245879873220.9
0.9754628431115548,3148231262973211.0,3764091836377374.5,249492962349350.25,272793204384960.28,160608994124.98917,301242444418.912,4214181234465.6143,88898373996845.56
1.094972099973786,3333546266033354.5,3999181074351985.5,264178919391694.94,288850688510662.1,193272596266.3261,362508302226.5732,5071251555857.488,106978167961919.31
1.2168715419732616,3511140736238926.5,4226764372985823.0,278253034910584.4,304239191002421.1,228502773155.43988,428588540287.158,5995672390673.465,126478647129775.64
1.3412089728127268,3682131079413615.0,4448143583083767.0,291803782519585.6,319055448058047.7,266299914991.14233,499483950211.65295,6987454873253.722,147400034354058.5
1.4680331522689813,3847397102859803.0,4664350356392189.0,304900885727505.06,333375694691203.75,306674110057.2518,575213516064.7711,8046864641416.22,169747920846136.4
1.597393815314361,4007646003085508.5,4876219669023085.0,317600388877029.7,347261209246927.2,349643291422.2957,655810938591.4843,9174373212867.338,193532240370746.1
1.729341691620648,4163455727358950.0,5084439599446902.0,329948093487803.75,360762070666094.4,395231902986.73004,741322133512.9554,10370622988216.4,218766530909327.03
1.863928525453061,4315305285606766.5,5289586095560260.0,341981960432332.44,373919785001438.4,443469915060.87573,831803385391.5679,11636401424977.623,245467389794300.12
2.001207095962122,4463596507494578.0,5492147909108817.0,353733834154451.6,386769170661441.3,494392082638.96735,927319956691.5365,12972621579465.047,273654063179560.06
2.1412312378813647,4608670018582838.0,5692544890963759.0,365230708757524.2,399339742738975.56,548037376723.2548,1027945021410.7083,14380307189229.914,303348131297064.0
2.284055862638992,4750817206261555.0,5891141684444049.0,376495676288183.4,411656749855635.8,604448541894.7751,1133758835501.9678,15860581068034.576,334573263593244.44
2.4297369798917723,4890289339403205.0,6088258154906179.0,387548649456166.2,423741964376649.0,663671747841.3241,1244848083524.1484,17414655966167.479,367355025872626.4
2.578331719489608,5027304626714407.0,6284177457529464.0,398406920998914.4,435614294014737.3,725756312049.585,1361305358773.4836,19043827298070.26,401720726832501.06
2.7298983538794,5162053755328386.0,6479152365114256.0,409085602607332.4,447290261747329.56,790754477243.776,1483228746104.053,20749467306523.137,437699294901335.5
2.884496320956988,5294704290846050.0,6673410293328618.0,419597973622951.56,458784387078684.94,858721231531.4243,1610721484857.122,22533020347510.31,475321178717034.1
3.0421862473761276,5425404212063466.0,6867157336743741.0,429955761160179.44,470109492322853.44,929714162285.1068,1743891695074.2058,24395999060391.418,514618266279497.0
3.2030299723236504,5554284779446602.0,7060581543792062.0,440169367428940.8,481276951156078.06,1003793336978.4086,1882852154274.7456,26339981245447.84,555623819023743.2
3.3670905717701234,5681462884529812.0,7253855599214776.0,450248055921254.75,492296892191401.94,1081021205782.437,2027720115057.9656,28366607312543.76,598372417938921.0
3.5344323832055258,5807042990523432.0,7447139040235611.0,460200105201697.44,503178367131673.9,1161462521898.3093,2178617155981.1753,30477578195312.637,642899919505608.4
3.7051210308696363,5931118747792191.0,7640580102165337.0,470032936931819.56,513929490750226.44,1245184276473.2703,2335669059802.7026,32674653648168.863,689243419706656.2
3.879223451487029,6053774348388143.0,7834317266816162.0,479753223215012.25,524557558260705.75,1332255645607.2656,2499005714413.783,34959650860735.367,737441224731546.9
4.0568079205167695,6175085669391943.0,8028480570574534.0,489366977204705.0,535069144387216.9,1422747947460.0713,2668761032728.0566,37334443337487.0,787532827273004.9
4.237944078927105,6295121244001738.0,8223192716599175.0,498879630061829.8,545470187508865.9,1516734607858.0547,2845072888526.46,39800960000614.49,839558887529748.5
4.422702960505647,6413943091117546.0,8418570026236756.0,508296096698217.75,555766061542959.94,1614291133102.6992,3028083065823.847,42361184482061.586,893561218197041.6
4.61115701971576,6531607427900509.0,8614723257578905.0,517620832245941.9,565961637688041.2,1715495088921.4817,3217937219771.2417,45017154576952.51,949582772858775.2
4.803380160110075,6648165284948267.0,8811758313553282.0,526857880809108.44,576061337728627.0,1820426084691.0447,3414784847462.2407,47770961835586.56,1007667637299532.1
4.9994477633122765,6763663039957679.0,9009776857633976.0,536010917755888.44,586069180276915.1,1929165762213.852,3618779267296.135,50624751275153.62,1067861023338830.4
5.199436718578522,6878142882786969.0,9208876851878334.0,545083286574048.4,595988821070263.4,2041797788451.6023,3830077605779.265,53580721195519.89,1130209264857330.2
5.403425452950093,6991643222488562.0,9409153029324842.0,554078031127735.1,605823588240438.5,2158407851717.5012,4048840790831.587,56641123086035.35,1194759815739533.0
5.611493962009095,7104199045018075.0,9610697310658928.0,562997924005423.6,615576513309006.8,2279083660910.5854,4275233550817.091,59808261612432.57,1261561249502262.8
5.823723841249277,7215842228829527.0,9813599173349234.0,571845491530393.0,625250358533532.5,2403914947441.5815,4509424418641.842,63084494674635.86,1330663260415075.0
6.040198318074262,7326601824358482.0,1.0017945980079378e+16,580623035909382.9,634847641124713.6,2532993469554.95,4751585740366.041,66472233527739.19,1402116665949139.0
6.261002284435747,7436504302415333.0,1.0223823272185136e+16,589332654917412.5,644370654769575.8,2666413018797.4375,5001893687863.065,69973942959617.73,1475973410416522.8
6.486222330124463,7545573775709364.0,1.0431315032895332e+16,597976259453261.0,653821488826457.2,2804269428421.8994,5260528275129.717,73592141519639.45,1552286569683051.8
6.715946776726952,7653832197067978.0,1.0640503924427592e+16,606555589248058.4,663202045500637.4,2946660583547.3267,5527673377912.954,77329401793794.12,1631110356855653.5
6.950265712261491,7761299537372336.0,1.0851471502373128e+16,615072226966448.4,672514055262408.2,3093686432923.2812,5803516756369.288,81188350722268.52,1712500128860370.8
7.18927102650672,7867993945781908.0,1.1064298410295238e+16,623527610904155.2,681759090730479.2,3245449002170.2134,6088250080516.639,85171669956111.25,1796512393839911.2
7.433056447036854,7973931894445464.0,1.1279064557040264e+16,631923046456126.2,690938579211125.2,3402052408386.966,6382068958275.687,89282096250147.39,1883204819310725.5
7.681717575977592,8079128309583160.0,1.1495849278904826e+16,640259716504613.6,700053814056418.1,3563602876033.6934,6685172965929.838,93522421889754.72,1972636241028899.2
7.935351927497144,8183596690560954.0,1.171473148850541e+16,648538690855652.6,709105964981981.1,3730208754013.3213,6997765680860.344,97895495149490.45,2064866672522458.8
8.194058966047088,8287349218357298.0,1.1935789811944578e+16,656760934834896.1,718096087465600.4,3901980533887.22,7320054716437.407,102404220781911.52,2159957315254536.2
8.45794014536803,8390396854633491.0,1.2159102715655456e+16,664927317138802.8,727025131331618.5,4079030869172.025,7652251758968.337,107051560535197.31,2257970569388225.0
8.72709894827539,8492749432460147.0,1.238474862412701e+16,673038617024582.9,735893948612373.2,4261474595674.188,7994572606623.114,111840533698464.22,2358970045129141.0
9.0016409272409,8594415739615578.0,1.2612806029556594e+16,681095530911483.4,744703300765967.8,4449428752827.41,8347237210272.564,116774217673871.56,2463020574626614.0
9.281673745785717,8695403595255991.0,1.2843353594347872e+16,689098678456791.8,753453865319716.9,4643012606005.548,8710469716189.675,121855748574818.06,2570188224418373.0
9.567307220701432,8795719920657251.0,1.3076470247256878e+16,697048608162020.0,762146241999891.5,4842347669790.489,9084498510576.238,127088321849712.86,2680540308407626.5
9.85865336511546,8895370804641742.0,1.3312235273894028e+16,704945802557902.6,770780958400952.6,5047557732180.22,9469556265888.857,132475192930947.2,2794145401364407.5
10.155826432417769,8994361564230110.0,1.3550728402205732e+16,712790683010951.9,779358475240986.6,5258768879727.469,9865879988947.809,138019677908851.17,2911073352946164.0
10.458942961066125,9092696800992808.0,1.3792029883486728e+16,720583614189242.2,787879191244559.9,5476109523604.764,10273711070821.988,143725154230524.72,3031395302235160.5
10.768121820287448,9190380453521084.0,1.4036220569412372e+16,728324908220671.0,796343447689302.5,5699710426594.856,10693295338489.887,149595061423561.78,3155183692792687.5
11.083484256693197,9287415846387782.0,1.4283381985525286e+16,736014828573022.4,804751532648356.6,5929704731010.536,11124883108285.342,155632901844779.12,3282512288232058.0
11.405153941827061,9383805735926618.0,1.4533596401562974e+16,743653593681920.6,813103684957124.2,6166227987550.208,11568729241142.404,161842241454153.88,3413456188314458.5
11.733257020663602,9479552353121002.0,1.4786946898972634e+16,751241380349706.9,821400097929578.1,6409418185099.641,12025093199659.404,168226710614261.62,3548091845573335.5
12.067922161076874,9574657443860906.0,1.5043517435921906e+16,758778326935739.2,829640922846511.5,6659415781492.611,12494239107009.06,174790004915575.6,3686497082474655.5
12.409280604298411,9669122306798478.0,1.5303392910083416e+16,766264536356400.4,837826272235690.9,6916363735245.726,12976435807724.316,181535886028061.72,3828751109121800.5
12.75746621638438,9762947829006410.0,1.5566659219442294e+16,773700078910961.9,845956222961670.2,7180407538285.376,13471956930395.836,188468182579560.4,3974934541515018.5
13.112615540712067,9856134519622544.0,1.5833403321351884e+16,781084994947896.0,854030819141067.6,7451695249686.649,13981080952320.34,195590791061514.9,4125129420376858.0
13.474867851526309,9948682541643476.0,1.6103713290040236e+16,788419297384452.9,862050074897474.0,7730377530445.82,14504091266142.314,202907676762634.47,4279419230555605.5
13.844365208556836,1.0040591742012858e+16,1.6377678372751782e+16,795702974091124.0,870013976968597.9,8016607679310.144,15041276248535.889,210422874731158.75,4437888921020202.0
14.221252512727972,1.0131861680134688e+16,1.6655389044690648e+16,802935990151290.4,877922487176932.6,8310541669689.963,15592929330975.873,218140490766401.97,4600624925460677.0
14.605677562982532,1.0222491654928216e+16,1.6936937062917138e+16,810118290005268.6,885775544774052.8,8612338187679.539,16159349072649.861,226064702440310.3,4767715183508961.0
14.997791114242183,1.0312480730529034e+16,1.722241551933615e+16,817249799487098.5,893573068667602.9,8922158671214.488,16740839235566.318,234199760149802.28,4939249162595787.0
15.397746936527026,1.0401827760729536e+16,1.7511918892902924e+16,824330427761411.8,901314959539052.0,9240167350394.467,17337708861914.871,242549988200681.16,5115317880460003.0
15.805701875257567,1.049053141224288e+16,1.780554310116295e+16,831360069167078.5,909001101859532.1,9566531289001.557,17950272353737.715,251119785923945.94,5296013928326787.0
16.221815912762718,1.0578590186866286e+16,1.8103385551230428e+16,838338604973597.6,916631365810246.6,9901420427244.11,18578849554972.547,259913628825346.94,5481431494772748.0
16.64625223101797,1.0666002442610024e+16,1.8405545190304424e+16,845265905055559.0,924205609113313.2,10245007625758.732,19223765835929.246,268936069769059.34,5671666390294766.0
17.079177275638333,1.07527664138542e+16,1.8712122555811696e+16,852141829490027.8,931723678778332.6,10597468710901.678,19885352180262.43,278191740196357.1,5866816072601631.0
17.5207608211511,1.0838880230586778e+16,1.9023219825259532e+16,858966230081140.4,939185412769365.5,10958982521362.867,20563945274506.285,287685351380197.3,6066979672646172.0
17.97117603757412,1.0924341936772834e+16,1.9338940865875344e+16,865738951815837.6,946590641596607.5,11329730956135.297,21259887600235.24,297421695716628.94,6272258021417102.0
18.430599558325603,1.100914950789845e+16,1.965939128410504e+16,872459834254193.9,953939189836584.5,11709899023873.93,21973527528917.5,307405648053956.44,6482753677509091.0
18.899211549492115,1.1093300867729648e+16,1.9984678475035804e+16,879128712857543.0,961230877584288.2,12099674893677.193,22705219419528.188,317642167060596.7,6698570955490523.0
19.37719578048196,1.1176793904321856e+16,2.031491167180613e+16,885745420257201.0,968465521840394.5,12499249947325.482,23455323718989.316,328136296632571.3,6919815955087767.0
19.864739696091597,1.1259626485312308e+16,2.0650201995060624e+16,892309787466372.9,975642937836357.0,12908818833010.232,24224207065504.02,338893167341584.8,7146596591205467.0
20.36203449001343,1.1341796472524848e+16,2.0990662502504252e+16,898821645037552.4,982762940299895.9,13328579520588.67,25012242394852.555,349917997924639.9,7379022624801881.0
20.869275179813698,1.142330173591328e+16,2.1336408238607016e+16,905280824167534.5,989825344663193.2,13758733358396.178,25819809049718.4,361216096816137.4,7617205694638749.0
21.38666068340997,1.1504140166867496e+16,2.1687556284507056e+16,911687157751882.6,996829968215854.8,14199485131652.607,26647292892111.555,372792863723418.56,7861259349924645.0
21.91439389707817,1.158430969090408e+16,2.2044225808158444e+16,918040481390661.2,1003776631204556.8,14651043122493.91,27495086418956.35,384653791246682.8,8111299083871027.0
22.452681775019734,1.1663808279761222e+16,2.240653811476582e+16,924340634346923.5,1010665157881058.8,15113619171663.852,28363588880911.246,396804466544242.1,8367442368179783.0
23.00173541052013,1.1742633962915984e+16,2.277461669754729e+16,930587460459463.5,1017495377500183.2,15587428741897.951,29253206404486.633,409250573044022.9,8629808688481235.0
23.561770118730532,1.1820784838541004e+16,2.3148587288864996e+16,936780809011087.0,1024267125269189.4,16072690983032.723,30164352117526.473,421997892202266.4,8898519580740902.0
24.133005521105144,1.189825908391515e+16,2.3528577911759464e+16,942920535553667.4,1030980243249868.8,16569628798871.77,31097446278120.074,435052305310330.25,9173698668653470.0
24.715665631527248,1.1975054965302982e+16,2.3914718931924132e+16,949006502691073.0,1037634581214594.6,17078468915841.064,32052916407007.047,448419795350498.94,9455471702042072.0
25.309978944157795,1.2051170847315868e+16,2.430714311015358e+16,955038580821012.0,1044229997457460.9,17599441953463.195,33031197423539.76,462106448901708.6,9743966596280512.0
25.91617852304095,1.2126605201767e+16,2.470598565529917e+16,961016648836796.2,1050766359561560.4,18132782496682.457,34032731785266.305,476118458096060.0,1.0039313472755842e+16
26.53450209350177,1.2201356616032032e+16,2.5111384277762132e+16,966940594789900.4,1057243545123438.2,18678729170069.223,35057969631194.812,490462122626983.7,1.0341644700388494e+16
27.165192135371807,1.227542380092612e+16,2.5523479243555572e+16,972810316514208.4,1063661442435628.1,19237524713933.38,36107368928800.375,505143851809924.44,1.0651094938226936e+16
27.808495978079243,1.2348805598107902e+16,2.5942413428964764e+16,978625722212760.6,1070019951128207.8,19809416062374.562,37181395624833.91,520170166696374.25,1.0967801179132326e+16
28.464665897640828,1.2421500987020152e+16,2.6368332375833824e+16,984386731007815.9,1076318982770208.6,20394654423297.43,38280523799990.33,535547702242072.0,1.1291902794570288e+16
29.133959215593645,1.2493509091377294e+16,2.6801384347506704e+16,990093273454943.8,1082558461431745.9,20993495360417.83,39405235827494.67,551283209530183.2,1.1623541580524642e+16
29.816638399905518,1.256482918520826e+16,2.7241720385449188e+16,995745292021946.4,1088738324207654.9,21606198877286.49,40556022535660.23,567383558050234.0,1.1962861804548104e+16
30.51297116790363,1.2635460698465052e+16,2.7689494366578412e+16,1001342741533291.5,1094858521703425.1,22233029503354.914,41733383374474.65,583855738033590.2,1.231001025396521e+16
31.223230591261704,1.2705403222204544e+16,2.814486306132538e+16,1006885589580808.6,1100919018484252.8,22874256382107.6,42937826586265.8,600706862846200.0,1.2665136285241176e+16
31.947695203086937,1.2774656513353934e+16,2.8607986192455164e+16,1012373816901305.0,1106919793487942.5,23530153361284.33,44169869380499.48,617944171439367.4,1.302839187453083e+16
32.686649107148675,1.2843220499067748e+16,2.9079026494669812e+16,1017807417721872.8,1112860840402421.2,24200999085214.33,45430038112760.61,635575030859234.1,1.3399931669420578e+16
33.44038208929165,1.2911095280685362e+16,2.9558149775017268e+16,1023186400073510.2,1118742168008701.6,24887077089284.848,46718868467965.0,653606938815704.5,1.3779913041876684e+16
34.20918973107749,1.2978281137298658e+16,3.0045524974130252e+16,1028510786073853.4,1124563800489967.9,25588675896563.07,48036905647850.29,672047526311440.0,1.4168496142411948e+16
34.993373525699035,1.3044778528937346e+16,3.0541324228318344e+16,1033780612179619.9,1130325777707627.5,26306089116593.258,49384704562793.445,690904560331639.2,1.4565843955482732e+16
35.793240996213015,1.3110588099382722e+16,3.104572293253497e+16,1038995929409569.0,1136028155445096.2,27039615546385.848,50762830027996.836,710185946595172.1,1.4972122356128082e+16
36.60910581613728,1.3175710678617456e+16,3.1558899804243196e+16,1044156803538681.1,1141671005620070.2,27789559273618.195,52171856964090.25,729899732367765.4,1.5387500167861536e+16
37.44128793246003,1.3240147284921482e+16,3.2081036948200384e+16,1049263315264211.1,1147254416466145.8,28556229782061.992,53612370602187.914,750054109337766.8,1.5812149221826548e+16
38.29011369110923,1.3303899126622962e+16,3.2612319922184916e+16,1054315560344493.9,1152778492684537.8,29339942059256.145,55084966693443.0,770657416555138.4,1.6246244417225172e+16
39.15591596493141,1.336696760351399e+16,3.3152937803685812e+16,1059313649711102.0,1158243355566752.2,30141016706436.633,56590251723140.14,791718143434184.6,1.6689963783030234e+16
40.03903428423004,1.342935430794071e+16,3.3703083257575316e+16,1064257709555251.9,1163649143089029.2,30959780050741.85,58128843129361.81,813244932820616.6,1.7143488540989552e+16
40.93981496991464,1.3491061025577188e+16,3.4262952604786576e+16,1069147881389133.1,1168996009979420.2,31796564259703.07,59701369526269.25,835246584123461.6,1.76070031699314e+16
41.85861126931294,1.355208973589341e+16,3.483274589201645e+16,1073984322082993.9,1174284127758324.0,32651707458035.52,61308470932030.86,857732056512328.0,1.80806954713793e+16
42.7957834946992,1.3612442612327234e+16,3.5412666962472412e+16,1078767203878758.9,1179513684753392.0,33525553846739.363,62950799001435.45,880710472180551.2,1.856475663648424e+16
43.751699164593184,1.3672122022170248e+16,3.600292352768508e+16,1083496714381001.2,1184684886089636.8,34418453824523.76,64629017263223.65,904191119674693.9,1.9059381314281816e+16
