t(s),Total solute volume 1,Total retention volume 1,Total 1 volume 1,Total 2 volume 1,Total 3 volume 1,Total 4 volume 1,Total 5 volume 1,Total 6 volume 1
0.1,1323473711248431.8,2617890617675497.5,487117646595586.6,807299259831480.0,0.0,0.0,0.0,-8.892789209081686e-83
0.202,1988051151538838.2,3933761357914609.0,731721999577501.1,1212681820838198.5,272065506.8716258,967440217.6481941,35043009093.658875,1270103445254.492
0.30604000000000003,2495287436061066.5,4939125847495348.0,918415362057105.5,1522088484364536.8,689786159.9619358,2452844279.0178494,88898532097.30559,3242523850107.536
0.41216080000000005,2924315945077576.5,5790366273181516.0,1076323573356343.2,1783789546861981.0,1224732660.4810932,4355106310.493665,157878702470.60626,5773749344169.467
0.5204040160000001,3305179302790851.5,6546844971105331.0,1216504121186128.0,2016110574622852.2,1864217836.6423893,6629109239.642175,240344320072.31052,8802134858351.371
0.6308120963200001,3652890283131095.0,7238224086382539.0,1344482606581440.0,2228209140299091.8,2601406629.566849,9250547098.204119,335412869957.22156,12294791547228.418
0.7434283382464002,3976185066163726.5,7881764779555851.0,1463474467604218.8,2425414185496006.0,3432365320.7857947,12205431353.956167,442576551716.79694,16232845943510.213
0.8582969050113283,4280663544486780.0,8488532818026352.0,1575540800465972.0,2611141562329800.0,4354847428.762974,15485773395.053013,561545377702.7407,20605524745274.895
0.9754628431115548,4570164192676688.0,9066115160046020.0,1682094393934954.5,2787732683765898.0,5367695036.813372,19087455597.563725,692169855204.7717,25407264662644.027
1.094972099973786,4847451167676124.0,9619977431584916.0,1784152623479414.2,2956873644804170.0,6470507029.805627,23009051552.430347,834398153826.3308,30636117912803.855
1.2168715419732616,5114591828607916.0,1.0154209694647096e+16,1882476401194694.5,3119825504028441.5,7663439599.941365,27251116653.021793,988250354681.3876,36292795905109.17
1.3412089728127268,5373179526363895.0,1.0671966508508578e+16,1977652175729482.5,3277560181982687.0,8947078858.991758,31815735098.356014,1153802009255.7761,42380059609305.7
1.4680331522689813,5624472642874513.0,1.1175741537303094e+16,2070143107072995.0,3430845273080451.5,10322355691.649557,36706217108.21693,1331173151061.738,48902312551283.87
1.597393815314361,5869485358562386.0,1.166754680265827e+16,2160322474419620.0,3580299412415516.5,11790486790.220291,41926889240.43822,1520520686555.2095,55865319198171.016
1.729341691620648,6109049143465639.0,1.2149034109938416e+16,2248496308588821.0,3726429784441431.0,13352932672.886705,47482945102.52724,1722032977947.6113,63276004586791.836
1.863928525453061,6343855728279395.0,1.262157989713188e+16,2334919207944560.5,3869658334673643.5,15011367141.987883,53380336744.43637,1935925902359.2966,71142308628054.06
2.001207095962122,6574487936488149.0,1.3086346111482376e+16,2419805686468402.5,4010340576835797.5,16767654697.12627,59625694338.98833,2162439937492.4631,79473078403501.2
2.1412312378813647,6801442315301579.0,1.3544324891675282e+16,2503338503300641.0,4148779397396886.0,18623833632.791977,66226266076.6336,2401837980821.958,88277987595652.02
2.284055862638992,7025146078718113.0,1.399637201955987e+16,2585674898803381.0,4285235390590165.5,20582103296.097652,73189872853.68983,2654403705578.283,97567475766476.19
2.4297369798917723,7245970014550311.0,1.444323240365013e+16,2666951345119687.0,4419934731508269.0,22644814453.947857,80524874017.81891,2920440317938.599,107352702465455.58
2.578331719489608,7464238469239547.0,1.488555979397004e+16,2747287221183933.5,4553075266692851.0,24814462028.792713,88240141536.25508,3200269619826.722,117645512630322.61
2.7298983538794,7680237178712549.0,1.5323932245266734e+16,2826787694946482.0,4684831290841534.0,27093679670.026165,96345040691.63458,3494231308554.0635,128458410737241.27
2.884496320956988,7894219485962174.0,1.5758864396172402e+16,2905546011816150.5,4815357339440473.0,29485235770.8105,104849415917.79532,3802682462950.9585,139804541838954.7
3.0421862473761276,8106411332807230.0,1.6190817329295122e+16,2983645331927036.0,4944791233664140.0,31992030640.081398,113763580743.43156,4125997178538.61,151697678106789.56
3.2030299723236504,8317015308036489.0,1.6620206569380124e+16,3061160220098251.5,5073256549683453.0,34617094610.80055,123098311065.06303,4464566323493.582,164152209832766.8
3.3670905717701234,8526213960535122.0,1.7047408631338826e+16,3138157865263012.0,5200864639624019.0,37363586917.22267,132864841154.64322,4818797393828.174,177183140094776.84
3.5344323832055258,8734172533665519.0,1.7472766426625816e+16,3214699086884736.5,5327716299498035.0,40234795211.99392,143074861942.4214,5189114451119.299,190806082469253.75
3.7051210308696363,8941041239418973.0,1.789659376190116e+16,3290839171981183.5,5453903156403271.0,43234135622.27302,153740521216.58438,5575958129779.876,205037261311124.03
3.879223451487029,9146957163238152.0,1.8319179109393464e+16,3366628576213312.5,5579508830436695.0,46365153265.49718,164874425457.40912,5979785703631.835,219893514222967.34
4.0568079205167695,9352045869955658.0,1.874078878799904e+16,3442113514966933.0,5704609914293215.0,49631523161.78175,176489643081.85434,6401071203651.298,235392296413348.28
4.237944078927105,9556422765967152.0,1.9161669663897744e+16,3517336464714126.0,5829276804171233.0,53037051492.57396,188599708919.44565,6840305580386.657,251551686704488.53
4.422702960505647,9760194261150786.0,1.958205145655542e+16,3592336590669180.5,5953574408526362.0,56585677165.02726,201218629775.30856,7297996905820.116,268390394996356.5
4.61115701971576,9963458765165866.0,2.0002148718457104e+16,3667150113486261.5,6077562755798796.0,60281473649.301544,214360890963.74326,7774670610442.439,285927771031144.7
4.803380160110075,1.0166307545910082e+16,2.0422162543391236e+16,3741810625223147.5,6201297518059713.0,64128651062.1399,228041463717.55902,8270869752102.626,304183814331352.94
4.9994477633122765,1.0368825472578126e+16,2.084228204756912e+16,3816349362831305.0,6324830464265888.0,68131558474.973694,242275813395.85062,8787155313827.34,323179185208083.94
5.199436718578522,1.0571091661574636e+16,2.1262685659600576e+16,3890795445890622.5,6448209854257194.0,72294686428.76447,257079908426.9332,9324106528315.025,342935216754958.9
5.403425452950093,1.0773180040222246e+16,2.16835422488052e+16,3965176084087731.5,6571480782610109.0,76622669640.99312,272470229934.56842,9882321227222.668,363473927758361.56
5.611493962009095,1.09751598405657e+16,2.2105012116134976e+16,4039516758965553.5,6694685479851016.0,81120289892.82266,288463782004.8928,10462416213700.975,384818036467129.5
5.823723841249277,1.1177096033457592e+16,2.252724786780588e+16,4113841383692803.0,6817863577241926.0,85792479086.60527,305078102559.1034,11065027656910.227,406990975175077.1
6.040198318074262,1.137904971140276e+16,2.29503951883696e+16,4188172443973792.5,6941052340310140.0,90644322465.68411,322331274803.2766,11690811507478.482,430016905578165.8
6.261002284435747,1.1581078427254368e+16,2.3374593527220212e+16,4262531122708771.5,7064286875447661.0,95681061989.90681,340241939231.9023,12340443933053.436,453920734875153.75
6.486222330124463,1.1783236494720814e+16,2.379997671030124e+16,4336937410598594.5,7187600313216114.0,100908099861.50159,358829306166.1232,13014621773258.102,478728132586426.56
6.715946776726952,1.1985575255716852e+16,2.422667348694462e+16,4411410204545833.5,7311023971426818.0,106331002196.99666,378113168811.3136,13714063013493.586,504465548070609.1
6.950265712261491,1.218814331882416e+16,2.465480802026493e+16,4485967395422729.5,7434587500598451.0,111955502841.73514,398113916821.7437,14439507277144.145,531160228722742.56
7.18927102650672,1.2390986772494514e+16,2.5084500328279492e+16,4560625946542581.0,7558319014007603.0,117787507324.27087,418852550362.666,15191716335835.56,558840238841254.25
7.433056447036854,1.2594149376098084e+16,2.5515866681883772e+16,4635401963977052.0,7682245204225536.0,123833096948.56038,440350694662.42413,15971474637477.191,587534479154014.9
7.681717575977592,1.2797672731479316e+16,2.5949019964939284e+16,4710310759699014.0,7806391447764762.0,130098533022.39685,462630615049.0494,16779589851888.754,617272706996249.5
7.935351927497144,1.3001596437311616e+16,2.638407000100181e+16,4785366908394336.0,7930781899233030.0,136590261220.99226,485715232467.45544,17616893433870.19,648085557135307.6
8.194058966047088,1.320595822822891e+16,2.6821123850599444e+16,4860584298670563.0,8055439576201597.0,143314916085.00397,509628139474.7378,18484241203625.01,680004563239159.6
8.45794014536803,1.3410794100448496e+16,2.72602860824495e+16,4935976179293780.0,8180386435833275.0,150279325652.64417,534393616712.27985,19382513944490.61,713062179987072.8
8.72709894827539,1.3616138425374502e+16,2.770165902156115e+16,5011555201001346.0,8305643444178888.0,157490516225.7992,560036649854.4241,20312618017966.594,747291805822387.6
9.0016409272409,1.382202405248005e+16,2.8145342976791588e+16,5087333454368860.0,8431230638933864.0,164955717270.34418,586582947034.3466,21275485996065.87,782727806348453.1
9.281673745785717,1.4028482402602874e+16,2.8591436450102676e+16,5163322504148423.0,8557167186347226.0,172682366451.05307,614058956748.58,22272077311040.0,819405538369900.1
9.567307220701432,1.4235543552648704e+16,2.9040036329488424e+16,5239533420444569.0,8683471432889267.0,180678114801.69693,642491886242.2784,23303378922557.176,857361374582303.5
9.85865336511546,1.4443236312575484e+16,2.9491238067304572e+16,5315976807049199.0,8810160952210983.0,188950832031.09598,671909720377.9498,24370406002429.785,896632728914098.4
10.155826432417769,1.4651588295429108e+16,2.9945135845527816e+16,5392662827218678.0,8937252587864675.0,197508611966.01663,702341240990.8383,25474202637010.207,937258082525322.1
10.458942961066125,1.4860625981108886e+16,3.0401822729293224e+16,5469601227143686.0,9064762492200072.0,206359778131.9554,733816046734.6466,26615842547387.184,979277010468318.0
10.768121820287448,1.507037477446533e+16,3.0861390809907276e+16,5546801357332336.0,9192706161803030.0,215512889472.93787,766364573421.6156,27796429827529.984,1022730209016127.4
11.083484256693197,1.5280859058262786e+16,3.132393133839484e+16,5624272192103880.0,9321098469801908.0,224976746211.56735,800018114861.356,29017099700541.17,1067659523664687.4
11.405153941827061,1.5492102241481798e+16,3.1789534850528684e+16,5702022347366719.0,9449953695331528.0,234760395850.6301,834808844203.0829,30279019293185.723,1114107977815376.4
11.733257020663602,1.5704126803383898e+16,3.2258291284181424e+16,5780060096836925.0,9579285550411816.0,244873139317.64774,870769835786.1848,31583388428876.793,1162119802144798.0
12.067922161076874,1.591695433371514e+16,3.2730290089755148e+16,5858393386835575.0,9709107204471376.0,255324537253.80154,907935087504.2114,32931440439304.062,1211740464668948.8
12.409280604298411,1.6130605569387048e+16,3.3205620334363284e+16,5937029849789491.0,9839431306722520.0,266124416448.72537,946339543687.6023,34324442994897.31,1263016701509183.2
12.75746621638438,1.6345100427936626e+16,3.3684370800371296e+16,6015976816546590.0,9970270006571210.0,277282876422.6926,986019118510.5524,35763698954322.39,1315996548367585.8
13.112615540712067,1.656045803803746e+16,3.4166630078840376e+16,6095241327605736.0,1.0101634972228366e+16,288810296157.753,1027010719927.6083,37250547233212.18,1370729372719512.2
13.474867851526309,1.677669676730617e+16,3.4652486658367744e+16,6174830143351256.0,1.0233537407671568e+16,300717340979.4092,1069352274145.5751,38786363692337.984,1427265906731209.5
13.844365208556836,1.6993834247625086e+16,3.5142029009765564e+16,6254749753373117.0,1.0365988068091268e+16,313014969590.4265,1113082750636.4788,40372562045427.98,1485658280910483.2
14.221252512727972,1.721188739817911e+16,3.5635345666982576e+16,6335006384945932.0,1.0498997273943216e+16,325714441258.4003,1158242187697.2703,42010594786841.84,1545960058498504.0
14.605677562982532,1.7430872446388452e+16,3.613252530463044e+16,6415606010733412.0,1.0632574923716774e+16,338827323158.6796,1204871718562.0837,43701954139311.375,1608226270610810.2
14.997791114242183,1.7650804946898702e+16,3.663365681244918e+16,6496554355777947.0,1.0766730505518992e+16,352365497874.2909,1253013598072.7444,45448173021957.234,1672513452135637.5
15.397746936527026,1.7871699798778068e+16,3.713882936700994e+16,6577856903830131.0,1.0901473107564296e+16,366341171054.4474,1302711229913.299,47250826038789.13,1738879678397649.8
15.805701875257567,1.8093571261055776e+16,3.7648132500933224e+16,6659518903067817.0,1.103681142765299e+16,380766879233.25916,1354009194414.2412,49111530487898.3,1807384602595089.2
16.221815912762718,1.8316432966724852e+16,3.816165616987197e+16,6741545371250043.0,1.117275378171243e+16,395655497810.2273,1406953276932.0583,51031947391546.55,1878089494018394.8
16.64625223101797,1.854029793532162e+16,3.8679490817490584e+16,6823941100347007.0,1.130930811147061e+16,411020249194.0745,1461590496809.69,53013782547355.81,1951057277058061.2
17.079177275638333,1.876517858418455e+16,3.920172743865094e+16,6906710660684027.0,1.1446481991323836e+16,426874711111.4612,1517969136923.306,55058787600795.08,2026352571009641.0
17.5207608211511,1.8991086738487108e+16,3.972845764099916e+16,6989858404634148.0,1.1584282634456418e+16,443232825082.08325,1576138773820.8464,57168761139163.11,2104041730683449.5
17.97117603757412,1.9218033640130256e+16,4.025977370513394e+16,7073388469891250.0,1.1722716898265186e+16,460108905061.6282,1636150308457.4558,59345549807255.99,2184192887826463.0
18.430599558325603,1.9446029955575228e+16,4.079576864351787e+16,7157304782352829.0,1.1861791289137312e+16,477517646254.0273,1698055997533.0056,61591049444904.73,2266875993363770.5
18.899211549492115,1.967508578268933e+16,4.133653625828811e+16,7241611058639807.0,1.2001511966626182e+16,495474134094.37354,1761909485436.5596,63907206246565.8,2352162860466691.0
19.37719578048196,1.9905210656673256e+16,4.188217119810567e+16,7326310808277984.0,1.2141884747066764e+16,513993853403.8691,1827765836802.626,66296017943136.31,2440127208454331.0
19.864739696091597,2.0136413555132024e+16,4.243276901417497e+16,7411407335564654.0,1.2282915106669168e+16,533092697718.07764,1895681569683.7268,68759535006162.875,2530844707535563.0
20.36203449001343,2.036870290234921e+16,4.298842621555636e+16,7496903741141545.0,1.2424608184125446e+16,552786978789.72,1965714689343.6938,71299861874603.47,2624393024397383.0
20.869275179813698,2.0602086572817292e+16,4.3549240323884504e+16,7582802923294359.0,1.2566968782763422e+16,573093436267.1848,2037924722675.9038,73919158204296.44,2720851868646213.5
21.38666068340997,2.0836571894076136e+16,4.411530992760038e+16,7669107578997471.0,1.2710001372277904e+16,594029247549.87,2112372753250.3518,76619640140279.12,2820303040107762.0
21.91439389707817,2.1072165648906732e+16,4.468673473579469e+16,7755820204721233.0,1.285371009006881e+16,615612037821.3953,2189121456993.2854,79403581612095.8,2922830476991057.5
22.452681775019734,2.130887407692345e+16,4.526361563175736e+16,7842943097018346.0,1.2998098742212738e+16,637859890261.6626,2268235138502.915,82273315652215.83,3028520304921810.0
23.00173541052013,2.1546702875609628e+16,4.584605472632049e+16,7930478352904549.0,1.3143170804094158e+16,660791356438.6554,2349779768004.358,85231235737687.3,3137460886850073.0
23.561770118730532,2.1785657200831804e+16,4.643415541107718e+16,8018427870048308.0,1.3288929420719564e+16,684425466880.8107,2433823018946.7163,88279797155125.95,3249742873836616.5
24.133005521105144,2.2025741666874e+16,4.702802241155481e+16,8106793346783208.0,1.3435377406738072e+16,708781741830.6971,2520434306245.0073,91421518389141.95,3365459256722185.0
24.715665631527248,2.226696034602477e+16,4.762776184041535e+16,8195576281955951.0,1.3582517246189596e+16,733880202180.6667,2609684825169.2446,94658982534286.25,3484705418683379.5
25.309978944157795,2.250931676775084e+16,4.82334812507548e+16,8284777974622441.0,1.3730351092000896e+16,759741380591.0225,2701647590882.63,97994838730596.55,3607579188678520.0
25.91617852304095,2.275281391749177e+16,4.884528968956632e+16,8374399523603787.0,1.3878880765250216e+16,786386332791.2407,2796397478630.6997,101431803622802.67,3734180895786326.0
26.53450209350177,2.299745423510277e+16,4.9463297751430616e+16,8464441826913510.0,1.4028107754217488e+16,813836649064.5491,2894011264582.791,104972662843242.98,3864613424439973.5
27.165192135371807,2.324323961297818e+16,5.0087617632494936e+16,8554905581066668.0,1.4178033213239696e+16,842114465916.2609,2994567667326.7188,108620272518532.61,3998982270558505.0
27.808495978079243,2.349017139388275e+16,5.071836318479737e+16,8645791280281599.0,1.432865796138786e+16,871242477925.9653,3098147390017.5854,112377560800012.92,4137395598577225.5
28.464665897640828,2.3738250368517332e+16,5.135564997099275e+16,8737099215584166.0,1.447998248098224e+16,901243949783.7382,3204833163180.966,116247529417987.45,4279964299378065.5
29.133959215593645,2.398747677284731e+16,5.199959531953154e+16,8828829473824274.0,1.4632006915962792e+16,932142728510.3384,3314709788170.418,120233255259759.44,4426802049120688.5
29.816638399905518,2.4237850285217996e+16,5.2650318380344504e+16,8920981936614211.0,1.4784731070129444e+16,963963255861.2886,3427864181279.089,124337891971442.05,4578025368974327.0
30.51297116790363,2.4489370023282624e+16,5.330794018108206e+16,9013556279198038.0,1.4938154405268346e+16,996730580914.6514,3544385418504.5234,128564671583534.19,4733753685750126.0
31.223230591261704,2.4742034540767572e+16,5.397258368395418e+16,9106551969260862.0,1.5092276039178746e+16,1030470372842.1688,3664364780965.6943,132916906160205.14,4894109393432969.0
31.947695203086937,2.4995841824098588e+16,5.464437384321913e+16,9199968265687174.0,1.52470947436147e+16,1065208933863.3363,3787895800970.706,137397989472248.98,5059217915611612.0
32.686649107148675,2.5250789288911132e+16,5.5323437663364184e+16,9293804217276420.0,1.5402608942156846e+16,1100973212381.93,3915074308733.314,142011398693637.88,5229207768804978.0
33.44038208929165,2.5506873776468676e+16,5.600990425802107e+16,9388058661424768.0,1.555881670802738e+16,1137790816304.3225,4045998479736.014,146760696121591.3,5404210626682612.0
34.20918973107749,2.5764091550011188e+16,5.6703904909660024e+16,9482730222781058.0,1.5715715761862746e+16,1175690026538.849,4180768882737.245,151649530920073.44,5584361385175909.0
34.993373525699035,2.6022438291056296e+16,5.7405573130102296e+16,9577817311885502.0,1.587330346945757e+16,1214699810675.424,4319488528419.46,156681640886609.5,5769798228477184.0
35.793240996213015,2.628190909567645e+16,5.811504472188895e+16,9673318123799238.0,1.6031576839493276e+16,1254849836844.4265,4462262918674.963,161860854242299.34,5960662695922257.0
36.60910581613728,2.6542498470771536e+16,5.883245784055107e+16,9769230636732782.0,1.6190532521265068e+16,1296170487753.848,4609200096525.712,167191091444901.88,6157099749752557.0
37.44128793246003,2.680420033036199e+16,5.955795305781153e+16,9865552610681370.0,1.6350166802420428e+16,1338692874903.5237,4760410696673.054,172676367024830.75,6359257843751411.0
38.29011369110923,2.7067007991922044e+16,6.0291673425762776e+16,9962281586075474.0,1.6510475606722332e+16,1382448852975.2463,4916007996672.987,178320791443923.97,6567288992749418.0
39.15591596493141,2.733091417277502e+16,6.103376454205308e+16,1.0059414882454088e+16,1.6671454491850768e+16,1427471034397.4192,5076107968732.227,184128572976790.56,6781348842993171.0
40.03903428423004,2.7595910986573012e+16,6.178437461611855e+16,1.0156949597168952e+16,1.683309864725525e+16,1473792804082.8167,5240829332120.028,190104019614582.47,7001596743370559.0
40.93981496991464,2.7861989939881184e+16,6.254365453649787e+16,1.0254882604127574e+16,1.699540289207116e+16,1521448334337.97,5410293606190.568,196251540990969.62,7228195817486449.0
41.85861126931294,2.81291419288898e+16,6.331175793926213e+16,1.0353210552582716e+16,1.715836167311421e+16,1570472599942.5796,5584625164009.918,202575650330134.94,7461313036581273.0
