t(s),Total solute volume 1,Total retention volume 1,Total 1 volume 1,Total 2 volume 1,Total 3 volume 1,Total 4 volume 1,Total 5 volume 1,Total 6 volume 1
0.1,1383945849202658.0,3981468685541325.0,887646190648165.1,1709876645690502.0,0.0,0.0,0.0,-3.740371093031155e-123
0.202,2068878868365826.2,5959615781688480.0,1326954105146699.5,2556118670617055.5,1198860842.0795834,5369634875.313703,262542609128.61633,7395026454052.226
0.30604000000000003,2592666120049064.0,7478892407982922.0,1662904985317014.8,3203262779091539.5,3034802529.031369,13593470695.573233,667118260805.0754,19374776991267.973
0.41216080000000005,3035127273354658.0,8767878805342688.0,1946694273004450.5,3749927657684568.0,5382516635.544687,24109875222.516434,1185032811770.4329,34915076095381.57
0.5204040160000001,3427196800981753.5,9915116418067862.0,2198162973518411.2,4234333193495306.0,8185278769.452446,36664710913.548805,1803606308115.65,53574993774599.34
0.6308120963200001,3784410994976073.0,1.0965064421564476e+16,2427275879754515.0,4675674633881976.0,11412057934.56828,51118960602.85025,2515935503274.5884,75124446430100.69
0.7434283382464002,4115828710357820.5,1.1943647418094506e+16,2639843233253223.5,5085144282997516.0,15044560336.204557,67390670887.202095,3317957236755.4517,99430799017983.75
0.8582969050113283,4427262110634004.0,1.286750554469159e+16,2839592886252591.5,5469923124632256.0,19071884438.845825,85431004960.38417,4207251594808.8857,126415668688528.6
0.9754628431115548,4722696556046857.0,1.3748058585656624e+16,3029081001162260.0,5834935109148706.0,23487880497.89071,105212413122.27538,5182453319115.61,156034765686067.62
1.094972099973786,5005001733371534.0,1.459354065497583e+16,3210148160752068.5,6183725761555954.0,28289684546.647488,126722065137.10393,6242925756344.139,188267061790242.16
1.2168715419732616,5276322941493461.0,1.541011928243757e+16,3384170334056158.5,6518945618707652.0,33476834891.916267,149957892265.5582,7388564625847.975,223108388827290.8
1.3412089728127268,5538312249845006.0,1.6202556256356618e+16,3552207138635022.5,6842635827797014.0,39050706339.2197,174926052709.6194,8619672468722.229,260567390851800.56
1.4680331522689813,5792272880724339.0,1.6974620218608028e+16,3715094445670050.5,7156406532098666.0,45014130604.277695,201639231148.67593,9936874466416.924,300662832286807.2
1.597393815314361,6039253529201490.0,1.7729356092081812e+16,3873504875623983.5,7461553404111205.0,51371132127.70611,230115455261.82736,11341059880090.318,343421736677656.6
1.729341691620648,6280112297839943.0,1.846926764413262e+16,4027988805206779.0,7759136637510823.0,58126738729.93239,260377247518.3839,12833340095180.719,388878059493651.7
1.863928525453061,6515561397748947.0,1.9196445085336656e+16,4179003038095930.5,8050036175722651.0,65286842644.82815,292451002652.8131,14415017838608.875,437071718085227.94
2.001207095962122,6746199236164120.0,1.9912656635337612e+16,4326931385526784.0,8334991356427770.0,72858096544.48178,326366521890.71893,16087564153252.547,488047868447251.4
2.1412312378813647,6972533978147907.0,2.061941574162664e+16,4472099778485216.5,8614630022264598.0,80847834525.21483,362156658994.1379,17852600904543.656,541856357330857.75
2.284055862638992,7195001192720686.0,2.131803141156169e+16,4614787585724988.0,8889490322788646.0,89264011315.61108,399857047936.02686,19711887324643.375,598551301943448.0
2.4297369798917723,7413977299770733.0,2.2009646561525852e+16,4755236238454799.0,9160037328255042.0,98115155057.91,439505891379.2386,21667309563598.223,658190764435258.6
2.578331719489608,7629789975540803.0,2.269526769027922e+16,4893655904292821.0,9426675885693988.0,107410330381.78476,481143795262.1093,23720872520279.96,720836498105653.4
2.7298983538794,7842726315567664.0,2.337578815769023e+16,5030230722878447.0,9689760704298468.0,117159109407.52177,524813638905.1811,25874693429497.273,786553748767852.9
2.884496320956988,8053039317501167.0,2.405200667438734e+16,5165122963874728.0,9949604365007226.0,127371548945.91063,570560472877.1588,28130996821407.7,855411099160952.8
3.0421862473761276,8260953086967945.0,2.4724642152897492e+16,5298476365947082.0,1.0206483752397762e+16,138058172603.7395,618431438836.331,30492110567240.207,927480347406029.1
3.2030299723236504,8466667060216244.0,2.5394345758309436e+16,5430418845117124.0,1.0460645271803024e+16,149229956818.80035,668475706974.8977,32960462795149.727,1002836412714096.8
3.3670905717701234,8670359460725430.0,2.6061710777911988e+16,5561064711790579.0,1.071230911998449e+16,160898320076.71445,720744427716.7853,35538579510634.734,1081557263153034.6
3.5344323832055258,8872190152528576.0,2.6727280773869404e+16,5690516500844242.0,1.0961672810438622e+16,173075114729.96582,775290695072.5001,38229082793183.36,1163723861454978.0
3.7051210308696363,9072303013709210.0,2.7391556370870604e+16,5818866493958357.0,1.1208914105874012e+16,185772620964.8769,832169519616.0638,41034689468582.47,1249420125719859.8
3.879223451487029,9270827924789072.0,2.805500094867575e+16,5946197994944728.0,1.1454193474882872e+16,199003542556.89664,891437809473.0206,43958210177280.67,1338732902529769.8
4.0568079205167695,9467882445429052.0,2.8718045448740536e+16,6072586405162604.0,1.1697656163520458e+16,212781004126.83133,953154358032.2118,47002548775202.93,1431751950491071.2
4.237944078927105,9663573236905686.0,2.9381092458582816e+16,6198100135878074.0,1.1939433952787956e+16,227118549666.3977,1017379837343.7432,50170702015755.58,1528569932608361.8
4.422702960505647,9857997275736774.0,3.004451970308914e+16,6322801386668984.0,1.2179646658078122e+16,242030142144.89313,1084176796360.0487,53465759471377.02,1629282416195354.8
4.61115701971576,1.0051242894580696e+16,3.0708683045594136e+16,6446746813045300.0,1.2418403415216008e+16,257530164042.90714,1153609663329.8738,56890903660542.18,1733987879264207.5
4.803380160110075,1.024339067939276e+16,3.137391908121548e+16,6569988101874492.0,1.265580378890385e+16,273633418686.0326,1225744751776.0593,60449410352116.61,1842787722521803.2
4.9994477633122765,1.043451424626072e+16,3.204054738908021e+16,6692572469634467.0,1.2891938732508626e+16,290355132273.1227,1300650269584.7588,64144649023732.21,1955786286250806.2
5.199436718578522,1.062468091697479e+16,3.270887249764092e+16,6814543095716093.0,1.3126891422734838e+16,307710956511.00366,1378396330811.461,67980083454702.65,2073090871473174.5
5.403425452950093,1.0813952308933818e+16,3.3379185607444492e+16,6935939500781945.0,1.3360737988459196e+16,325716971781.61426,1459054969872.2266,71959272437105.25,2194811764890778.8
5.611493962009095,1.1002384852237782e+16,3.405176610788095e+16,7056797878423328.0,1.3593548149603146e+16,344389690778.9938,1542700157839.7698,76085870591194.48,2321062267176878.5
5.823723841249277,1.1190030244610228e+16,3.4726882918158964e+16,7177151386941926.0,1.3825385779193554e+16,363746062562.9345,1629407820606.2258,80363629273386.73,2451958724256698.0
6.040198318074262,1.1376935853012738e+16,3.540479567768604e+16,7297030406940663.0,1.4056309399561366e+16,383803476983.86096,1719255858708.969,84796397566774.17,2587620561268808.5
6.261002284435747,1.1563145069368944e+16,3.608575580691802e+16,7416462769480715.0,1.4286372621841628e+16,404579769439.9156,1812324168644.7632,89388123345541.19,2728170318943106.0
6.486222330124463,1.174869762663408e+16,3.6770007456384456e+16,7535473958804779.0,1.4515624536480464e+16,426093225932.5833,1908694665521.3936,94142854405846.03,2873733692167810.5
6.715946776726952,1.193362988047837e+16,3.745778835884217e+16,7654087293005430.0,1.474411006125748e+16,448362588391.6709,2008451306916.06,99064739656716.34,3024439570548869.5
6.950265712261491,1.2117975061052756e+16,3.814933059723623e+16,7772324085504636.0,1.4971870252344628e+16,471407060244.23004,2111680117826.727,104158030365346.84,3180420080790785.5
7.18927102650672,1.2301763498643764e+16,3.884486129926514e+16,7890203789786032.0,1.5198942583104728e+16,495246312205.21735,2218469216616.882,109427081451892.77,3341810630749926.5
7.433056447036854,1.2485022826471964e+16,3.954460326777996e+16,8007744129467526.0,1.542536119465114e+16,519900488270.3862,2328908841866.464,114876352829452.48,3508749955029770.5
7.681717575977592,1.266777816342866e+16,4.024877555493612e+16,8124961215506361.0,1.5651157121620292e+16,545390211894.24866,2443091380051.9106,120510410785446.3,3681380162003456.5
7.935351927497144,1.285005227915671e+16,4.09575939869173e+16,8241869652079955.0,1.5876358496130702e+16,571736592337.9294,2561111393987.5225,126333929401041.66,3859846782162518.5
8.194058966047088,1.3031865743555776e+16,4.1671271645121864e+16,8358482632476800.0,1.6100990732498084e+16,598961231173.457,2683065651967.7256,132351692005656.3,4044298817702395.0
8.45794014536803,1.3213237062515928e+16,4.2390019308921544e+16,8474812026154412.0,1.6325076694935452e+16,627086228932.5597,2809053157556.861,138568592663896.6,4234888793265372.0
8.72709894827539,1.3394182801448642e+16,4.3114045864430776e+16,8590868457970554.0,1.654863685017666e+16,656134191889.3169,2939175179978.799,144989637692588.47,4431772807770453.5
9.0016409272409,1.3574717697984062e+16,4.384355868316234e+16,8706661380465935.0,1.677168940671516e+16,686128238967.1823,3073535285063.8604,151619947205801.06,4635110587267396.0
9.281673745785717,1.3754854765032848e+16,4.457876397395766e+16,8822199139966931.0,1.699425044213764e+16,717092008761.9523,3212239366715.2954,158464756685998.3,4845065538758778.0
9.567307220701432,1.3934605385263894e+16,4.531986711116369e+16,8937489037182281.0,1.7216334019852118e+16,749049666673.0747,3355395678861.372,165529418579649.7,5061804804940220.0
9.85865336511546,1.4113979397922476e+16,4.6067072941672424e+16,9052537382887390.0,1.7437952296352656e+16,782025912136.6597,3503114867863.1104,172819403915816.56,5285499319814037.0
10.155826432417769,1.4292985178805298e+16,4.682058607312793e+16,9167349549219244.0,1.765911562002918e+16,816045985954.1342,3655510005350.816,180340303946387.9,5516323865136531.0
10.458942961066125,1.4471629714113584e+16,4.758061114534173e+16,9281930017044972.0,1.7879832622413686e+16,851135677711.3209,3812696621465.7515,188097831806797.47,5754457127663502.0
10.768121820287448,1.4649918668824096e+16,4.834735308672194e+16,9396282419814094.0,1.8100110302653124e+16,887321333283.2303,3974792738486.042,196097824196188.8,6000081757162617.0
11.083484256693197,1.4827856450145952e+16,4.912101735732433e+16,9510409584259144.0,1.8319954105911108e+16,924629862420.5221,4141918904818.651,204346243076122.88,6253384425164764.0
11.405153941827061,1.5005446266569492e+16,4.9901810179954344e+16,9624313568268702.0,1.85393679963231e+16,963088746414.1151,4314198229341.5635,212849177387047.12,6514555884430224.0
11.733257020663602,1.5182690182958682e+16,5.068993876059759e+16,9737995696223096.0,1.875835452506355e+16,1002726045834.954,4491756416082.925,221612844781857.72,6783791029108542.0
12.067922161076874,1.535958917208995e+16,5.148561149932127e+16,9851456592050802.0,1.8976914894022836e+16,1043570408346.4402,4674721799225.878,230643593375998.84,7061288955574069.0
12.409280604298411,1.5536143163000052e+16,5.228903819267018e+16,9964696210238198.0,1.919504901554117e+16,1085651076587.5497,4863225378430.228,239947903513649.4,7347253023922123.0
12.75746621638438,1.571235108646606e+16,5.310043022847929e+16,1.007771386499983e+16,1.9412755568599756e+16,1128997896125.0903,5057400854464.05,249532389549649.22,7641890920113450.0
13.112615540712067,1.5888210917910042e+16,5.392000077393003e+16,1.0190508257796982e+16,1.9630032051829904e+16,1173641323474.0667,5257384665140.675,259403801646921.1,7945414718757568.0
13.474867851526309,1.6063719717990166e+16,5.4747964957598904e+16,1.0303077503372316e+16,1.9846874833663436e+16,1219612434185.5488,5463316021558.131,269569027589247.7,8258040946527994.0
13.844365208556836,1.6238873671114976e+16,5.558454004617545e+16,1.041541915445245e+16,2.006327919991758e+16,1266942931001.9028,5675336944640.726,280035094609353.88,8579990646205419.0
14.221252512727972,1.6413668122094302e+16,5.642994561646092e+16,1.0527530225255508e+16,2.0279239399077652e+16,1315665152079.753,5893592301984.045,290809171232357.9,8911489441347042.0
14.605677562982532,1.6588097611119692e+16,5.728440372320455e+16,1.0639407213927028e+16,2.049474868551545e+16,1365812079281.3843,6118229845007.038,301898569134744.1,9252767601583372.0
14.997791114242183,1.6762155907249034e+16,5.8148139063283624e+16,1.07510461240166e+16,2.070979936085978e+16,1417417346535.934,6349400246416.522,313310745019116.7,9604060108546092.0
15.397746936527026,1.6935836040552782e+16,5.902137913668752e+16,1.0862442485096172e+16,2.0924382813713544e+16,1470515248272.0112,6587257137992.286,325053302505095.9,9965606722433644.0
15.805701875257567,1.7109130333065292e+16,5.990435440472815e+16,1.0973591372611746e+16,2.1138489557894236e+16,1525140747923.9797,6831957148702.196,337133994036821.1,1.0337652049223392e+16
16.221815912762718,1.7282030428670782e+16,6.079729844586085e+16,1.1084487427052018e+16,2.1352109269358428e+16,1581329486514.6223,7083659943159.504,349560722807631.7,1.0720445608542298e+16
16.64625223101797,1.7454527322040872e+16,6.170044810946903e+16,1.1195124872508392e+16,2.1565230821954316e+16,1639117791317.2773,7342528260436.661,362341544702599.75,1.1114241902211058e+16
17.079177275638333,1.7626611386730962e+16,6.2614043667938056e+16,1.1305497534695794e+16,2.1777842322134948e+16,1698542684601.1865,7608727953251.88,375484670259702.5,1.1519300483478742e+16
17.5207608211511,1.7798272402530794e+16,6.353832896731486e+16,1.14155988584949e+16,2.198993114275006e+16,1759641892464.2249,7882428027547.411,388998466650533.5,1.1935886026968558e+16
17.97117603757412,1.7969499582157164e+16,6.447355157683109e+16,1.152542192507263e+16,2.2201483956025344e+16,1822453853757.6873,8163800682480.323,402891459681555.44,1.236426839935809e+16
18.430599558325603,1.814028159736718e+16,6.541996293754071e+16,1.163495946863071e+16,2.24124867658254e+16,1887017729108.388,8453021350849.441,417172335817028.56,1.2804722730820378e+16
18.899211549492115,1.8310606604563416e+16,6.6377818510311064e+16,1.1744203892828688e+16,2.2622924939289084e+16,1953373410043.8008,8750268739984.081,431849944224847.5,1.3257529487255004e+16
19.37719578048196,1.8480462269954684e+16,6.734737792338217e+16,1.1853147286921666e+16,2.28327832379159e+16,2021561528226.5808,9055724873122.816,446933298846645.6,1.3722974543341954e+16
19.864739696091597,1.8649835794330348e+16,6.832890511969949e+16,1.1961781441650222e+16,2.3042045848175224e+16,2091623464805.2878,9369575131313.152,462431580493659.7,1.4201349256454028e+16
20.36203449001343,1.8818713937499596e+16,6.93226685042078e+16,1.2070097864915496e+16,2.3250696411700544e+16,2163601359888.7273,9692008295864.877,478354138969938.94,1.4692950541466488e+16
20.869275179813698,1.8987083042441252e+16,7.032894109128195e+16,1.2178087797268636e+16,2.3458718055127236e+16,2237538122151.9087,10023216591393.535,494710495224639.3,1.519808094650658e+16
21.38666068340997,1.915492905920519e+16,7.134800065246047e+16,1.2285742227240736e+16,2.3666093419622776e+16,2313477438582.153,10363395729491.38,511510343535241.9,1.5717048729688384e+16
21.91439389707817,1.9322237568600852e+16,7.238012986463453e+16,1.2393051906536528e+16,2.387280469015428e+16,2391463784374.4316,10712744953067.488,528763553723678.75,1.6250167936881828e+16
22.452681775019734,1.948899380570477e+16,7.342561645883952e+16,1.2500007365111732e+16,2.4078833624531996e+16,2471542432985.711,11071467081399.973,546480173407466.25,1.6797758480569096e+16
23.00173541052013,1.9655182683213316e+16,7.448475336978046e+16,1.2606598926151238e+16,2.4284161582261924e+16,2553759466358.4775,11439768555946.328,564670430288076.2,1.7360146219843596e+16
23.561770118730532,1.9820788814664584e+16,7.55578388862271e+16,1.271281672096332e+16,2.4488769553236612e+16,2638161785324.431,11817859486960.928,583344734478903.6,1.793766304161142e+16
24.133005521105144,1.9985796537547996e+16,7.664517680239227e+16,1.281865070380195e+16,2.4692638186287308e+16,2724797120199.612,12205953700970.285,602513680875303.8,1.8530646943058476e+16
24.715665631527248,2.0150189936318176e+16,7.77470765704136e+16,1.2924090666627492e+16,2.489574781761782e+16,2813714041583.116,12604268789160.559,622188051569337.6,1.9139442115450044e+16
25.309978944157795,2.0313952865324784e+16,7.886385345404514e+16,1.3029126253813722e+16,2.5098078499134424e+16,2904961971371.916,13013026156732.852,642378818311924.2,1.976439902933212e+16
25.91617852304095,2.047706897166846e+16,7.999582868366293e+16,1.313374697680738e+16,2.529961002668452e+16,2998591194004.944,13432451073286.084,663097145025302.2,2.0405874521210092e+16
26.53450209350177,2.06395217179885e+16,8.11433296126845e+16,1.3237942228743666e+16,2.550032196821114e+16,3094652867950.1133,13862772724288.12,684354390368761.6,2.1064231881780252e+16
27.165192135371807,2.0801294405186284e+16,8.230668987549392e+16,1.3341701299021124e+16,2.57001936918279e+16,3193199037448.6357,14304224263699.32,706162110360752.8,2.1739840945796692e+16
27.808495978079243,2.096237019508528e+16,8.348624954696645e+16,1.3445013387835226e+16,2.5899204393815436e+16,3294282644531.291,14757042867814.889,728532061060615.6,2.243307818365748e+16
28.464665897640828,2.112273213302563e+16,8.46823553036767e+16,1.354786762067045e+16,2.6097333126537492e+16,3397957541322.0483,15221469790394.344,751476201313263.0,2.3144326794798136e+16
29.133959215593645,2.1282363170390344e+16,8.589536058687667e+16,1.3650253062748178e+16,2.629455882627196e+16,3504278502644.8687,15697750419149.215,775006695560269.2,2.387397680298413e+16
29.816638399905518,2.1441246187055384e+16,8.712562576732107e+16,1.3752158733425912e+16,2.6490860340948348e+16,3613301238950.031,16186134333662.066,799135916720946.1,2.4622425153597764e+16
30.51297116790363,2.1599364013756684e+16,8.837351831202075e+16,1.3853573620543386e+16,2.668621645778236e+16,3725082409576.6055,16686875364811.88,823876449147052.8,2.5390075813016816e+16
31.223230591261704,2.1756699454363596e+16,8.963941295300082e+16,1.3954486694708178e+16,2.68806059307944e+16,3839679636368.6104,17200231655783.402,849241091654941.1,2.6177339870187616e+16
31.947695203086937,2.1913235308044996e+16,9.092369185813378e+16,1.405488692351313e+16,2.7074007508197276e+16,3957151517662.1763,17726465724738.984,875242860638992.4,2.6984635640496904e+16
32.686649107148675,2.206895439131716e+16,9.222674480412162e+16,1.415476328567728e+16,2.726639995963508e+16,4077557642662.1377,18265844529234.79,901894993270282.0,2.7812388772049916e+16
33.44038208929165,2.2223839559954852e+16,9.354896935169978e+16,1.4254104785099596e+16,2.7457762103255308e+16,4200958606226.1987,18818639532462.805,929210950784572.0,2.866103235446671e+16
34.20918973107749,2.2377873730750668e+16,9.489077102312685e+16,1.4352900464815084e+16,2.76480728325928e+16,4327416024075.6465,19385126771404.25,957204421863687.1,2.9531007030309184e+16
34.993373525699035,2.253103990310336e+16,9.625256348203266e+16,1.4451139420841184e+16,2.783731114324187e+16,4456992548451.672,19965586926978.64,985889326114533.8,3.0422761109256224e+16
35.793240996213015,2.268332118041591e+16,9.763476871568853e+16,1.4548810815902374e+16,2.802545615929391e+16,4589751884236.64,20560305396276.11,1015279817649967.1,3.133675068514585e+16
36.60910581613728,2.2834700791281964e+16,9.903781721976803e+16,1.4645903893018814e+16,2.821248715951368e+16,4725758805560.046,21169572366961.13,1045390288775865.1,3.227343975600506e+16
37.44128793246003,2.2985162110439776e+16,1.0046214818566202e+17,1.4742407988946028e+16,2.8398383603228012e+16,4865079172908.883,21793682893936.027,1076235373788755.1,3.323330034719248e+16
38.29011369110923,2.313468867947043e+16,1.0190820969041496e+17,1.4838312547450402e+16,2.8583125155898304e+16,5007779950762.611,22432936978354.145,1107829952888410.8,3.4216812637778316e+16
39.15591596493141,2.3283264227216736e+16,1.0337645888934597e+17,1.4933607132405688e+16,2.8766691714348516e+16,5153929225772.655,23087639649073.41,1140189156209868.0,3.522446509029038e+16
