t(s),Total solute volume 1,Total retention volume 1,Total 1 volume 1,Total 2 volume 1,Total 3 volume 1,Total 4 volume 1,Total 5 volume 1,Total 6 volume 1
0.1,1038034012882719.0,1307672365282961.0,121693262551923.95,147945089848319.12,0.0,0.0,0.0,0.0
0.202,1563396059252110.2,1969695623655686.2,183283751310222.06,222821960766975.97,189804435.53894645,419082208.39439076,7487385872.621905,185756053861.02097
0.30604000000000003,1963567236414437.5,2474112737942144.0,230197567052466.66,279856086239845.66,481534179.8127165,1063212763.2440629,18995726604.354305,471307761850.8212
0.41216080000000005,2302014992378143.0,2900857023904130.5,269875276378035.94,328093122826358.4,855280911.889814,1888434512.722923,33739572374.93811,837149033801.7773
0.5204040160000001,2602536900713209.5,3279898646182805.0,305106772853974.9,370924803686504.6,1302201912.989225,2875222985.4908247,51370075835.97385,1274621428383.4587
0.6308120963200001,2876992750866539.5,3626173227133351.0,337282431427005.0,410041437290555.25,1817549761.6175716,4013096021.9391837,71699952596.51762,1779076950871.7983
0.7434283382464002,3132276260476834.0,3948362410383916.0,367210432741091.06,446425546073840.7,2398606304.818636,5296052032.139845,94621972854.30864,2347854460958.174
0.8582969050113283,3372803789953624.5,4252028173180284.5,395408526025711.94,480706568808408.2,3043833718.356894,6720695559.342046,120075470343.13446,2979448392917.205
0.9754628431115548,3601601669728747.0,4540982168943408.0,422231501221659.56,513315831185400.3,3752456203.9476657,8285313679.076793,148029840311.30167,3673099197408.3438
1.094972099973786,3820848967465349.5,4817969246282266.0,447934819952939.94,544563903344318.1,4524228319.231928,9989364478.336143,178475400211.3463,4428566526650.383
1.2168715419732616,4032175481113046.5,5085042706098719.0,472709550554848.06,574683071131346.9,5359295757.842727,11833169661.997957,211417897538.67563,5245992936519.503
1.3412089728127268,4236837502967982.0,5343785631133640.0,496702973662806.44,603852386752890.0,6258106516.181178,13817718411.690702,246875005411.66364,6125816919620.527
1.4680331522689813,4435827467304090.0,5595448954920120.0,520031436683312.2,632213296229834.2,7221351573.507406,15944536409.22053,284873982439.7091,7068714832470.064
1.597393815314361,4629945508087383.0,5841041565320827.0,542788742817476.5,659879838112241.8,8249923863.896618,18215595247.916004,325450054196.039,8075560730415.335
1.729341691620648,4819847924164555.0,6081391329178593.0,565051832846864.1,686945550947452.1,9344889114.737011,20633248044.957882,368645262818.6973,9147397819725.955
1.863928525453061,5006081040621556.0,6317187727833025.0,586884754848520.5,713488299347241.6,10507464679.963713,23200182705.858448,414507631998.85614,10285417736328.188
2.001207095962122,5189105500527170.0,6549012442912845.0,608341512022225.0,739573736152081.1,11739003934.341646,25919387467.578934,463090551348.76154,11490945268614.754
2.1412312378813647,5369314092711478.0,6777361803153597.0,629468152718850.1,765257843323153.4,13040984643.784622,28794125220.622723,514452317621.54974,12765426972629.408
2.284055862638992,5547045097349331.0,7002663587706659.0,650304335001442.2,790588834012577.0,14415000247.704357,31827914260.8108,568655790808.5544,14110422637990.965
2.4297369798917723,5722592451562472.0,7225289825664775.0,670884518403162.9,815608601408948.9,15862753320.24783,35024513851.98189,625768136192.1521,15527598886834.246
2.578331719489608,5896213612962375.0,7445566697246592.0,691238885804790.8,840353839483447.1,17386050693.655556,38387913458.61389,685860631968.0776,17018724399873.998
2.7298983538794,6068135726577597.0,7663782298973444.0,711394066410554.9,864856921926954.9,18986799872.168255,41922324827.94055,749008527778.8889,18585666405837.168
2.884496320956988,6238560521205783.0,7880192809268274.0,731373709768865.0,889146599999309.8,20667006464.573433,45632176321.2032,815290943432.0763,20230388168079.574
3.0421862473761276,6407668240453199.0,8095027438828390.0,751198946625278.5,913248562798047.8,22428772433.302372,49522109047.826546,884790799830.4883,21954947270551.137
3.2030299723236504,6575620830776996.0,8308492445679180.0,770888762670601.2,937185891631957.9,24274295007.789875,53596974466.27138,957594776107.4513,23761494554028.48
3.3670905717701234,6742564550841339.0,8520774421782864.0,790460304447127.4,960979431917783.1,26205866145.920372,57861833195.055984,1033793288383.594,25652273588886.1
3.5344323832055258,6908632125270007.0,8732043006165427.0,809929131842453.4,984648100142371.8,28225872453.968124,62321954836.12116,1113480486610.927,27629620596699.258
3.7051210308696363,7073944536132852.0,8942453142072432.0,829309428113261.9,1008209139193034.0,30336795495.26515,66982818656.506065,1196754266752.086,29695964752383.316
3.879223451487029,7238612523747916.0,9152146968274026.0,848614175830934.0,1031678332258366.9,32541212432.815273,71850115007.37094,1283716296133.521,31853828813241.27
4.0568079205167695,7402737852269313.0,9361255414353626.0,867855305251921.9,1055070183205310.0,34841796962.519325,76929747384.69157,1374472050263.2754,34105830032497.14
4.237944078927105,7566414383459215.0,9569899554616536.0,887043820200738.1,1078398069617745.0,37241320502.52004,82227835055.46368,1469130859752.4817,36454681323551.14
4.422702960505647,7729728992900705.0,9778191763745446.0,906189905481598.5,1101674373379142.6,39742653611.071915,87750716188.49629,1567805966252.3098,38903192647944.75
4.61115701971576,7892762355917195.0,9986236708528474.0,925303019015187.9,1124910592685159.8,42348767610.77759,93504951440.86203,1670614586531.8467,41454272605340.77
4.803380160110075,8055589625065855.0,1.0194132203189358e+16,944391971264166.9,1148117438602957.8,45062736401.34212,99497327960.59941,1777677983993.1904,44110930208049.25
4.9994477633122765,8218281016871746.0,1.0401969950560696e+16,963464994018583.1,1171304918695079.5,47887738446.455,105734863773.89694,1889121547055.825,46876276826011.25
5.199436718578522,8380902322169852.0,1.0609836187187212e+16,982529800225507.1,1194482409755578.5,50827058923.20283,112224812531.14764,2005074873952.9082,49753528290888.25
5.403425452950093,8543515351814253.0,1.081781224716446e+16,1001593636241448.8,1217658721334458.8,53884092024.68067,118974668591.27351,2125671863571.3093,52746007150121.45
5.611493962009095,8706178327436368.0,1.1025975056900712e+16,1020663327642660.8,1240842151430174.5,57062343408.33496,125992172427.83485,2251050812040.8774,55857145063651.39
5.823723841249277,8868946225267455.0,1.123439757089465e+16,1039745319532960.9,1264040535492754.0,60365432784.10379,133285316343.81816,2381354514838.775,59090485337490.695
6.040198318074262,9031871079697726.0,1.1443149156928222e+16,1058845712131280.4,1287261289688310.2,63797096637.69885,140862350484.8257,2516730374225.3203,62449685589588.92
6.261002284435747,9195002252152016.0,1.1652295937702166e+16,1077970292293151.8,1310511449220409.2,67361191085.43669,148731789142.73926,2657330511869.5547,65938520544478.49
6.486222330124463,9358386669973386.0,1.1861901094818962e+16,1097124561516042.2,1333797702376717.5,71061694857.935,156902417343.92288,2803311886558.6978,69560884954067.125
6.715946776726952,9522069039272466.0,1.2072025140100184e+16,1116313760892660.8,1357126420865311.0,74902712410.7421,165383297717.71085,2954836416915.329,73320796642692.97
6.950265712261491,9686092035101346.0,1.2282726158465268e+16,1135542893405832.2,1380503686918996.8,78888477160.62968,174183777642.3676,3112071109072.1025,77222399675193.69
7.18927102650672,9850496471807872.0,1.2494060025970794e+16,1154816743899895.0,1403935317574973.5,83023354846.83,183313496666.94476,3275188189275.812,81269967647293.14
7.433056447036854,1.0015321456012512e+16,1.2706080606085852e+16,1174139897014853.5,1427426886477779.2,87311847016.99554,192782394208.52682,3444365241411.839,85467907098075.72
7.681717575977592,1.0180604524302502e+16,1.291883992684172e+16,1193516753328850.8,1450983743504009.2,91758594638.06245,202600717525.29672,3619785349456.4927,89820761044743.97
7.935351927497144,1.0346381767443982e+16,1.3132388341126578e+16,1212951543920098.2,1474611032465597.8,96368381832.59595,212779029966.6631,3801637244879.6895,94333212640208.75
8.194058966047088,1.0512687942669558e+16,1.3346774672086632e+16,1232448343530857.0,1498313707113523.2,101146139741.49655,223328219502.4246,3990115459032.974,99010088954385.94
8.45794014536803,1.0679556575388592e+16,1.3562046345332898e+16,1252011082491352.8,1522096545633981.5,106096950514.26279,234259507533.58163,4185420480569.776,103856364880358.72
8.72709894827539,1.0847020013629086e+16,1.377824951088163e+16,1271643553109154.8,1545964158440800.2,111226051070.83875,245584457694.51923,4387759142595.332,108877216051225.06
9.0016409272409,1.101510966353714e+16,1.3995429148737492e+16,1291349437250173.5,1569921021607172.2,116538838770.94775,257314986400.24298,4597343897008.4,114077828620818.25
9.281673745785717,1.1183855838137622e+16,1.421362917427705e+16,1311132288649708.5,1593971455509756.0,122040873681.62608,269463370792.7788,4814394319645.587,119463693415806.58
9.567307220701432,1.1353287979095102e+16,1.443289252907033e+16,1330995558882753.0,1618119656301804.5,127737884495.7633,282042259861.4098,5039136405406.557,125040418240896.83
9.85865336511546,1.152343468230105e+16,1.465326126587371e+16,1350942600370618.0,1642369699593337.0,133635772837.82793,295064684434.4671,5271802971379.516,130813780180052.0
10.155826432417769,1.169432375613821e+16,1.4874776626930632e+16,1370976673211525.8,1666725548755222.8,139740618057.3328,308544067763.7455,5512633845952.797,136789730293895.97
10.458942961066125,1.1865982274859938e+16,1.50974791162588e+16,1391100951438502.8,1691191062527040.2,146058682164.30563,322494236422.50037,5761876063526.482,142974398451197.84
10.768121820287448,1.2038436627553644e+16,1.5321408566522176e+16,1411318528759578.0,1715770001995553.2,152596414909.48477,336929431523.01385,6019784064933.61,149374098302037.7
11.083484256693197,1.2211712563106272e+16,1.5546604201017358e+16,1431632423829277.5,1740466037003392.8,159360459012.1158,351864320260.11053,6286619903685.074,155995332395467.22
11.405153941827061,1.2385835231544424e+16,1.5773104691246672e+16,1452045585095127.0,1765282752041034.2,166357655538.38,367314007787.2751,6562653458157.025,162844797444632.38
11.733257020663602,1.2560829222079508e+16,1.6000948210497624e+16,1472560895257822.2,1790223651669140.8,173595049433.58005,383294049432.3212,6848162649845.211,169929389742428.84
12.067922161076874,1.2736718598153432e+16,1.6230172483803856e+16,1493181175379808.8,1815292165513439.2,181079895211.36835,399820463259.82825,7143433667814.557,177256210730885.75
12.409280604298411,1.2913526929748538e+16,1.6460814834624144e+16,1513909188673105.8,1840491652869652.2,188819662803.3796,416909742987.79626,7448761199477.843,184832572727594.12
12.75746621638438,1.3091277323197744e+16,1.6692912228539298e+16,1534747643994097.5,1865825406952207.5,196822043572.77835,434578871266.2465,7764448667841.261,192666004812591.94
13.112615540712067,1.3269992448707222e+16,1.6926501314238622e+16,1555699199070114.5,1891296658816854.8,205094956495.31073,452845333325.7364,8090808475358.717,200764258879245.94
13.474867851526309,1.3449694565781192e+16,1.7161618462038432e+16,1576766463480100.0,1916908580984323.0,213646554511.58237,471727131003.9587,8428162254541.907,209135315852749.44
13.844365208556836,1.3630405546720366e+16,1.7398299800152866e+16,1597952001409440.8,1942664290789425.2,222485231054.36905,491242797158.8702,8776841125476.094,217787392079983.62
14.221252512727972,1.3812146898347932e+16,1.7636581248914736e+16,1619258334197013.0,1968566853477562.0,231619626754.88492,511411410477.0005,9137185960396.543,226728945894571.2
14.605677562982532,1.3994939782103068e+16,1.7876498553125912e+16,1640687942690785.8,1994619285068471.5,241058636332.01587,532252610685.79474,9509547655484.023,235968684361050.38
14.997791114242183,1.4178805032626388e+16,1.8118087312700364e+16,1662243269426720.8,2020824555005176.0,250811415668.63876,553786614179.1022,9894287410041.611,245515570202213.47
15.397746936527026,1.436376317495222e+16,1.836138301174686e+16,1683926720644292.5,2047185588604276.0,260887389079.2444,576034230065.0968,10291777013219.355,255378828913718.06
15.805701875257567,1.4549834440410638e+16,1.8606421046225824e+16,1705740668150730.8,2073705269322365.5,271296256773.15472,599016876646.1493,10702399138456.465,265567956070195.75
16.221815912762718,1.473703878133259e+16,1.8853236750303296e+16,1727687451044973.2,2100386440851873.8,282048002517.75684,622756598340.3772,11126547645814.77,276092724827172.2
16.64625223101797,1.4925395884642994e+16,1.9101865421512772e+16,1749769377311256.5,2127231909058419.8,293152901506.2283,647276083054.7948,11564627892381.08,286963193623189.1
17.079177275638333,1.5114925184419382e+16,1.9352342344827544e+16,1771988725291418.5,2154244443770722.8,304621528434.3581,672598680020.1824,12017057050919.045,298189714086625.5
17.5207608211511,1.5305645873486676e+16,1.9604702815736644e+16,1794347745044194.5,2181426780433144.5,316464765791.12274,698748418098.0175,12484264436955.297,309782939151796.6
17.97117603757412,1.5497576914111524e+16,1.9858982162410772e+16,1816848659598953.2,2208781621629870.5,328693812367.79706,725750024570.0015,12966691844487.926,321753831388990.06
18.430599558325603,1.569073704785536e+16,2.011521576703556e+16,1839493666110857.0,2236311638489246.0,341320191990.4421,753628944420.8734,13464793890508.717,334113671553205.1
18.899211549492115,1.5885144804639414e+16,2.037343908638625e+16,1862284936923528.0,2264019471975726.0,354355762480.7208,782411360125.4492,13979038368534.324,346874067356413.6
19.37719578048196,1.6080818511070516e+16,2.063368767170864e+16,1885224620545183.5,2291907734076509.0,367812724850.0596,812124211950.974,14509906611344.562,360046962468286.9
19.864739696091597,1.6277776298072344e+16,2.0895997187969816e+16,1908314842543227.2,2319979008889228.5,381703632732.2694,842795218786.0966,15057893863129.527,373644645750363.75
20.36203449001343,1.6476036107863316e+16,2.1160403432533576e+16,1931557706362334.8,2348235853616376.5,396041402059.827,874452899507.9073,15623509661250.822,387679760728780.7
20.869275179813698,1.667561570031835e+16,2.14269423533151e+16,1954955294070246.8,2376680799472107.0,410839320989.0788,907126594898.7217,16207278227824.676,402165315310695.4
21.38666068340997,1.6876532658749246e+16,2.1695650066461976e+16,1978509667035451.2,2405316352506000.5,426111060079.73285,940846490124.4282,16809738871338.586,417114691749668.75
21.91439389707817,1.7078804395134978e+16,2.1966562873608204e+16,2002222866540316.8,2434144994348565.0,441870682734.0757,975643637786.3954,17431446398515.871,432541656865315.7
22.452681775019734,1.7282448154831058e+16,2.2239717278743452e+16,2026096914333244.2,2463169182882410.5,458132655901.40436,1011549981559.1299,18072971536645.887,448460372522625.06
23.00173541052013,1.7487481020785128e+16,2.2515150004735524e+16,2050133813122834.8,2492391352843066.5,474911861053.3001,1048598380426.0161,18734901366599.695,464885406376412.7
23.561770118730532,1.76939199172824e+16,2.279289800954444e+16,2074335547017003.8,2521813916352833.0,492223605435.3456,1086822633525.6287,19417839766755.676,481831742886446.8
24.133005521105144,1.790178161324476e+16,2.3072998502161536e+16,2098704081909737.0,2551439263390919.5,510083633601.083,1126257505621.297,20122407868059.582,499314794608853.0
24.715665631527248,1.8111082725103184e+16,2.3355488958306304e+16,2123241365817858.5,2581269762202916.5,528508139233.9393,1166938753206.6992,20849244520449.82,517350413769480.75
25.309978944157795,1.8321839719263956e+16,2.3640407135910644e+16,2147949329170125.5,2611307759652202.0,547513777263.0474,1208903151260.4792,21599006770877.652,535954904124948.0
25.91617852304095,1.853406891418522e+16,2.3927791090419216e+16,2172829885050704.2,2641555581515988.0,567117676278.8373,1252188520662.9312,22372370353157.23,555145033117185.5
26.53450209350177,1.8747786482081244e+16,2.4217679189933076e+16,2197884929398954.2,2672015532728157.5,587337451254.4215,1296833756288.0203,23170030189881.566,574938044327317.9
27.165192135371807,1.8963008450269068e+16,2.451011013022134e+16,2223116341167276.5,2702689897571215.0,608191216578.806,1342878855784.079,23992700906642.56,595351670234800.5
27.808495978079243,1.917975070217158e+16,2.4805122949624612e+16,2248525982438763.0,2733580939819249.5,629697599408.0009,1390364949056.633,24841117358796.344,616404145287768.9
28.464665897640828,1.9398028977990104e+16,2.5102757043873364e+16,2274115698505987.0,2764690902833801.0,651875753340.2238,1439334328466.9636,25716035171016.19,638114219290601.4
29.133959215593645,1.961785887505837e+16,2.540305218084201e+16,2299887317912541.5,2796022009614296.0,674745372421.3613,1489830479760.0676,26618231289877.574,660501171114755.8
29.816638399905518,1.9839255847889092e+16,2.5706048515260176e+16,2325842652458493.5,2827576462804690.5,698326705486.9043,1541898113735.8154,27548504549720.82,683584822738960.1
30.51297116790363,2.0062235207923404e+16,2.601178660339867e+16,2351983497171018.5,2859356444657781.0,722640570846.6799,1595583198677.14,28507676252040.086,707385553624869.9
31.223230591261704,2.02868121229928e+16,2.6320307417750348e+16,2378311630241253.0,2891364116958470.0,747708371318.6332,1650932993549.173,29496590758646.023,731924315434347.1
31.947695203086937,2.0513001616501664e+16,2.6631652361722548e+16,2404828812928576.5,2923601620907307.5,773552109618.0117,1707996081983.364,30516116098852.5,757222647094523.2
32.686649107148675,2.0740818566339956e+16,2.6945863284357388e+16,2431536789433023.0,2956071076965465.5,800194404108.2965,1766822407060.5535,31567144590938.023,783302690216837.8
33.44038208929165,2.0970277703531744e+16,2.726298249509708e+16,2458437286736934.0,2988774584662194.0,827658504920.2394,1827463306907.0698,32650593478132.12,810187204876213.4
34.20918973107749,2.1201393610627908e+16,2.758305277860761e+16,2485532014416461.0,3021714222365669.0,855968310445.3545,1889971551117.9104,33767405579378.27,837899585756589.4
34.993373525699035,2.1434180719848164e+16,2.7906117409676452e+16,2512822664423794.5,3054892047018216.0,885148384210.2455,1954401378021.069,34918549955123.664,866463878668956.1
35.793240996213015,2.1668653310978224e+16,2.8232220168196932e+16,2540310910840630.5,3088310093836665.5,915223972138.0938,2020808532796.992,36105022588386.555,895904797448075.1
36.60910581613728,2.1904825509028148e+16,2.856140535425218e+16,2567998409603602.0,3121970375978437.5,946221020203.6232,2089250306467.16,37327847081349.94,926247741233968.9
37.44128793246003,2.214271128165301e+16,2.889371780330937e+16,2595886798201965.5,3155874884174136.5,978166192487.8059,2159785575765.6072,38588075367727.81,957518812144277.0
38.29011369110923,2.238232443634307e+16,2.9229202901536292e+16,2623977695348134.0,3190025586326939.5,1011086889638.5309,2232474843907.1255,39886788441151.086,989744833343479.2
39.15591596493141,2.262367861738291e+16,2.9567906601248036e+16,2652272700621196.5,3224424427079231.0,1045011267743.3661,2307380282265.722,41225097099813.1,1022953367514896.0
40.03903428423004,2.286678730258242e+16,2.9909875436492356e+16,2680773394083720.0,3259073327346722.5,1079968257620.4398,2384565772976.6445,42604142707613.81,1057172735741302.5
40.93981496991464,2.3111663799780176e+16,3.025515653878088e+16,2709481335871752.5,3293974183820042.0,1115987584533.3481,2464096952475.0605,44025097972034.37,1092432036799823.5
41.85861126931294,2.3358321243117588e+16,3.0603797652969364e+16,2738398065758089.5,3329128868433736.5,1153099788335.8555,2546041255984.064,45489167738969.54,1128761166876650.5
42.7957834946992,2.3606772589081616e+16,3.0955847153290852e+16,2767525102688286.5,3364539227802290.0,1191336244051.9146,2630467962964.3525,46997589804737.74,1166190839706900.2
43.751699164593184,2.3857030612312844e+16,3.1311354059541388e+16,2796863944289282.5,3400207082622616.0,1230729182896.3662,2717448243537.2744,48551635745476.89,1204752607144709.8
