t(s),Total solute volume 1,Total retention volume 1,Total 1 volume 1,Total 2 volume 1,Total 3 volume 1,Total 4 volume 1,Total 5 volume 1,Total 6 volume 1
0.1,1225891390677807.5,1918426285810987.5,281662698191601.44,410872196941578.9,0.0,0.0,0.0,0.0
0.202,1749207892182068.8,2998673438307979.0,401900711871117.44,586268041542273.1,98592350736.00676,288126845616.9224,7827225316717.851,253082848199448.8
0.30604000000000003,2090595035001559.0,3903345370543481.0,480338351334931.25,700688053155340.6,238020959740.8978,695599558269.8307,18899109348782.535,611891201184854.5
0.41216080000000005,2340279581716952.5,4734434873232976.0,537706260056669.7,784372835338645.1,403674890803.4737,1179719198365.7988,32054343009063.59,1038438459022474.0
0.5204040160000001,2533692249120955.5,5528766491151394.0,582145054590225.5,849197420189402.4,588569886365.4043,1720075616870.4204,46738160801165.5,1514684960946407.2
0.6308120963200001,2688978481854473.0,6303991572782888.0,617823860424147.0,901243471848399.2,788672992664.5486,2304883516394.4663,62630248974542.125,2030221953172267.8
0.7434283382464002,2816822468065842.5,7070019831330765.0,647197493175841.0,944091924458105.9,1001428222173.3197,2926673847670.219,79527604490143.66,2578452239070990.0
0.8582969050113283,2924080866303215.5,7833019273509385.0,671841349330777.8,980040869568582.5,1225123823275.997,3580444737346.8623,97294276756383.66,3154956342989806.5
0.9754628431115548,3015420294071149.5,8597125861334194.0,692827638152910.1,1010654380142653.8,1458571995641.8062,4262725502360.0596,115835929588870.62,3756666321880615.0
1.094972099973786,3094156124782031.0,9365277652815840.0,710918104971749.1,1037043643443459.4,1700929132531.3008,4971051335671.253,135085564756914.83,4381402234393472.5
1.2168715419732616,3162722607681268.5,1.013966218915479e+16,726672046664271.5,1060024527379170.4,1951587506794.1545,5703646776047.581,154994919689875.06,5027592853457367.0
1.3412089728127268,3222954522009051.5,1.0921974212202968e+16,740511024951100.4,1080211980280448.8,2210106508891.588,6459224762788.892,175529006372005.03,5694098347318690.0
1.4680331522689813,3276264825184113.0,1.1713572670904982e+16,752759683118141.2,1098079571824072.6,2476167201601.3945,7236853829940.289,196662502012742.56,6380093067734371.0
1.597393815314361,3323761383622885.5,1.2515580794442514e+16,763672566270240.5,1113998616769708.1,2749541302910.6904,8035867464688.501,218377285585392.3,7084985533426682.0
1.729341691620648,3366326282199482.5,1.3328952303999414e+16,773452343595454.8,1128264756478486.8,3030069449129.0513,8855800585795.521,240660711396985.4,7808362340294093.0
1.863928525453061,3404671230869275.5,1.4154516620629082e+16,782262538676639.5,1141116529108769.0,3317645619575.9956,9696344028312.398,263504372015378.38,8549947960311138.0
2.001207095962122,3439377197629950.5,1.499301057483478e+16,790236635621928.2,1152748653079378.0,3612205762659.6025,10557311306248.002,286903194880590.0,9309575376554008.0
2.1412312378813647,3470923340463261.5,1.584510117469925e+16,797484726512449.9,1163321723957647.2,3913719352710.698,11438613939962.816,310854771688573.0,1.0087164278784668e+16
2.284055862638992,3499708504810340.0,1.6711402293846592e+16,804098450695557.8,1172969419596700.2,4222183031988.858,12340242877205.271,335358853391653.94,1.088270463944316e+16
2.4297369798917723,3526067447903492.5,1.7592487129122816e+16,810154722512407.6,1181803937915329.2,4537615762209.813,13262254325545.701,360416965097163.5,1.169624418560667e+16
2.578331719489608,3550283254179009.5,1.8488897655015256e+16,815718583882447.9,1189920158072876.5,4860055085833.867,14204758827973.97,386032109114520.0,1.2527878735852584e+16
2.7298983538794,3572596954564913.0,1.940115190732857e+16,820845414445865.4,1197398864489220.2,5189554214572.911,15167912755976.855,412208533710340.44,1.3377744673147722e+16
2.884496320956988,3593215063225444.5,2.0329749672486924e+16,825582663217671.8,1204309272875329.2,5526179742257.119,16151911627274.781,438951551459579.0,1.4246013030339356e+16
3.0421862473761276,3612315542889651.0,2.1275176988786864e+16,829971219190851.6,1210711029584906.2,5870009834339.326,17156984816525.283,466267395459734.9,1.513288480701085e+16
3.2030299723236504,3630052570353752.5,2.2237909750771708e+16,834046506265561.4,1216655808829845.2,6221132785077.967,18183391340580.547,494163104753792.5,1.6038587236443108e+16
3.3670905717701234,3646560375961509.5,2.321841662849596e+16,837839365414095.9,1222188599528260.8,6579645861087.23,19231416480680.812,522646432503446.56,1.6963370792746838e+16
3.5344323832055258,3661956361301043.0,2.4217161457800724e+16,841376771007745.1,1227348750238118.8,6945654369922.137,20301369062352.44,551725772040995.9,1.7907506779780572e+16
3.7051210308696363,3676343649183792.5,2.5234605218132816e+16,844682416703902.4,1232170823813358.8,7319270906978.912,21393579256483.55,581410097088940.0,1.887128538117933e+16
3.879223451487029,3689813183327953.5,2.6271207685885788e+16,847777197872594.0,1236685301138082.2,7700614744796.797,22508396796625.613,611708913294554.9,1.985501407871121e+16
4.0568079205167695,3702445468096857.0,2.732742883039472e+16,850679611321472.8,1240919164220807.2,8089811336920.24,23646189531164.195,642632218867984.1,2.085901636701954e+16
4.237944078927105,3714312018427728.0,2.84037300043035e+16,853406088433686.2,1244896382155567.0,8486991914568.515,24807342246792.02,674190472595936.6,2.1883630708529212e+16
4.422702960505647,3725476574842310.5,2.950057496852351e+16,855971274330607.8,1248638318347324.5,8892293158992.242,25992255713254.766,706394567871055.4,2.2929209684259964e+16
4.61115701971576,3735996126829556.0,3.061843078331784e+16,858388263005836.5,1252164073511041.0,9305856935949.48,27201345909726.125,739255811659269.9,2.3996119305466476e+16
4.803380160110075,3745921778986289.5,3.175776859043894e+16,860668796331014.0,1255490775969117.5,9727830081481.033,28435043401192.945,772785907545660.2,2.5084738458124176e+16
4.9994477633122765,3755299487412010.0,3.2919064306171056e+16,862823433251038.9,1258633828463004.8,10158364230303.666,29693792839486.508,806996942169259.2,2.6195458457805944e+16
5.199436718578522,3764170688484106.5,3.410279924119774e+16,864861694252430.0,1261607118894787.8,10597615679816.44,30978052568491.74,841901374490432.1,2.7328682696827644e+16
5.403425452950093,3772572837923827.0,3.5309460660148668e+16,866792185219976.5,1264423201001642.8,11045745284038.63,32288294316935.51,877512027439558.5,2.848482636896269e+16
5.611493962009095,3780539874732472.0,3.653954229126941e+16,868622704031417.5,1267093449849635.5,11502918372847.525,33625002965223.832,913842081579196.9,2.9664316259738612e+16
5.823723841249277,3788102621928432.0,3.779354479475068e+16,870360332631420.5,1269628196145568.5,11969304692723.1,34988676375246.477,950905070478488.5,3.0867590592498804e+16
6.040198318074262,3795289133897290.0,3.907197619673557e+16,872011516839278.1,1272036842655567.8,12445078365879.498,36379825274036.66,988714877552041.2,3.2095098922151468e+16
6.261002284435747,3802124998463319.0,4.037535229480696e+16,873582135753317.5,1274327965447976.5,12930417865206.094,37798973183758.84,1027285734158710.4,3.334730206993467e+16
6.486222330124463,3808633600412923.5,4.17041970397764e+16,875077562298462.4,1276509402216411.2,13425506002881.531,39246656391785.5,1066632218790611.0,3.462467209366335e+16
6.715946776726952,3814836352081079.5,4.305904289780413e+16,876502716206127.8,1278588329563591.8,13930529930882.695,40723423955673.16,1106769257211291.9,3.5927692288855464e+16
6.950265712261491,3820752895697562.5,4.444043119622999e+16,877862110505606.4,1280571330820119.0,14445681151904.309,42229837738703.57,1147712123425257.2,3.725685721689083e+16
7.18927102650672,3826401281440040.0,4.584891245597179e+16,879159892433823.2,1282464455721112.5,14971155539445.904,43766472472364.96,1189476441380242.8,3.861267275698479e+16
7.433056447036854,3831798124523160.0,4.7285046712907816e+16,880399879528368.6,1284273273056517.5,15507153366022.555,45333915842727.12,1232078187319479.2,3.999565617927154e+16
7.681717575977592,3836958744141939.0,4.874940383030425e+16,881585591551342.5,1286002917239652.0,16053879338620.139,46932768598148.625,1275533692714272.8,4.140633623672028e+16
7.935351927497144,3841897286663111.0,5.024256380405271e+16,882720278794000.2,1287658129596285.2,16611542640653.756,48563644676156.0,1319859647718161.2,4.2845253273964216e+16
8.194058966047088,3846626835104447.5,5.176511706223124e+16,883806947230881.5,1289243295057937.0,17180356979802.205,50227171347668.03,1365073105093044.8,4.4312959351417464e+16
8.45794014536803,3851159506645826.5,5.331766476030056e+16,884848380924106.0,1290762474843891.8,17760540641187.39,51923989377020.95,1411191484565238.0,4.581001838330331e+16
8.72709894827539,3855506539667284.0,5.490081907307055e+16,885847162021379.8,1292219435633057.0,18352316545448.703,53654753196486.02,1458232577575947.0,4.7337006288431016e+16
9.0016409272409,3859678371599820.0,5.6515203484428936e+16,886805688643109.4,1293617675656606.5,18955912311329.582,55420131094169.95,1506214552395946.0,4.889451115272793e+16
9.281673745785717,3863684708697726.5,5.816145307569926e+16,887726190913407.1,1294960448083003.8,19571560322452.598,57220805414357.414,1555155959578947.0,5.048313340268937e+16
9.567307220701432,3867534588691155.5,5.984021481339407e+16,888610745355228.0,1296250782016765.5,20199497798006.18,59057472769498.266,1605075737731960.0,5.210348598903154e+16
9.85865336511546,3871236437149779.5,6.1552147837037784e+16,889461287840594.6,1297491501389444.5,20839966867110.645,60930844263165.16,1655993219584311.0,5.37561945799434e+16
10.155826432417769,3874798118280038.0,6.3297923747661656e+16,890279625261829.2,1298685241984912.0,21493214646663.438,62841645723409.13,1707928138339819.5,5.544189776342499e+16
10.458942961066125,3878226980784825.5,6.507822689750809e+16,891067446068366.1,1299834466809809.8,22159493322497.066,64790617946033.23,1760900634299015.2,5.716124725827749e+16
10.768121820287448,3881529899335123.5,6.689375468142665e+16,891826329795322.9,1300941479993248.8,22839060233707.137,66778516947379.305,1814931261740497.8,5.891490813338129e+16
11.083484256693197,3884713312134214.0,6.874521783039867e+16,892557755694318.5,1302008439376915.2,23532177960032.51,68806114226289.195,1870040996052180.8,6.070355903495472e+16
11.405153941827061,3887783254996069.5,7.0633340707585576e+16,893263110563384.6,1303037367936866.0,24239114412186.926,70874197034961.95,1926251241104846.5,6.25278924215373e+16
11.733257020663602,3890745392308496.0,7.255886160726294e+16,893943695861087.8,1304030164161178.5,24960142925059.96,72983568658473.77,1983583836861789.5,6.438861480648693e+16
12.067922161076874,3893605045207184.0,7.452253305697264e+16,894600734179863.6,1304988611492847.0,25695542353719.906,75135048702775.72,2042061067219409.0,6.628644700781672e+16
12.409280604298411,3896367217248731.5,7.652512212319749e+16,895235375144677.9,1305914386934383.5,26445597172162.934,77329473391019.4,2101705668074781.0,6.8222124405231704e+16
12.75746621638438,3899036617837021.5,7.856741072084706e+16,895848700795504.4,1306809068899474.8,27210597574764.8,79567695868093.78,2162540835617051.5,7.019639720425503e+16
13.112615540712067,3901617683628429.5,8.065019592681352e+16,896441730505435.9,1307674144387172.8,27990839580401.87,81850586513288.45,2224590234840287.5,7.22100307073584e+16
13.474867851526309,3904114598115896.0,8.277429029785413e+16,897015425480329.2,1308511015545748.2,28786625139214.977,84179033261020.36,2287878008276233.5,7.42638055920358e+16
13.844365208556836,3906531309569555.5,8.494052219302894e+16,897570692880889.2,1309321005685706.8,29598262241999.703,86553941929588.31,2352428784945876.0,7.635851819577517e+16
14.221252512727972,3908871547492236.0,8.714973610091893e+16,898108389603504.8,1310105364795050.5,30426065032211.395,88976236557935.73,2418267689529443.5,7.84949808079085e+16
14.605677562982532,3911138837730996.0,8.940279297183976e+16,898629325752289.9,1310865274604073.2,31270353920580.55,91446859750423.62,2485420351754788.5,8.067402196832654e+16
14.997791114242183,3913336516370664.0,9.170057055524715e+16,899134267831298.8,1311601853241978.2,32131455702338.97,93966773029630.58,2553912916004777.0,8.289648677306653e+16
15.397746936527026,3915467742522227.5,9.404396374253803e+16,899623941682803.5,1312316159523039.8,33009703677061.67,96536957197209.42,2623772051144405.5,8.516323718679128e+16
15.805701875257567,3917535510107124.0,9.643388491542835e+16,900099035194858.9,1313009196896258.0,33905437771135.0,99158412702847.77,2695024960569006.0,8.747515236218699e+16
16.221815912762718,3919542658727966.0,9.88712643000965e+16,900560200798990.0,1313681917088812.2,34819004662863.258,101832160021387.6,2767699392475070.5,8.983312896632138e+16
16.64625223101797,3921491883707266.0,1.0135705032726864e+17,901008057776708.0,1314335223470659.8,35750757910232.266,104559240038170.9,2841823650355545.5,9.223808151401016e+16
17.079177275638333,3923385745367433.5,1.0389220999841882e+17,901443194391677.8,1314969974164845.8,36701058081348.266,107340714442690.52,2917426603721738.0,9.46909427082492e+16
17.5207608211511,3925226677617960.5,1.0647772925825707e+17,901866169862743.1,1315586984925594.5,37670272887577.3,110177666130630.88,2994537699054276.5,9.719266378777824e+16
17.97117603757412,3927016995909515.0,1.0911461337367346e+17,902277516191462.8,1316187031804222.5,38658777319408.17,113071199614394.9,3073186970985674.0,9.97442148818488e+16
18.430599558325603,3928758904608654.5,1.1180388731930266e+17,902677739856537.4,1316770853620859.8,39666953785070.1,116022441442220.81,3153405053717364.5,1.0234658537227187e+17
18.899211549492115,3930454503841844.5,1.1454659616987363e+17,903067323386294.9,1317339154258312.8,40695192251932.01,119032540625995.88,3235223192674259.0,1.0500078426283491e+17
19.37719578048196,3932105795852861.0,1.173438054995084e+17,903446726819393.9,1317892604792819.8,41743890390718.95,122102669077887.22,3318673256399974.0,1.0770784055617466e+17
19.864739696091597,3933714690913540.5,1.2019660178812944e+17,903816389062873.0,1318431845475112.5,42813453722577.66,125234022055913.08,3403787748696305.0,1.1046880363820302e+17
20.36203449001343,3935283012824157.5,1.2310609283513856e+17,904176729155927.2,1318957487573928.2,43904295769028.11,128427818618582.17,3490599821010268.0,1.1328474367018683e+17
20.869275179813698,3936812504036331.5,1.2607340818052642e+17,904528147446958.4,1319470115093019.8,45016838204838.805,131685302088737.23,3579143285072625.0,1.161567519885841e+17
21.38666068340997,3938304830428502.5,1.2909969953357302e+17,904871026690797.9,1319970286371711.2,46151511013865.14,135007740526745.69,3669452625791739.0,1.1908594151274968e+17
21.91439389707817,3939761585761297.0,1.321861412093005e+17,905205733072373.5,1320458535578173.8,47308752647890.02,138396427213178.69,3761563014406673.5,1.22073447160621e+17
22.452681775019734,3941184295837600.0,1.3533393057283858e+17,905532617162538.4,1320935374103718.0,48489010188511.62,141852681141136.44,3855510321903863.5,1.2512042627250146e+17
23.00173541052013,3942574422390151.0,1.3854428849186296e+17,905852014811289.2,1321401291865760.5,49692739512117.99,145377847518370.28,3951331132701480.5,1.2822805904306382e+17
23.561770118730532,3943933366717350.5,1.418184597972679e+17,906164247983128.4,1321856758526430.5,50920405457996.25,148973298279363.7,4049062758606102.0,1.3139754896169754e+17
24.133005521105144,3945262473086306.5,1.4515771375223795e+17,906469625538967.9,1322302224633122.2,52172481999619.805,152640432607540.2,4148743253046082.0,1.3463012326132632e+17
24.715665631527248,3946563031920455.0,1.485633445298798e+17,906768443968510.1,1322738122686870.2,53449452419162.305,156380677467765.0,4250411425586421.5,1.3792703337583074e+17
25.309978944157795,3947836282787701.5,1.520366716995786e+17,907060988076809.9,1323164868143870.0,54751809485283.445,160195488149316.7,4354106856729861.0,1.412895554062058e+17
25.91617852304095,3949083417203713.0,1.5557904072224522e+17,907347531628370.2,1323582860355023.2,56080055634238.734,164086348819506.44,4459869913009140.5,1.4471899059559526e+17
26.53450209350177,3950305581263718.5,1.5919182345462144e+17,907628337951811.0,1323992483448008.8,57434703154360.82,168054773088127.38,4567741762375570.0,1.4821666581333962e+17
27.165192135371807,3951503878115091.0,1.6287641866280806e+17,907903660508004.0,1324394107156043.5,58816274373963.57,172102304582923.94,4677764389888835.0,1.517839340481833e+17
27.808495978079243,3952679370282218.5,1.6663425254519066e+17,908173743424206.2,1324788087597024.2,60225301852721.266,176230517536267.56,4789980613713577.0,1.5542217491078493e+17
28.464665897640828,3953833081853808.5,1.704667792649279e+17,908438821996637.2,1325174768006686.5,61662328576574.695,180441017383240.28,4904434101427985.0,1.5913279514568294e+17
29.133959215593645,3954966000542497.5,1.743754814921768e+17,908699123163692.5,1325554479428877.0,63127908156217.61,184735441371319.0,5021169386649865.0,1.6291722915286464e+17
29.816638399905518,3956079079625432.5,1.78361870956233e+17,908954865951820.9,1325927541365973.5,64622605029218.45,189115459181867.53,5140231885985946.0,1.6677693951909258e+17
30.51297116790363,3957173239774089.0,1.824274890077529e+17,909206261895933.6,1326294262392161.8,66146994665830.695,193582773563646.7,5261667916310069.0,1.707134175591512e+17
31.223230591261704,3958249370780817.0,1.865739071912439e+17,909453515436112.1,1326654940732128.5,67701663778549.766,198139120978546.56,5385524712376033.0,1.7472818386716173e+17
31.947695203086937,3959308333189097.5,1.908027278279932e+17,909696824292168.5,1327009864807428.8,69287210535470.14,202786272259760.88,5511850444771181.0,1.7882278887813795e+17
32.686649107148675,3960350959833972.0,1.951155846096225e+17,909936379817580.5,1327359313752815.0,70904244777502.4,207526033282625.97,5640694238216678.0,1.8299881343994138e+17
33.44038208929165,3961378057298579.0,1.995141432024464e+17,910172367334149.0,1327703557904385.0,72553388239506.08,212360245648338.88,5772106190220816.0,1.872578693958006e+17
34.20918973107749,3962390407292372.0,2.0400010186282067e+17,910404966448658.8,1328042859261531.0,74235274775397.25,217290787380793.03,5906137390091367.0,1.916016001775706e+17
34.993373525699035,3963388767956075.0,2.0857519206366387e+17,910634351352704.8,1328377471924288.8,75950550587291.02,222319573636752.22,6042839938313653.0,1.9603168140989277e+17
35.793240996213015,3964373875098195.0,2.1324117913234237e+17,910860691106795.4,1328707642507784.5,77699874458735.83,227448557429605.34,6182266966300756.0,2.0054982152544077e+17
36.60910581613728,3965346443367419.0,2.1799986290010806e+17,911084149909730.2,1329033610535180.8,79483917992101.94,232679730366940.47,6324472656522395.0,2.0515776239141446e+17
37.44128793246003,3966307167365121.5,2.2285307836327466e+17,911304887354205.8,1329355608810527.0,81303365850184.92,238015123402178.78,6469512263019377.0,2.0985727994747293e+17
38.29011369110923,3967256722701644.5,2.278026963563326e+17,911523058669505.4,1329673863772811.5,83158916002083.25,243456807600516.88,6617442132310368.0,2.1465018485527555e+17
39.15591596493141,3968195766999987.5,2.3285062423719373e+17,911738814952118.6,1329988595832337.8,85051279973412.84,249006894919429.78,6768319724697994.0,2.1953832315981862e+17
40.03903428423004,3969124940850182.5,2.3799880658476086e+17,911952303385008.5,1330300019690611.5,86981183100921.67,254667539003993.72,6922203635981341.0,2.245235769627487e+17
40.93981496991464,3970044868717430.5,2.4324922590901974e+17,912163667446269.8,1330608344644694.8,88949364791564.69,260440935997276.44,7079153619582114.0,2.2960786510784022e+17
41.85861126931294,3970956159806824.5,2.4860390337385978e+17,912373047107822.2,1330913774877047.0,90956578786103.47,266329325366072.88,7239230609091686.0,2.3479314387882445e+17
42.7957834946992,3971859408887410.0,2.5406489953281514e+17,912580579024723.4,1331216509731716.2,93003593427292.77,272334990742246.06,7402496741246475.0,2.4008140770975517e+17
