t(s),Total solute volume 1,Total retention volume 1,Total 1 volume 1,Total 2 volume 1,Total 3 volume 1,Total 4 volume 1,Total 5 volume 1,Total 6 volume 1
0.1,1063829490026819.8,1368988609462191.8,135960145783138.03,169198973652234.8,0.0,0.0,0.0,0.0
0.202,1588318687672147.8,2074761458057867.0,202991215592158.75,252617453762545.38,26678078292.386204,61061617830.49214,1151338375409.0461,29595022959485.0
0.30604000000000003,1977572723429533.0,2622396610794605.5,252738883189353.97,314527173298863.8,67095200402.2163,153570233748.40005,2895665815465.054,74441499627240.86
0.41216080000000005,2298282941794596.5,3094109317170498.0,293726474479053.06,365535198350054.7,118135338135.78848,270394054196.872,5098488100352.654,131077685054111.03
0.5204040160000001,2575665846690533.5,3520613395212283.5,329176723596613.6,409652140518659.9,178297260229.8495,408097265267.5399,7695017817907.379,197837272063070.88
0.6308120963200001,2822389288752686.5,3917170219386102.0,360708614462224.06,448892784543951.2,246681254901.41705,564620813450.1511,10646429276362.908,273721800282528.12
0.7434283382464002,3045874328337697.0,4292634737539505.5,389270577689778.8,484437428443194.75,322686292390.1107,738589270450.7952,13926787606690.703,358064339899306.25
0.8582969050113283,3250911515165933.5,4652677098097671.0,415474857862581.0,517047995180533.2,405884541998.0132,929023628900.3308,17517632992367.25,450390188725356.06
0.9754628431115548,3440808117325730.0,5001186829839947.0,439744132353597.1,547250496099844.2,495958997053.59625,1135198539571.2292,21405288657237.164,550347637866919.9
1.094972099973786,3617962855362590.5,5340972111770146.0,462384963821488.56,575426440707179.1,592668600274.4761,1356562491373.8057,25579355749951.844,657669265037292.8
1.2168715419732616,3784182574348293.5,5674142792722701.0,483628271716123.1,601863202440404.4,695827063850.823,1592689335693.6638,30031799274150.37,772148428544191.2
1.3412089728127268,3940869688022935.5,6002335788458454.0,503653288122365.2,626783831113556.4,805289191107.4387,1843246980237.3516,34756357773834.566,893624087254422.6
1.4680331522689813,4089139524542737.5,6326855377514033.0,522602554848650.4,650365716415879.9,920941612990.4899,2107976187452.7246,39748143553794.42,1021970520352529.1
1.597393815314361,4229897175584104.5,6648764561563148.0,540591744940267.94,672752810537737.5,1042696272720.4766,2386675662899.0957,45003361504908.51,1157090097060519.5
1.729341691620648,4363889725627499.0,6968946813098737.0,557716337716246.1,694063935085877.5,1170485700152.5544,2679191239863.723,50519105169100.91,1298908032559998.5
1.863928525453061,4491742868511131.0,7288149130496506.0,574056298459151.9,714398604839520.9,1304259495785.2769,2985407832598.5034,56293205009861.734,1447368486348454.0
2.001207095962122,4613987265120377.0,7607012866666382.0,589679446995626.9,733841219863977.6,1443981658223.0034,3305243320040.274,62324113084233.18,1602431596623898.2
2.1412312378813647,4731077952585445.0,7926096314272152.0,604643938241795.2,752464152486916.1,1589628515545.9539,3638643811748.933,68610813778057.68,1764071184852657.8
2.284055862638992,4843408922194334.0,8245891585286502.0,619000125298070.0,770330065872918.6,1741187099060.9438,3985579926366.72,75152753633422.4,1932272951262320.2
2.4297369798917723,4951324260379924.0,8566837449933589.0,632791983295938.4,787493685964945.5,1898653847620.6753,4346043826687.4937,81949785442813.38,2107033037175654.2
2.578331719489608,5055126794947032.0,8889329255886949.0,646058214408070.4,804003176641553.2,2062033563321.2637,4720046830089.193,89002123192362.7,2288356866304521.5
2.7298983538794,5155084897750204.0,9213726699565998.0,658833117248019.1,819901221662940.5,2231338561349.742,5107617463348.709,96310305384411.86,2476258201495740.0
2.884496320956988,5251437903094911.0,9540359991868380.0,671147279355852.6,835225886451859.6,2406587971878.2983,5508799865476.117,103875164922356.73,2670758370206053.5
3.0421862473761276,5344400471672761.0,9869534806364598.0,683028134920286.1,850011312164762.2,2587807162530.554,5923652466531.104,111697804199444.03,2871885623778288.5
3.2030299723236504,5434166140757390.0,1.0201536292137674e+16,694500418502871.8,864288280340122.1,2775027257550.163,6352246887791.386,119779574361406.89,3079674604030556.0
3.3670905717701234,5520910238975901.0,1.0536632359530164e+16,705586537553279.2,878084676484311.5,2968284735333.3423,6794667021301.622,128122057951533.33,3294165896808506.0
3.5344323832055258,5604792299523281.0,1.087507639458399e+16,716306880824309.6,891425873886323.6,3167621090069.284,7251008256175.969,136727054322942.17,3515405656680879.5
3.7051210308696363,5685958073559276.0,1.121710952014622e+16,726680075689193.8,904335053842661.0,3373082546286.6797,7721376826016.913,145596567334669.56,3743445290348114.0
3.879223451487029,5764541221984774.0,1.156296249399195e+16,736723204354974.0,916833474729441.1,3584719817417.284,8205889257107.521,154732794947960.3,3978341188900263.0
4.0568079205167695,5840664746326217.0,1.1912857313884176e+16,746451986733212.8,928940699580395.0,3802587901259.2095,8704671901087.892,164138120415639.88,4220154501026348.0
4.237944078927105,5914442206344006.0,1.226700858420241e+16,755880936053470.5,940674789743906.4,4026745906593.5493,9217860538965.854,173815104816591.75,4468950940798903.0
4.422702960505647,5985978762032345.0,1.2625624687207626e+16,765023492033580.5,952052470610069.8,4257256906279.2754,9745600045762.52,183766480733612.6,4724800624845989.0
4.61115701971576,6055372070054876.0,1.2988908793177376e+16,773892135446427.0,963089274186157.5,4494187812995.772,10288044107027.7,193995146909361.38,4987777934660516.0
4.803380160110075,6122713058765141.0,1.3357059736835928e+16,782498487169541.9,973799662361351.0,4737609274474.026,10845354979995.646,204504163744094.84,5257961400541348.0
4.9994477633122765,6188086601361461.0,1.3730272782206454e+16,790853394216046.4,984197133970077.2,4987595585594.921,11417703293383.232,215296749522090.34,5535433604257803.0
5.199436718578522,6251572103110277.0,1.4108740293860812e+16,798967004783298.9,994294318188155.4,5244224615167.539,12005267880826.467,226376277272394.75,5820281098010676.0
5.403425452950093,6313244015706049.0,1.4492652329263538e+16,806848833989408.2,1004103056340235.2,5507577745552.434,12608235643756.295,237746272184743.53,6112594337653800.0
5.611493962009095,6373172289549597.0,1.4882197164296768e+16,814507821675579.5,1013634473833368.5,5777739823583.212,13226801440176.867,249410409513939.34,6412467628460521.0
5.823723841249277,6431422772890540.0,1.527756176196353e+16,821952383417541.6,1022899043639424.6,6054799121477.068,13861167996349.854,261372512916211.25,6719999081981983.0
6.040198318074262,6488057565294318.0,1.5678932192583906e+16,829190455699526.9,1031906642512991.4,6338847306620.371,14511545838838.076,273636553169521.66,7035290582762081.0
6.261002284435747,6543135331687213.0,1.6086494012431934e+16,836229536050064.9,1040666600939342.1,6629979419279.056,15178153244735.486,286206647236861.7,7358447763854430.0
6.486222330124463,6596711582246072.0,1.6500432606650062e+16,843076718812578.1,1049187747650053.0,6928293857419.144,15861216208220.479,299087057637401.5,7689579990238335.0
6.715946776726952,6648838922587165.0,1.6920933501364414e+16,849738727120178.6,1057478449414824.9,7233892367937.868,16560968421833.775,312282192095352.4,8028800349357130.0
6.950265712261491,6699567278038616.0,1.7348182649173536e+16,856221941558260.4,1065546646711354.8,7546880043701.45,17277651271100.857,325796603440528.6,8376225648109967.0
7.18927102650672,6748944095224002.0,1.7782366691561562e+16,862532425927384.8,1073399885786610.2,7867365325868.141,18011513841307.824,339634989738143.75,8731976415718221.0
7.433056447036854,6797014523720125.0,1.822367320126888e+16,868675950459647.1,1081045347548995.9,8195460011044.07,18762812935397.32,353802194628364.56,9096176911965364.0
7.681717575977592,6843821580164115.0,1.867229090722337e+16,874658012791950.4,1088489873669069.5,8531279262879.392,19531813102088.293,368303207858723.2,9468955140374562.0
7.935351927497144,6889406296856507.0,1.912840990427015e+16,880483856957881.2,1095739990214465.4,8874941627762.191,20318786673439.297,383143165994688.25,9850442865945414.0
8.194058966047088,6933807856632139.0,1.9592221849637584e+16,886158490624544.1,1102801929100685.1,9226569054312.838,21124013811175.37,398327353295557.1,1.0240775637119214e+16
8.45794014536803,6977063715535627.0,2.0063920147814864e+16,891686700770822.5,1109681647602298.9,9586286916417.48,21947782561185.805,413861202744514.56,1.0640092811683956e+16
8.72709894827539,7019209714639849.0,2.054370012530163e+16,897073067978045.8,1116384846137331.2,9954224039574.018,22790388915674.01,429750297223074.5,1.104853758636812e+16
9.0016409272409,7060280182175326.0,2.1031759196504004e+16,902321979482408.0,1122916984510655.4,10330512730350.555,23652136882507.133,446000370821377.3,1.146625702990136e+16
9.281673745785717,7100308026993213.0,2.1528297021889524e+16,907437641119761.1,1129283296778996.2,10715288808782.549,24533338561368.844,462617310276869.2,1.1893402119350514e+16
9.567307220701432,7139324824259488.0,2.2033515659383016e+16,912424088277558.2,1135488804880346.2,11108691643555.643,25434314226369.504,479607156534848.5,1.2330127779560842e+16
9.85865336511546,7177360894170009.0,2.2547619709863744e+16,917285195954859.8,1141538331153366.0,11510864189840.672,26355392414810.586,496976106425163.06,1.2776592925555662e+16
10.155826432417769,7214445374383500.0,2.307081645752724e+16,922024688019414.6,1147436509857642.5,11921953029663.637,27296910021839.367,514730514450102.6,1.3232960507765056e+16
10.458942961066125,7250606286788101.0,2.360331600578602e+16,926646145740630.9,1153187797792705.5,12342108414708.787,28259212400762.754,532876894679103.2,1.3699397559970028e+16
10.768121820287448,7285870599147680.0,2.4145331409310344e+16,931153015668130.6,1158796484102713.2,12771484311465.059,29242653468820.777,551421922746538.3,1.4176075249864976e+16
11.083484256693197,7320264282112810.0,2.469707880274286e+16,935548616917879.5,1164266699343836.2,13210238448638.809,30247595818244.64,570372437949273.2,1.4663168932152138e+16
11.405153941827061,7353812362027575.0,2.5258777526566148e+16,939836147921050.1,1169602423883080.0,13658532366764.66,31274410832449.848,589735445441194.2,1.5160858204094028e+16
11.733257020663602,7386538969917302.0,2.5830650250551396e+16,944018692684776.2,1174807495689616.5,14116531469956.807,32323478807234.18,609518118522242.8,1.5669326963460248e+16
12.067922161076874,7418467387001022.0,2.641292309517312e+16,948099226608754.6,1179885617573399.0,14584405079750.408,33395189076871.074,629727801019896.1,1.6188763468813394e+16
12.409280604298411,7449620087036172.0,2.7005825751338064e+16,952080621897015.8,1184840363919977.8,15062326490989.805,34489940145004.03,650372009761345.6,1.6719360402087574e+16
12.75746621638438,7480018775771805.0,2.760959159874201e+16,955965652600147.2,1189675186965408.0,15550473029728.242,35608139820263.484,671458437134877.5,1.7261314933419796e+16
13.112615540712067,7509684427758114.0,2.8224457823139292e+16,959756999319639.5,1194393422650710.5,16049026113107.215,36750205356542.17,692994953739237.4,1.7814828788201942e+16
13.474867851526309,7538637320735527.0,2.885066553278437e+16,963457253602898.8,1198998296091344.8,16558171311191.943,37916563597875.14,714989611120031.0,1.8380108316325532e+16
13.844365208556836,7566897067804239.0,2.9488459874281852e+16,967068922054600.0,1203492926693674.8,17078098410741.305,39107651127885.484,737450644592348.9,1.8957364563598336e+16
14.221252512727972,7594482647555984.0,3.013809014806047e+16,970594430187604.6,1207880332947361.2,17609001480896.992,40323914423760.83,760386476149043.5,1.9546813345315804e+16
14.605677562982532,7621412432332032.0,3.0799809923670652e+16,974036126034412.2,1212163436919688.2,18151078940779.62,41565810014742.59,783805717454292.4,2.014867532197471e+16
14.997791114242183,7647704214756274.0,3.1473877155087772e+16,977396283538143.5,1216345068475589.8,18704533628983.234,42833804645112.47,807717172922128.0,2.0763176077121576e+16
15.397746936527026,7673375232677838.0,3.216055429618906e+16,980677105740271.5,1220427969244689.2,19269572874963.26,44128375441670.17,832129842879900.9,2.139054619732967e+16
15.805701875257567,7698442192645939.0,3.2860108416561732e+16,983880727780785.6,1224414796354916.0,19846408572315.36,45450010085703.79,857052926816668.0,2.2031021354305424e+16
16.221815912762718,7722921292028158.0,3.3572811317786764e+16,987009219724945.2,1228308125950348.8,20435257253946.027,46799206989462.35,882495826716673.0,2.2684842389123236e+16
16.64625223101797,7746828239873477.0,3.4298939650333256e+16,990064589229639.8,1232110456509411.2,21036340169137.91,48176475477141.695,908468150478194.5,2.335225539859625e+16
17.079177275638333,7770178276612427.0,3.503877503119084e+16,993048784061113.4,1235824211978133.8,21649883362514.664,49582335970403.914,934979715418124.9,2.4033511823788124e+16
17.5207608211511,7792986192678836.0,3.5792604162357788e+16,995963694474871.9,1239451744731891.5,22276117754913.78,51017320178456.1,962040551862744.5,2.472886854067606e+16
17.97117603757412,7815266346130032.0,3.656071895029725e+16,998811155467594.2,1242995338377835.0,22915279226175.758,52481971292716.47,989660906825289.5,2.5438587952977652e+16
18.430599558325603,7837032679336278.0,3.734341662646665e+16,1001592948910086.9,1246457210409307.0,23567608699862.03,53976844186100.336,1017851247770910.2,2.6162938087154068e+16
18.899211549492115,7858298734803926.0,3.814099986901962e+16,1004310805569508.1,1249839514722447.8,24233352229912.875,55502505616967.8,1046622266469774.0,2.6902192689606996e+16
19.37719578048196,7879077670191386.0,3.89537769257762e+16,1006966407028473.2,1253144344004476.8,24912761089262.383,57059534437770.07,1075984882939123.5,2.765663132608566e+16
19.864739696091597,7899382272572881.0,3.978206173855108e+16,1009561387507975.5,1256373732002266.8,25606091860423.55,58648521808443.33,1105950249475124.4,2.842653948332405e+16
20.36203449001343,7919224971999210.0,4.062617406892595e+16,1012097335600499.0,1259529655679154.5,26313606528062.863,60270071414598.695,1136529754775481.2,2.921220867292889e+16
20.869275179813698,7938617854402280.0,4.1486439625548424e+16,1014575795919249.5,1262614037267385.8,27035572573582.78,61924799690559.02,1167735028153789.0,3.001393653754146e+16
21.38666068340997,7957572673885339.0,4.2363190193038216e+16,1016998270668874.2,1265628746222824.5,27772263071730.594,63613336047299.87,1199577943846670.8,3.083202695929553e+16
21.91439389707817,7976100864438262.0,4.325676376257729e+16,1019366221142709.2,1268575601088219.5,28523956789256.418,65336323105350.695,1232070625414892.5,3.1666790170598496e+16
22.452681775019734,7994213551113696.0,4.4167504664254296e+16,1021681069151116.6,1271456371270778.5,29290938285641.074,67094416932721.516,1265225450239490.5,3.2518542867260844e+16
23.00173541052013,8011921560697730.0,4.509576370124201e+16,1023944198385224.9,1274272778739275.8,30073498015917.45,68888287287913.78,1299055054114271.8,3.338760832400167e+16
23.561770118730532,8029235431905762.0,4.604189828586991e+16,1026156955719988.9,1277026499645675.2,30871932435608.855,70718617868086.02,1333572335935872.0,3.427431651235889e+16
24.133005521105144,8046165425131937.0,4.70062725776656e+16,1028320652460189.5,1279719165875766.0,31686544107809.773,72586106562441.9,1368790462492700.0,3.5179004221034736e+16
24.715665631527248,8062721531778963.0,4.798925762342845e+16,1030436565532810.6,1282352366533035.5,32517641812434.293,74491465710912.77,1404722873354160.0,3.6102015178706136e+16
25.309978944157795,8078913483192526.0,4.899123149940091e+16,1032505938628876.2,1284927649359653.2,33365540657659.1,76435422368205.61,1441383285861547.8,3.7043700179332424e+16
25.91617852304095,8094750759223224.0,5.0012579455601256e+16,1034529983297704.9,1287446522098245.8,34230562193587.312,78418718573298.06,1478785700222068.8,3.8004417209993096e+16
26.53450209350177,8110242596437234.0,5.10536940623801e+16,1036509879996220.2,1289910453797737.0,35113034528162.81,80442111624453.1,1516944404707469.8,3.898453158128891e+16
27.165192135371807,8125397995995105.0,5.211497535926198e+16,1038446779095908.1,1292320876066489.2,36013292445361.92,82506374359836.92,1555873980958817.8,3.998441606034048e+16
27.808495978079243,8140225731217328.0,5.319683100613228e+16,1040341801849717.5,1294679184275576.8,36931677525693.375,84612295443820.81,1595589309399028.5,4.1004451006421256e+16
28.464665897640828,8154734354853640.0,5.4299676436830616e+16,1042196041321074.9,1296986738714916.8,37868538269034.6,86760679659054.55,1636105574754711.5,4.204502450925823e+16
29.133959215593645,8168932206071792.0,5.542393501520722e+16,1044010563277094.2,1299244865704851.5,38824230219837.72,88952348204391.3,1677438271689008.5,4.310653253004018e+16
29.816638399905518,8182827417180985.0,5.6570038193703384e+16,1045786407047815.2,1301454858665470.8,39799116094732.28,91188138998760.28,1719603210547144.5,4.418937904516854e+16
30.51297116790363,8196427920103442.0,5.7738425674513e+16,1047524586353320.1,1303617979145897.8,40793565912560.88,93468906991071.89,1762616523216316.5,4.529397619279047e+16
31.223230591261704,8209741452607383.0,5.892954557338131e+16,1049226090100310.1,1305735457815636.0,41807957126876.12,95795524476248.02,1806494669101820.0,4.6420744422153e+16
31.947695203086937,8222775564313530.0,6.014385458610043e+16,1050891883149746.5,1307808495419860.0,42842674760933.13,98168881417474.14,1851254441221073.0,4.75701126458178e+16
32.686649107148675,8235537622486246.0,6.138181815775704e+16,1052522907056976.1,1309838263700515.0,43898111545211.32,100589885774765.3,1896912972417462.2,4.874251839477577e+16
33.44038208929165,8248034817620190.0,6.264391065478841e+16,1054120080785730.6,1311825906284835.2,44974668057496.555,103059463839946.0,1943487741695829.5,4.993840797650452e+16
34.20918973107749,8260274168832480.0,6.393061553990534e+16,1055684301397249.5,1313772539542966.0,46072752865560.44,105578560578142.75,1990996580681514.5,5.115823663600742e+16
34.993373525699035,8272262529069688.0,6.524242554993402e+16,1057216444715740.1,1315679253416080.5,47192782672468.58,108148139975885.28,2039457680204862.0,5.24024687198793e+16
35.793240996213015,8284006590138253.0,6.657984287663755e+16,1058717365971298.0,1317547112216528.8,48335182464553.99,110769185395929.6,2088889597013172.2,5.367157784343782e+16
36.60910581613728,8295512887567196.0,6.794337935056984e+16,1060187900421357.2,1319377155401154.8,49500385662089.62,113442699938893.86,2139311260612102.5,5.496604706096701e+16
37.44128793246003,8306787805310155.0,6.933355662801822e+16,1061628863951624.2,1321170398319209.8,50688834272695.66,116169706811823.4,2190741980238510.2,5.628636903911411e+16
38.29011369110923,8317837580294785.0,7.075090638109111e+16,1063041053657511.4,1322927832935863.8,51900979047516.94,118951249703784.89,2243201451966802.2,5.763304623348472e+16
39.15591596493141,8328668306825998.0,7.219597049100536e+16,1064425248406880.0,1324650428532581.0,53137279640206.35,121788393168603.69,2296709765950941.5,5.900659106848018e+16
40.03903428423004,8339285940849733.0,7.366930124463112e+16,1065782209384949.1,1326339132385215.8,54398204768749.83,124682223014851.08,2351287413804097.0,6.0407526120423544e+16
40.93981496991464,8349696304083460.0,7.517146153434533e+16,1067112680622201.8,1327994870420979.5,55684232380169.33,127633846703194.17,2406955296118257.0,6.183638430401714e+16
41.85861126931294,8359905088019117.0,7.670302506125474e+16,1068417389505962.8,1329618547855104.0,56995849818140.73,130644393751224.5,2463734730125794.0,6.3293709062179416e+16
42.7957834946992,8369917857804202.0,7.826457654183869e+16,1069697047276407.5,1331211049808093.2,58333553993560.63,133715016145874.3,2521647457505348.0,6.4780054559305304e+16
43.751699164593184,8379740056005888.0,7.985671191807245e+16,1070952349507634.6,1332773241904412.0,59697851558102.875,136846888763542.94,2580715652334181.5,6.629598587799863e+16
