t(s),Total solute volume 1,Total retention volume 1,Total 1 volume 1,Total 2 volume 1,Total 3 volume 1,Total 4 volume 1,Total 5 volume 1,Total 6 volume 1
0.1,1323473711248431.8,2617890617675497.5,487117646595586.6,807299259831480.0,0.0,0.0,0.0,-8.892789209081686e-83
0.202,1817489698126151.5,4186028663718477.5,668945166484589.4,1108641910775316.1,122911399743.58788,437065019396.5626,15833255615242.574,574558656298036.6
0.30604000000000003,2106489405779356.0,5562315065456619.0,775314390220402.4,1284927523140307.0,287756960414.5093,1023262632484.9116,37096072467527.01,1357176654256136.2
0.41216080000000005,2300005479360806.0,6867381089464081.0,846539910405802.5,1402969508946726.2,476010844698.6237,1692708301355.2944,61385440385559.19,2254312031219130.5
0.5204040160000001,2439338325736678.5,8143713602492994.0,897822753892691.6,1487960517863218.5,679896643266.2949,2417748190217.8613,87695818053756.89,3227798542113159.5
0.6308120963200001,2544517967162643.0,9411065055562274.0,936535169976945.8,1552118570877729.5,895456652758.3751,3184308443965.876,115515576616380.48,4258298005831848.5
0.7434283382464002,2626668773149685.5,1.0680242042510486e+16,966771593677592.5,1602229370563686.8,1120463778552.2522,3984469478696.017,144556768718980.25,5334910603143293.0
0.8582969050113283,2692527314075930.0,1.1957847006120744e+16,991011486829379.0,1642402126227073.0,1353585471667.6238,4813492834988.416,174647060152557.38,6451091940529132.0
0.9754628431115548,2746430924615236.5,1.3248261777035994e+16,1010851248669272.8,1675282548550010.0,1593993357335.9272,5668432975378.835,205679285115144.3,7602755343753612.0
1.094972099973786,2791304680787887.5,1.4554593964649444e+16,1027367482571002.8,1702654891134757.2,1841161770299.0952,6547420854792.413,237585412644125.03,8787292914886581.0
1.2168715419732616,2829194816151731.5,1.587917347866007e+16,1041313325186504.4,1725767326558519.2,2094755995539.0254,7449266492394.784,270322103457694.38,1.0003031884817688e+16
1.3412089728127268,2861576147306385.5,1.7223832524479268e+16,1053231597464245.1,1745519471421806.5,2354566737805.5557,8373225937687.882,303862239883528.7,1.124891527572782e+16
1.4680331522689813,2889538458463669.5,1.859007275525206e+16,1063523405346543.8,1762576078203038.0,2620469955034.404,9318858433308.244,338189733271873.0,1.25243057515786e+16
1.597393815314361,2913904254349007.0,1.997916978973416e+16,1072491479897690.5,1777438862802246.8,2892401322572.523,10285935606681.713,373296222220441.9,1.3828860633535508e+16
1.729341691620648,2935305751442917.5,2.139224113450396e+16,1080368514697237.8,1790493468070380.5,3170339492597.5674,11274381938516.62,409178907613798.56,1.5162449771248518e+16
1.863928525453061,2954236706600937.5,2.2830291791961588e+16,1087336241879852.4,1802041078508584.0,3454294827937.724,12284234699040.998,445839095363438.0,1.6525100140081812e+16
2.001207095962122,2971088194583075.5,2.429424576199746e+16,1093538600411463.1,1812320244037654.5,3744301646632.8613,13315616368986.889,483281193071915.7,1.7916957611877732e+16
2.1412312378813647,2986173853045900.5,2.5784968345517004e+16,1099091027760126.8,1821522279074083.8,4040412777236.621,14368715277971.84,521512005515820.3,1.9338260052065844e+16
2.284055862638992,2999748043506478.0,2.730328228678624e+16,1104087144219785.0,1829802340452696.0,4342695670246.203,15443771776772.307,560540231396682.8,2.078931805976358e+16
2.4297369798917723,3012019142836996.0,2.884997969043682e+16,1108603644977308.5,1837287535044271.5,4651229579028.394,16541068212958.47,600376098442550.5,2.2270500971343696e+16
2.578331719489608,3023159422080668.0,3.0425830979766268e+16,1112703936109166.4,1844082945689110.8,4966103489330.576,17660921568681.4,641031095363096.5,2.3782226555466212e+16
2.7298983538794,3033312491655386.0,3.203159174454533e+16,1116440874862831.0,1850276172662659.8,5287414581472.04,18803677992821.06,682517772735499.4,2.532495334005464e+16
2.884496320956988,3042598983712793.5,3.366800805823418e+16,1119858861105695.4,1855940799831774.0,5615267077313.516,19969708701531.215,724849593690325.2,2.6899174844114724e+16
3.0421862473761276,3051120939244258.0,3.533582066853268e+16,1122995452043155.2,1861139070725422.2,5949771369016.498,21159406880936.36,768040821074167.8,2.850541520719573e+16
3.2030299723236504,3058965231065842.5,3.703576834739939e+16,1125882622082369.8,1865923976505732.8,6291043356801.288,22373185333123.15,812106431671067.8,3.0144225857384396e+16
3.3670905717701234,3066206260574634.0,3.876859060636893e+16,1128547755400304.8,1870340900950095.0,6639203943549.417,23611474679956.86,857062050733822.8,3.1816182960086576e+16
3.5344323832055258,3072908101450396.5,4.053502992732181e+16,1131014434954522.8,1874428928078009.8,6994378648410.819,24874721990158.234,902923901928007.9,3.3521885460272356e+16
3.7051210308696363,3079126217903981.0,4.233583361966485e+16,1133303074901631.0,1878221890257656.0,7356697311642.547,26163389730875.242,949708769093865.2,3.5261953580465216e+16
3.879223451487029,3084908852553966.5,4.417175538689825e+16,1135431431419144.8,1881749214790487.8,7726293870075.698,27477954970481.023,997433967158869.0,3.703702767213524e+16
4.0568079205167695,3090298155521330.5,4.604355666530628e+16,1137415018280012.2,1885036612642564.2,8103306187773.5,28818908777702.957,1046117320202414.5,3.884776734369446e+16
4.237944078927105,3095331109167413.0,4.7952007782691864e+16,1139267447211682.8,1888106642521341.0,8487875930208.002,30186755775573.645,1095777145161162.8,4.069485080692446e+16
4.422702960505647,3100040290226413.5,4.989788897411342e+16,1141000708406548.8,1890979175765391.2,8880148473053.186,31582013818547.68,1146432240022258.8,4.2578974397401176e+16
4.61115701971576,3104454501631301.5,5.1881991283380344e+16,1142625403071790.2,1893671781749075.2,9280272838750.668,33005213768448.992,1198101875618079.0,4.4500852234702936e+16
4.803380160110075,3108599299218243.0,5.390511737287292e+16,1144150937288188.5,1896200049164614.8,9688401655548.217,34456899350402.06,1250805790336012.0,4.6461215995859896e+16
4.9994477633122765,3112497433093526.5,5.596808225953578e+16,1145585684459636.5,1898577855249512.5,10104691134877.225,35937627074050.305,1304564187207860.5,4.846081478131636e+16
5.199436718578522,3116169219312983.5,5.807171399126958e+16,1146937122113446.8,1900817592505620.8,10529301063825.584,37447966208527.45,1359397732958625.0,5.050041505710654e+16
5.403425452950093,3119632854335466.0,6.02168542751386e+16,1148211947638104.5,1902930360511219.8,10962394810144.02,38988498802075.164,1415327558682806.0,5.2580800660358744e+16
5.611493962009095,3122904682235044.0,6.2404359066623384e+16,1149416176633370.5,1904926128916590.8,11404139337752.605,40559819739077.625,1472375261884779.0,5.470277285787675e+16
5.823723841249277,3125999422718933.5,6.463509912742689e+16,1150555226834571.0,1906813876531642.8,11854705231124.484,42162536828745.19,1530562909673004.8,5.686715044960891e+16
6.040198318074262,3128930366473003.0,6.690996055798071e+16,1151633990011449.2,1908601710483866.5,12314266727245.844,43797270920823.28,1589913042939485.5,5.907476991042487e+16
6.261002284435747,3131709543148558.0,6.922984530971843e+16,1152656893797376.5,1910296968687826.2,12783001754104.797,45464656044604.72,1650448681388867.8,6.1326485564897064e+16
6.486222330124463,3134347866341388.0,7.15956716813145e+16,1153627955050355.0,1911906308280301.0,13261091974862.648,47165339568239.1,1712193329307449.8,6.362316979079194e+16
6.715946776726952,3136855259143189.0,7.400837480238946e+16,1154550826063454.5,1913435782204841.2,13748722837021.523,48899982375902.51,1775170981983351.0,6.5965713247781704e+16
6.950265712261491,3139240763224304.5,7.646890710762021e+16,1155428834713820.0,1914890905750640.2,14246083626030.354,50669259060846.945,1839406132705504.5,6.835502512853912e+16
7.18927102650672,3141512633904096.5,7.897823880373269e+16,1156265019454243.8,1916276714544122.5,14753367522874.756,52473858132717.52,1904923780282733.2,7.079203342989195e+16
7.433056447036854,3143678423256591.5,8.153735833148198e+16,1157062159901066.8,1917597815242160.2,15270771665280.072,54314482237821.305,1971749437034892.8,7.327768524214418e+16
7.681717575977592,3145745052964974.5,8.414727282441624e+16,1157822803648968.8,1918858429972289.5,15798497212224.318,56191848391276.35,2039909137216936.0,7.581294705500954e+16
7.935351927497144,3147718878364530.0,8.68090085659666e+16,1158549289842638.0,1920062435397962.8,16336749411514.223,58106688220164.36,2109429445843973.2,7.83988050788858e+16
8.194058966047088,3149605744887801.0,8.952361144619949e+16,1159243769951951.8,1921213397149286.8,16885737670222.045,60059748216974.69,2180337467891266.8,8.103626558043195e+16
8.45794014536803,3151411037938895.0,9.229214741938926e+16,1159908226128731.0,1922314600245630.8,17445675627819.379,62051790002759.74,2252660857848025.5,8.372635523159765e+16
8.72709894827539,3153139727068748.5,9.511570296342806e+16,1160544487465882.8,1923369076041905.5,18016781231874.58,64083590599533.0,2326427829607883.5,8.647012147141214e+16
9.0016409272409,3154796405193865.0,9.799538554196573e+16,1161154244432246.8,1924379626151429.5,18599276816206.242,66155942711534.37,2401667166682298.5,8.926863287997824e+16
9.281673745785717,3156385323492772.5,1.0093232407007714e+17,1161739061716584.5,1925348843732257.8,19193389181407.62,68269655015060.44,2478408232725917.0,9.21229795642132e+16
9.567307220701432,3157910422523687.0,1.0392766938415942e+17,1162300389680744.0,1926279132468510.0,19799349677673.414,70425552456626.78,2556680982365286.0,9.503427355498685e+16
9.85865336511546,3159375360030413.5,1.0698259471670152e+17,1162839574593911.2,1927172723531577.5,20417394289876.98,72624476559280.14,2636515972324315.0,9.800364921537208e+16
10.155826432417769,3160783535838880.0,1.1009829617649918e+17,1163357867796011.2,1928031690766650.2,21047763724858.254,74867285736925.33,2717944372841539.0,1.0103226365979435e+17
10.458942961066125,3162138114191936.5,1.132759932348415e+17,1163856433918267.2,1928857964316609.5,21690703500893.227,77154855616570.0,2800997979375580.5,1.0412129718392168e+17
10.768121820287448,3163442043823588.0,1.1651692921815283e+17,1164336358271721.0,1929653342867049.0,22346464039325.773,79488079368426.61,2885709224596683.5,1.0727195370518603e+17
11.083484256693197,3164698076034131.0,1.198223718075331e+17,1164798653499952.5,1930419504671801.0,23015300758350.69,81867868043834.8,2972111190662805.5,1.1048546121386205e+17
11.405153941827061,3165908780993739.0,1.231936135456147e+17,1165244265579797.2,1931158017497939.8,23697474168942.305,84295150920996.3,3060237621780171.0,1.1376307223467323e+17
11.733257020663602,3167076562473082.5,1.2663197235112389e+17,1165674079243102.5,1931870347611236.0,24393249972931.07,86770875858533.61,3150122937048461.5,1.1710606429891651e+17
12.067922161076874,3168203671174691.0,1.3013879204150947e+17,1166088922883432.0,1932557867908061.0,25102899163233.766,89296009656902.9,3241802243591941.0,1.2051574042713131e+17
12.409280604298411,3169292216816915.0,1.3371544286399443e+17,1166489573003725.0,1933221865286472.0,25826698126248.594,91871538427707.78,3335311349978044.0,1.2399342962235544e+17
12.75746621638438,3170344179104373.0,1.3736332203537522e+17,1166876758254072.0,1933863547338014.5,26564928746429.96,94498467970974.55,3430686779925780.5,1.2754048737403549e+17
13.112615540712067,3171361417702235.5,1.4108385429089173e+17,1167251163102833.5,1934484048431874.5,27317878513061.477,97177824160464.1,3527965786306527.5,1.3115829617267485e+17
13.474867851526309,3172345681317968.0,1.448784924424755e+17,1167613431179285.2,1935084435254642.5,28085840629248.26,99910653337104.61,3627186365440404.0,1.3484826603531672e+17
13.844365208556836,3173298615982174.0,1.48748717946672e+17,1167964168321454.8,1935665711861482.8,28869114123153.402,102698022710640.47,3728387271691629.5,1.3861183504198173e+17
14.221252512727972,3174221772609390.5,1.526960414825341e+17,1168303945358950.8,1936228824288121.5,29668003961504.76,105541020769601.92,3831608032366706.5,1.4245046988317976e+17
14.605677562982532,3175116613910735.0,1.5672200353976173e+17,1168633300657231.8,1936774664767458.8,30482821165401.51,108440757699710.75,3936888962919560.0,1.463656664186417e+17
14.997791114242183,3175984520722158.0,1.608281750173792e+17,1168952742446779.0,1937304075589721.8,31313882928451.16,111398365810838.06,4044271182468017.5,1.503589502474132e+17
15.397746936527026,3176826797804955.0,1.650161578332169e+17,1169262750958040.5,1937817852640676.2,32161512737270.473,114414999972648.4,4153796629626272.5,1.5443187728947706e+17
15.805701875257567,3177644679169167.0,1.692875855444736e+17,1169563780380756.2,1938316748648843.8,33026040494384.57,117491838059058.64,4265508078658292.5,1.5858603437906352e+17
16.221815912762718,3178439332964958.0,1.7364412397963453e+17,1169856260664276.0,1938801476169145.2,33907802643560.562,120630081401656.67,4379449155957241.0,1.6282303986983382e+17
16.64625223101797,3179211865982201.0,1.7808747188200285e+17,1170140599173687.2,1939272710327625.5,34807142297613.957,123830955252224.6,4495664356856295.0,1.671445442521133e+17
17.079177275638333,3179963327794529.0,1.8261936156512893e+17,1170417182215064.8,1939731091349218.5,35724409368726.5,127095709254518.75,4614199062776395.0,1.715522307823705e+17
17.5207608211511,3180694714580059.5,1.8724155958039203e+17,1170686376441731.0,1940177226888367.5,36659960701316.57,130425617925464.52,4735099558716709.0,1.7604781612513834e+17
17.97117603757412,3181406972647907.0,1.919558673970104e+17,1170948530152221.0,1940611694180133.2,37614160207503.58,133821981145927.81,4858413051093585.0,1.8063305100758285e+17
18.430599558325603,3182101001696651.0,1.9676412209474797e+17,1171203974489592.5,1941035042027815.2,38587379005209.72,137286124661230.72,4984187685934379.0,1.8530972088693296e+17
18.899211549492115,3182777657828162.5,2.016681970695866e+17,1171453024550713.2,1941447792641349.0,39579995558943.68,140819400591584.2,5112472567432189.0,1.9007964663098346e+17
19.37719578048196,3183437756338133.0,2.066700027526377e+17,1171695980413309.2,1941850443339468.2,40592395823310.65,144423187952613.88,5243317776867961.0,1.949446852119029e+17
19.864739696091597,3184082074302269.5,2.117714873425653e+17,1171933128087876.0,1942243468127284.0,41624973389296.48,148098893186159.7,5376774391906804.0,1.999067304135656e+17
20.36203449001343,3184711352975660.0,2.169746375517983e+17,1172164740400758.8,1942627319159816.5,42678129633372.695,151847950701535.62,5512894506275097.0,2.04967713552652e+17
20.869275179813698,3185326300020751.0,2.2228147936680906e+17,1172391077814200.2,1943002428101065.5,43752273869471.04,155671823427442.03,5651731249825290.0,2.1012960421375085e+17
21.38666068340997,3185927591578269.0,2.276940788227402e+17,1172612389188565.2,1943369207387242.0,44847823503878.26,159572003374719.75,5793338808995726.0,2.1539441099871197e+17
21.91439389707817,3186515874193908.5,2.3321454279266227e+17,1172828912491455.2,1943728051401986.5,45965204193099.89,163550012210150.9,5937772447672513.0,2.207641822904995e+17
22.452681775019734,3187091766612407.5,2.3884501979174986e+17,1173040875458069.5,1944079337570765.8,47104850004746.56,167607401841502.12,6085088528461055.0,2.2624100703180147e+17
23.00173541052013,3187655861449722.0,2.4458770079666586e+17,1173248496206633.5,1944423427380863.2,48267203581494.664,171745755014028.28,6235344534374593.0,2.3182701551865875e+17
23.561770118730532,3188208726752918.0,2.504448200804498e+17,1173451983812555.8,1944760667332883.8,49452716308174.96,175966685918634.88,6388599090947755.0,2.3752438020937683e+17
24.133005521105144,3188750907456585.0,2.564186560632009e+17,1173651538844458.8,1945091389829150.2,50661848482044.15,180271840811927.16,6544911988782749.0,2.4333531654899376e+17
24.715665631527248,3189282926743813.0,2.625115321788654e+17,1173847353865116.5,1945415914003888.5,51895069486294.39,184662898648358.28,6704344206536493.0,2.492620838095815e+17
25.309978944157795,3189805287319095.5,2.6872581775842582e+17,1174039613899945.8,1945734546499664.8,53152857966857.766,189141571724704.72,6866957934356608.0,2.5530698594665894e+17
25.91617852304095,3190318472599798.5,2.7506392892980246e+17,1174228496875542.2,1946047582194170.5,54435702012563.47,193709606337096.2,7032816597774909.0,2.6147237247200835e+17
26.53450209350177,3190822947832388.5,2.8152832953478227e+17,1174414174030522.0,1946355304881117.0,55744099338705.11,198368783450832.47,7201984882066777.0,2.6776063934318205e+17
27.165192135371807,3191319161139029.5,2.8812153206329e+17,1174596810300730.5,1946657987908623.2,57078557474078.29,203120919383229.9,7374528757085015.0,2.7417422986999917e+17
27.808495978079243,3191807544499636.5,2.948460986053203e+17,1174776564680699.0,1946955894778268.2,58439593951549.195,207967866499729.38,7550515502577300.0,2.807156356383329e+17
28.464665897640828,3192288514674181.0,3.017046418208628e+17,1174953590563097.8,1947249279707690.2,59827736502213.95,212911513923522.38,7730013733996011.0,2.8738739745149568e+17
29.133959215593645,3192762474069566.0,3.0869982592814195e+17,1175128036057816.8,1947538388159348.8,61243523253212.96,217953788258940.53,7913093428809590.0,2.941921062895332e+17
29.816638399905518,3193229811555026.5,3.158343677105151e+17,1175300044292067.0,1947823457337927.2,62687502929261.19,223096654328865.2,8099825953325084.0,3.0113240428674656e+17
30.51297116790363,3193690903229778.0,3.2311103754235904e+17,1175469753692923.2,1948104716658563.8,64160235057960.88,228342115926414.8,8290284090030948.0,3.082109857277625e+17
31.223230591261704,3194146113146185.0,3.305326604342971e+17,1175637298253501.0,1948382388188011.0,65662290178959.586,233692216581180.4,8484542065470185.0,3.154305980624789e+17
31.947695203086937,3194595793991738.0,3.3810211709810726e+17,1175802807783958.8,1948656687060590.2,67194250057020.6,239149040340271.66,8682675578653429.0,3.227940429402202e+17
32.686649107148675,3195040287732516.0,3.458223450316753e+17,1175966408148328.8,1948927821870722.5,68756707899073.086,244714712564450.66,8884761830022103.0,3.303041772634379e+17
33.44038208929165,3195479926220914.0,3.536963396243396e+17,1176128221488209.0,1949195995043626.2,70350268575308.27,250391400739633.1,9090879550971838.0,3.3796391426130074e+17
34.20918973107749,3195915031770048.0,3.617271552830017e+17,1176288366434161.2,1949461403185686.5,71975548844392.52,256181315304036.78,9301109033946520.0,3.45776224583517e+17
34.993373525699035,3196345917697053.5,3.699179065793631e+17,1176446958305684.5,1949724237415871.0,73633177582864.6,262086710491270.3,9515532163113656.0,3.537441374147563e+17
35.793240996213015,3196772888837445.0,3.7827176941866515e+17,1176604109300550.5,1949984683679487.5,75323796018790.8,268109885189650.3,9734232445631498.0,3.6187074161000826e+17
36.60910581613728,3197196242032437.5,3.8679198223031565e+17,1176759928674123.0,1950242923045423.5,77048057969746.28,274253183818048.0,9957295043519228.0,3.70159186851256e+17
37.44128793246003,3197616266591011.5,3.9548184718077165e+17,1176914522909473.8,1950499131988017.5,78806630085197.55,280518997218569.66,1.0184806806141162e+16,3.786126848258381e+17
38.29011369110923,3198033244728448.5,4.043447314090874e+17,1177067995878752.8,1950753482654538.5,80600192093359.12,286909763566376.0,1.0416856303316058e+16,3.8723451042685024e+17
39.15591596493141,3198447451982773.5,4.1338406828550336e+17,1177220448996490.8,1951006143119242.8,82429437052596.55,293427969296954.9,1.0653533859063488e+16,3.9602800297599226e+17
40.03903428423004,3198859157610674.5,4.226033586934855e+17,1177371981365295.2,1951257277624839.0,84295071607455.48,300076150051165.9,1.0894931585998534e+16,4.0499656746922797e+17
40.93981496991464,3199268624964137.5,4.3200617233561926e+17,1177522689914500.2,1951507046812268.5,86197816249388.03,306856891638383.0,1.1141143420386894e+16,4.141436758456533e+17
41.85861126931294,3199676111849056.0,4.41596149063764e+17,1177672669532143.2,1951755607939426.0,88138405582257.14,313772831018061.6,1.1392265157872602e+16,4.2347286827997005e+17
