t(s),Total solute volume 1,Total retention volume 1,Total 1 volume 1,Total 2 volume 1,Total 3 volume 1,Total 4 volume 1,Total 5 volume 1,Total 6 volume 1
0.1,878184692305091.0,1002349173156223.1,60489917771387.09,63674563079745.664,0.0,0.0,0.0,0.0
0.202,1323180909322110.2,1510263485061773.8,91141539158687.67,95939917251503.56,2348446.636405623,4154734.1275925008,53245751.21772881,1059580539.2310752
0.30604000000000003,1662078843087055.2,1897079126523096.0,114485043516731.56,120512399799440.86,5958739.711516734,10541853.975445548,135101280.2174216,2688517996.224078
0.41216080000000005,1948734685340242.2,2224266773238932.0,134230079511336.08,141296963443185.47,10584542.28103052,18725554.18400479,239981326.65513048,4775652743.710389
0.5204040160000001,2203306439686755.2,2514834469766343.5,151765143205593.97,159755205168097.97,16116558.342944538,28512474.585254803,365407825.4073003,7271669041.270493
0.6308120963200001,2435836329464580.0,2780244258003991.5,167781949305508.06,176615256763847.4,22496180.753705107,39798930.8219576,510051981.1107893,10150122961.886276
0.7434283382464002,2652160703923579.5,3027157659021853.5,182682509244808.62,192300294579792.78,29689919.38687234,52525674.109991275,673154475.1273774,13395903601.43728
0.8582969050113283,2856018299089276.5,3259842010997307.5,196724349529356.3,207081403260191.22,37678895.98612476,66659306.1385369,854287282.4713484,17000493000.724491
0.9754628431115548,3049971071694973.0,3481221495238877.5,210083939361854.16,221144342677985.66,46453668.73397116,82183122.99665931,1053236329.5540464,20959630945.60704
1.094972099973786,3235863778017802.5,3693401692434123.5,222888346723241.3,234622870631275.84,56011366.39222718,99092045.06082092,1269936516.7831326,25272021875.02807
1.2168715419732616,3415076265240893.5,3897957544077286.0,235232616361553.78,247617035740660.12,66353966.433746256,117389570.76549143,1504432678.8068635,29938557967.520416
1.3412089728127268,3588672266852698.0,4096103185178927.0,247190018913290.94,260203966161689.25,77487196.64466587,137085833.38164982,1756854680.6561809,34961823541.292175
1.4680331522689813,3757492220206932.5,4288797884734248.5,258818444235744.0,272444599510450.9,89419801.91240466,158196303.86072877,2027400793.710006,40345764227.67863
1.597393815314361,3922213837485830.5,4476815180431748.5,270164573573314.03,284388074684199.94,102163037.3541883,180740894.10708565,2316326203.4567423,46095458270.143135
1.729341691620648,4083393127931800.5,4660789700750687.0,281266705194812.88,296074706261525.94,115730308.28835969,204743320.0361963,2623934846.6065354,52216954079.0707
1.863928525453061,4241493058002743.0,4841249877184424.0,292156728523121.0,307538062565089.5,130136909.14678515,230230639.6736903,2950573491.484058,58717152428.93986
2.001207095962122,4396904111256131.5,5018641410946734.0,302861540313021.25,318806456397744.1,145399831.22069436,257232913.03049845,3296627379.073771,65603719713.21413
2.1412312378813647,4549959376980573.0,5193344494881606.0,313404083965704.25,329904039074385.8,161537619.63276342,285782949.0662121,3662516980.166029,72885023410.14397
2.284055862638992,4700945845130415.0,5365686705311323.0,323804127531012.1,340851619384124.6,178570266.3744188,315916116.4569235,4048695570.2054486,80570083821.2051
2.4297369798917723,4850113009838193.0,5535952821941188.0,334078856322832.3,351667287405409.0,196519130.3408712,347670202.1259042,4455647416.255676,88668537990.91249
2.578331719489608,4997679524609306.0,5704392423988383.0,344243331333117.44,362366897054415.06,215406877.973462,381085306.23151803,4883886431.190919,97190612924.64676
2.7298983538794,5143838421652332.0,5871225847440637.0,354310848742668.0,372964444523200.8,235257439.9152295,416203765.48481303,5333955190.953599,106147106031.63661
2.884496320956988,5288761255913333.0,6036648915023494.0,364293225367216.06,383472368759887.94,256095980.38018957,453070099.58516437,5806424399.985782,115549392574.7848
3.0421862473761276,5432601432343018.0,6200836733762479.0,374201027832079.56,393901792684268.2,277948876.3712727,491730971.95914286,6301891782.420508,125409331485.3338
3.2030299723236504,5575496904137409.0,6363946774910929.0,384043758443273.44,404262718881769.94,300843705.78385353,532235172.4447622,6820982765.875602,135739386819.8227
3.3670905717701234,5717572381571556.0,6526121394952545.0,393830007323534.1,414564189723987.56,324809241.7394706,574633604.7870317,7364349719.125103,146552540897.42007
3.5344323832055258,5858941155170498.0,6687489916579190.0,403567577995988.44,424814419570364.7,349875452.9588837,618979287.9163394,7932672118.597571,157862315487.1837
3.7051210308696363,5999706612379369.0,6848170359801837.0,413263591853344.3,435020904737439.06,376073508.9497911,665327365.1263087,8526656665.997101,169682774149.15738
3.879223451487029,6139963508282158.0,7008270892337725.0,422924575685807.94,445190515634885.3,403435789.39578193,713735120.6842406,9147037501.177937,182028526470.57437
4.0568079205167695,6279799037312049.0,7167891052853626.0,432556535501167.1,455329574472044.94,431995897.214123,764262002.9322424,9794576498.202005,194914733957.43588
4.237944078927105,6419293742679711.0,7327122788983733.0,442165019166788.9,465443921197872.8,461788674.85955554,816969653.1309979,10470063634.992899,208357117390.68423
4.422702960505647,6558522292509217.0,7486051343210904.0,451755169870358.06,475538969776244.06,492850223.5367696,871921939.4494383,11174317428.937906,222371965494.76953
4.61115701971576,6697554145754764.0,7644756012946153.0,461331771988636.0,485619756469607.06,525217925.05162776,929184995.6227013,11908185432.318224,236976144796.8143
4.803380160110075,6836454126403976.0,7803310805928755.0,470899290638950.3,495690981472745.0,558930466.0847756,988827263.8956577,12672544782.6615,252187110578.75317
4.9994477633122765,6975282920916777.0,7961785008009547.0,480461905943104.25,505757044980602.4,594027864.7142262,1050919541.9452007,13468302804.08513,268022918844.20844
5.199436718578522,7114097511058866.0,8120243677195243.0,490023542841206.5,515822078571744.2,630551499.0482703,1115535033.5359879,14296397656.486927,284502239237.5371
5.403425452950093,7252951552080005.0,8278748075311259.0,499587897140852.5,525889972628953.8,668544137.858357,1182749402.7144234,15157799030.08036,301644368865.25854
5.611493962009095,7391895704430720.0,8437356046634361.0,509158458365961.8,535964400391012.5,708049973.1248327,1252640831.3867786,16053508883.300669,319469246980.5652
5.823723841249277,7530977925800149.0,8596122351237660.0,518738529872540.44,546048839127504.44,749114654.4277244,1325290080.161431,16984562222.542355,337997470500.304
6.040198318074262,7670243729121348.0,8755098959491729.0,528331246620245.94,556146588846010.1,791785325.1307234,1400780552.3635697,17952027922.554863,357250310331.05334
6.261002284435747,7809736411266435.0,8914335313112723.0,537939590925054.6,566260788874119.4,836110660.3201133,1479198361.1546144,18957009586.62704,377249728487.0167
6.486222330124463,7949497256401387.0,9073878557287666.0,547566406466469.5,576394432604070.4,882140906.4717118,1560632399.7087605,20000646445.951077,398018395987.60425
6.715946776726952,8089565717350747.0,9233773747701914.0,557214410780037.5,586550380642979.9,929927922.82872,1645174414.4163966,21084114297.777504,419579711526.9541
6.950265712261491,8229979577814184.0,9394064035711496.0,566886206430922.6,596731372574677.0,979525224.4817036,1732919081.0987494,22208626482.16273,441957820911.46375
7.18927102650672,8370775097852573.0,9554790834420394.0,576584291035086.1,606940037508466.2,1030988027.1492145,1823964084.2313251,23375434897.274803,465177637264.64105
7.433056447036854,8511987144710780.0,9715993968022494.0,586311066270440.8,617178903564699.2,1084373293.66393,1918410199.1845627,24585831053.367798,489264862001.47754
7.681717575977592,8653649310749595.0,9877711806430294.0,596068846000078.2,627450406425678.2,1139739782.1747386,2016361377.5003092,25841147165.66283,514246006577.05066
7.935351927497144,8795794020012569.0,1.0039981386932948e+16,605859863612651.8,637756897062482.5,1197148096.0802214,2117924835.231349,27142757286.4836,540148415016.33167
8.194058966047088,8938452624744849.0,1.020283852438638e+16,615686278670671.2,648100648733277.2,1256660735.7134092,2223211144.3792305,28492078477.099136,567000287234.1617
8.45794014536803,9081655493006048.0,1.0366317911238876e+16,625550182945315.8,658483863335862.4,1318342151.8017447,2332334327.4726105,29890572019.815315,594830703156.1874
8.72709894827539,9225432088368500.0,1.0530453208524036e+16,635453605906112.9,668908677186345.8,1382258800.729815,2445411955.335106,31339744670.940704,623669647653.2094
9.0016409272409,9369811042565574.0,1.0695277128807934e+16,645398519724990.0,679377166286662.5,1448479201.6358697,2562565248.0972104,32841149955.329784,653548036302.9276
9.281673745785717,9514820221845564.0,1.0860821511952722e+16,655386843846783.4,689891351135704.4,1517073995.3762286,2683919179.512938,34396389503.27552,684497741994.4706
9.567307220701432,9660486787693084.0,1.1027117394452294e+16,665420449171757.2,700453201132040.4,1588116005.3946161,2809602584.6464224,36007114430.59386,716551622392.4152
9.85865336511546,9806837252500238.0,1.1194195073004584e+16,675501161890271.4,711064638610462.9,1661680300.5362518,2939748270.999185,37675026762.80055,749743548278.2919
10.155826432417769,9953897530699080.0,1.136208416290444e+16,685630767004825.8,721727542549468.5,1737844259.849166,3074493133.153043,39401880904.343796,784108432788.6918
10.458942961066125,1.0101692985808822e+16,1.1530813651774656e+16,695811011570686.8,732443751982492.1,1816687639.417673,3213978271.0081844,41189485153.91317,819682261570.3115
10.768121820287448,1.0250248473797362e+16,1.1700411949090848e+16,706043607682665.0,743215069141932.5,1898292641.275428,3358349111.70043,43039703266.8973,856502123873.2642
11.083484256693197,1.039958838311265e+16,1.187090693190705e+16,716330235232506.5,754043262361707.8,1982743984.4478252,3507755535.2854466,44954456066.12076,894606244605.1654
11.405153941827061,1.0549736671699452e+16,1.2042325987140746e+16,726672544458623.0,764930068761224.2,2070128978.1757355,3662352004.2822347,46935723102.038475,934034017369.417
11.733257020663602,1.0700716901282662e+16,1.2214696050739528e+16,737072158307547.1,775877196731168.8,2160537597.3749213,3822297697.1717615,48985544363.61837,974826038512.2355
12.067922161076874,1.0852552269168024e+16,1.238804364401516e+16,747530674624398.2,786886328239272.6,2254062560.3876557,3987756645.9509215,51106022041.19694,1017024142203.9031
12.409280604298411,1.1005265637784808e+16,1.2562394907401172e+16,758049668187775.5,797959120972368.1,2350799409.08521,4158897877.845423,53299322342.633675,1060671436580.7314
12.75746621638438,1.1158879562170824e+16,1.2737775631863558e+16,768630692602981.6,809097210329253.4,2450846591.3822165,4335895561.289704,55567677364.150665,1105812340975.2085
13.112615540712067,1.1313416315581284e+16,1.2914211288170708e+16,779275282065938.5,820302211277500.2,2554305546.2257614,4518929156.285053,57913387017.283005,1152492624262.8252
13.474867851526309,1.1468897913382552e+16,1.3091727054207222e+16,789984953009023.0,831575720085926.4,2661280791.1248007,4708183569.251769,60338821013.42251,1200759444354.974
13.844365208556836,1.1625346135377366e+16,1.3270347840498652e+16,800761205638850.1,842919315943337.4,2771880012.2869754,4903849312.494547,62846420907.48245,1250661388868.374
14.221252512727972,1.1782782546693452e+16,1.345009831409765e+16,811605525375074.4,854334562473083.1,2886214157.4327307,5106122668.403949,65438702202.26183,1302248517002.4106
14.605677562982532,1.1941228517354016e+16,1.3631002920967106e+16,822519384198434.1,865823009152068.2,3004397531.358456,5315205858.521634,68118256515.13892,1355572402656.89
14.997791114242183,1.2100705240638342e+16,1.381308590698355e+16,833504241915426.8,877386192642021.0,3126547894.322775,5531307217.600075,70887753808.77419,1410686178823.4749
15.397746936527026,1.2261233750329744e+16,1.3996371337672122e+16,844561547346368.8,889025638040087.9,3252786563.332291,5754641372.791787,73749944687.55115,1467644583285.3936
15.805701875257567,1.2422834936939522e+16,1.4180883116774022e+16,855692739442915.4,900742860055194.8,3383238516.4054236,5985429428.10737,76707662761.54109,1526504005660.8213
16.221815912762718,1.258552956298759e+16,1.4366645003738702e+16,866899248340589.2,912539364115977.0,3518032499.895323,6223899154.285249,79763827079.82262,1587322535826.412
16.64625223101797,1.2749338277412488e+16,1.455368063022418e+16,878182496351350.4,924416647415637.4,3657301138.954995,6470285184.22089,82921444635.04796,1650160013758.62
17.079177275638333,1.2914281629177994e+16,1.4742013515681386e+16,889543898900850.4,936376199898500.9,3801181051.230499,6724829214.1065,86183612941.19507,1715078080831.3787
17.5207608211511,1.308038008013699e+16,1.4931667082092672e+16,900984865414471.8,948419505192736.2,3949812963.870064,6987780210.437367,89553522686.50444,1782140232609.8958
17.97117603757412,1.3247654017207606e+16,1.5122664667926972e+16,912506800156045.4,960548041493217.6,4103341833.9397902,7259394623.044833,93034460463.64859,1851411873181.3813
18.430599558325603,1.3416123763912912e+16,1.5315029541370074e+16,924111103022717.5,972763282398231.0,4261916972.338826,7539936604.320473,96629811579.24777,1922960371064.588
18.899211549492115,1.358580959132992e+16,1.55087849128825e+16,935799170299110.8,985066697703355.9,4425692171.309452,7829678234.800089,100343062944.88997,1996855116741.3
19.37719578048196,1.3756731728490436e+16,1.5703953947133294e+16,947572395373749.5,997459754155599.2,4594825835.640191,8128899755.281289,104177806051.88316,2073167581853.883
19.864739696091597,1.3928910372271902e+16,1.5900559774353874e+16,959432169420344.2,1009943916170546.5,4769481117.66233,8437889805.652089,108137740032.0111,2151971380114.2214
20.36203449001343,1.4102365696813464e+16,1.6098625501151432e+16,971379882046376.8,1022520646515096.2,4949826056.142966,8756945670.613167,112226674806.63628,2233342329970.594
20.869275179813698,1.4277117862489022e+16,1.6298174220818926e+16,983416921911172.1,1035191406958071.4,5136033719.180175,9086373532.480423,116448534326.5403,2317358519079.9795
21.38666068340997,1.4453187024465884e+16,1.6499229023173714e+16,995544677315419.4,1047957658890782.4,5328282351.208428,9426488731.259119,120807359904.95238,2404100370634.6313
21.91439389707817,1.4630593340874656e+16,1.6701813003954726e+16,1007764536763919.1,1060820863919391.1,5526755524.224744,9777616032.185293,125307313646.2724,2493650711592.632
22.452681775019734,1.4809356980613116e+16,1.690594927380406e+16,1020077889503130.0,1073782484430762.1,5731642293.348631,10140089900.933992,129952681973.05202,2586094842863.4883
23.00173541052013,1.4989498130804108e+16,1.711166096685508e+16,1032486126034853.4,1086843984133196.1,5943137356.830955,10514254786.698708,134747879253.84169,2681520611500.6265
23.561770118730532,1.5171037003923762e+16,1.73189712489474e+16,1044990638607244.2,1100006828573283.6,6161441220.629231,10900465413.349226,139697451534.5671,2780018484953.6533
24.133005521105144,1.5353993844614088e+16,1.7527903325483304e+16,1057592821684067.6,1113272485629878.4,6386760367.668555,11299087078.879066,144806080376.14218,2881681627434.2417
24.715665631527248,1.5538388936190412e+16,1.7738480448937886e+16,1070294072392924.1,1126642425985899.2,6619307431.909268,11710495963.356895,150078586801.05655,2986605978450.0845
25.309978944157795,1.572424260684997e+16,1.7950725926031118e+16,1083095790952912.6,1140118123578533.2,6859301377.343638,12135079445.598188,155519935351.71506,3094890333562.1543
25.91617852304095,1.5911575235585208e+16,1.8164663124564904e+16,1095999381081940.1,1153701056027967.8,7106967682.045127,12573236428.775099,161135238263.3274,3206636427420.712
26.53450209350177,1.6100407257800442e+16,1.838031547992377e+16,1109006250383586.8,1167392705044641.8,7362538527.39375,13025377675.184511,166929759754.15085,3321949019136.0356
27.165192135371807,1.6290759170626122e+16,1.8597706501233484e+16,1122117810713177.4,1181194556814574.5,7626252992.60165,13491926150.392038,172908920435.89273,3440935980039.379
27.808495978079243,1.6482651537919364e+16,1.881685977716384e+16,1135335478522205.5,1195108102361924.5,7898357254.661344,13973317376.970348,179078301847.05823,3563708383889.6987
28.464665897640828,1.6676104994935386e+16,1.9037798981358504e+16,1148660675180111.2,1209134837887718.8,8179104793.838301,14469999798.045477,185443651111.99207,3690380599580.693
29.133959215593645,1.6871140252645924e+16,1.9260547877464496e+16,1162094827271739.0,1223276265082960.5,8468756604.826066,14982435150.861603,192010885728.2985,3821070386401.431
29.816638399905518,1.7067778101675966e+16,1.9485130323729132e+16,1175639366868488.0,1237533891414053.5,8767581413.678944,15511098850.566992,198786098485.24857,3955898991902.504
30.51297116790363,1.7266039415821474e+16,1.971157027712122e+16,1189295731770637.5,1251909230377890.2,9075855900.631851,16056480384.415081,205775562515.64966,4094991252416.834
31.223230591261704,1.7465945155103436e+16,1.993989179692578e+16,1203065365717687.5,1266403801723270.8,9393864928.910507,16619083716.563549,212985736483.52878,4238475696281.7183
31.947695203086937,1.7667516368304034e+16,2.0170119047751144e+16,1216949718563072.5,1281019131634801.2,9721901779.626938,17199427703.639038,220423269909.7691,4386484649804.799
32.686649107148675,1.7870774194922388e+16,2.040227630187548e+16,1230950246408857.5,1295756752874687.0,10060268392.844881,17798046521.217587,228095008637.63034,4539154346012.117
33.44038208929165,1.807573986647591e+16,2.063638794085074e+16,1245068411695387.2,1310618204877103.2,10409275614.888237,18415490101.34975,236008000439.79807,4696625036210.96
34.20918973107749,1.828243470706476e+16,2.087247845626731e+16,1259305683240169.5,1325605033789122.8,10769243451.950926,19052324581.23363,244169500768.28757,4859041104393.777
34.993373525699035,1.8490880133104156e+16,2.1110572449572064e+16,1273663536219406.5,1340718792451279.5,11140501330.049131,19709132763.109295,252586978648.1419,5026551184501.806
35.793240996213015,1.8701097652118252e+16,2.1350694630819624e+16,1288143452084966.5,1355961040310153.2,11523388361.339458,20386514585.414513,261268122715.44055,5199308280558.524
36.60910581613728,1.8913108860480028e+16,2.1592869816221428e+16,1302746918408653.8,1371333343254464.5,11918253616.802206,21085087605.201923,270220847399.60907,5377469889672.783
37.44128793246003,1.9126935439966188e+16,2.183712292434747e+16,1317475428644947.0,1386837273365294.2,12325456405.265923,21805487491.77462,279453299249.4823,5561198127900.4375
38.29011369110923,1.934259915298826e+16,2.208347897081847e+16,1332330481802490.8,1402474408570306.5,12745366558.719383,22548368531.44543,288973863401.9193,5750659858940.697
39.15591596493141,1.956012183634781e+16,2.233196306131741e+16,1347313582013963.5,1418246332190949.0,13178364723.828485,23314404143.27334,298791170191.0635,5946026825629.139
40.03903428423004,1.9779525393354156e+16,2.258260038273436e+16,1362426237993138.5,1434154632370925.2,13624842659.53893,24104287405.566544,308914101895.57996,6147475784174.08
40.93981496991464,2.0000831784131964e+16,2.2835416192248508e+16,1377669962367254.0,1450200901373450.0,14085203540.60922,24918731592.8777,319351799620.32745,6355188641065.942
41.85861126931294,2.022406301393879e+16,2.3090435804141136e+16,1393046270872318.2,1466386734734159.0,14559862266.877625,25758470723.142624,330113670308.0164,6569352592571.048
42.7957834946992,2.0449241119303204e+16,2.3347684574124016e+16,1408556681398327.5,1482713730256050.5,15049245778.022427,26624260114.538166,341209393875.3988,6790160266700.891
43.751699164593184,2.067638815178959e+16,2.3607187880961164e+16,1424202712870929.2,1499183486832304.5,15553793373.528008,27516876951.549484,352648930467.46356,7017809867527.721
44.72673314788505,2.0905526159189464e+16,2.3868971105155296e+16,1439985883955890.8,1515797603082517.0,16073957037.519327,28437120859.651028,364442527822.003,7252505321693.656
