t(s),Total solute volume 1,Total retention volume 1,Total 1 volume 1,Total 2 volume 1,Total 3 volume 1,Total 4 volume 1,Total 5 volume 1,Total 6 volume 1
0.1,578315786727170.9,578362268741437.9,46482014267.97262,0.0,0.0,0.0,0.0,0.0
0.21000000000000002,888774350145206.9,888845785204015.6,71435058809.48239,0.0,0.0,0.0,0.0,0.0
0.33100000000000007,1138716456219596.8,1138807980324819.5,91524105222.2898,0.0,0.0,0.0,0.0,0.0
0.46410000000000007,1362204691441426.0,1362314178368407.8,109486926988.87383,0.0,0.0,0.0,0.0,0.0
0.6105100000000001,1571950655390620.2,1572077000607102.5,126345216482.7718,0.0,0.0,0.0,0.0,0.0
0.7715610000000002,1774347302350698.8,1774489915156808.8,142612806109.61456,0.0,0.0,0.0,0.0,0.0
0.9487171000000002,1973194421745578.0,1973353016848755.0,158595103175.91306,0.0,0.0,0.0,0.0,0.0
1.1435888100000002,2171017752807736.0,2171192247921197.5,174495113462.0288,0.0,0.0,0.0,0.0,0.0
1.3579476910000003,2369641447386185.0,2369831906838986.5,190459452804.2879,0.0,0.0,0.0,0.0,0.0
1.5937424601000005,2570472221862354.5,2570678823048102.0,206601185747.69937,0.0,0.0,0.0,0.0,0.0
1.8531167061100007,2774654684602082.0,2774877696912042.0,223012309958.488,0.0,0.0,0.0,0.0,0.0
2.138428376721001,2983162708309893.0,2983402479410161.5,239771100258.5961,0.0,0.0,0.0,0.0,0.0
2.452271214393101,3196856410692724.5,3197113357381163.5,256946688435.01697,0.0,0.0,0.0,0.0,0.0
2.7974983358324113,3416519442944331.5,3416794045004629.0,274602060294.1932,0.0,0.0,0.0,0.0,0.0
3.1772481694156527,3642884418007674.0,3643177214107122.0,292796099453.47296,0.0,0.0,0.0,0.0,0.0
3.594972986357218,3876650893339808.5,3876962478372525.0,311585032702.1942,0.0,0.0,0.0,0.0,0.0
4.05447028499294,4118498516171365.5,4118829539657914.5,331023486549.275,0.0,0.0,0.0,0.0,0.0
4.5599173134922335,4369096934354777.5,4369448099638589.0,351165283805.6243,0.0,0.0,0.0,0.0,0.0
5.115909044841457,4629113492271008.0,4629485556333160.0,372064062141.0985,0.0,0.0,0.0,0.0,0.0
5.727499949325603,4899219378932034.0,4899613152700270.0,393773768236.98737,0.0,0.0,0.0,0.0,0.0
6.400249944258164,5180094673883336.0,5180511022946676.0,416349063349.3998,0.0,0.0,0.0,0.0,0.0
7.140274938683981,5472432588189770.0,5472872433853949.0,439845664177.62866,0.0,0.0,0.0,0.0,0.0
7.95430243255238,5776943084381446.0,5777407405015264.0,464320633816.5196,0.0,0.0,0.0,0.0,0.0
8.84973267580762,6094355948098847.0,6094845780727491.0,489832628639.2536,0.0,0.0,0.0,0.0,0.0
9.834705943388382,6425423240728471.0,6425939682823897.0,516442095427.32025,0.0,0.0,0.0,0.0,0.0
10.918176537727222,6770920848107131.0,6771465059503011.0,544211395847.1307,0.0,0.0,0.0,0.0,0.0
12.109994191499945,7131648519836666.0,7132221724646275.0,573204809609.6725,0.0,0.0,0.0,0.0,0.0
13.42099361064994,7508427350429533.0,7509030838761538.0,603488332017.8229,0.0,0.0,0.0,0.0,0.0
14.863092971714936,7902093113635648.0,7902728242773837.0,635129138213.8413,0.0,0.0,0.0,0.0,0.0
16.44940226888643,8313483314171589.0,8314151508714052.0,668194542464.4246,0.0,0.0,0.0,0.0,0.0
18.194342495775075,8743415423124824.0,8744118173373671.0,702750248835.4012,0.0,0.0,0.0,0.0,0.0
20.113776745352585,9192653712320682.0,9193392570006188.0,738857685510.5199,0.0,0.0,0.0,0.0,0.0
22.225154419887843,9661862582728352.0,9662639152981898.0,776570253571.4609,0.0,0.0,0.0,0.0,0.0
24.54766986187663,1.0151545390837456e+16,1.0152361319247636e+16,815928410180.3511,0.0,0.0,0.0,0.0,0.0
27.102436848064297,1.0661969468471388e+16,1.0662826422113466e+16,856953642062.777,0.0,0.0,0.0,0.0,0.0
29.91268053287073,1.1193080095543336e+16,1.1193979737094394e+16,899641551085.9696,0.0,0.0,0.0,0.0,0.0
33.003948586157804,1.174440828447585e+16,1.1745352238918308e+16,943954442450.9109,0.0,0.0,0.0,0.0,0.0
36.40434344477359,1.2314978989951546e+16,1.2315968803898624e+16,989813947070.4637,0.0,0.0,0.0,0.0,0.0
40.14477778925095,1.2903227452969988e+16,1.2904264547267696e+16,1037094297740.8657,0.0,0.0,0.0,0.0,0.0
44.25925556817605,1.3506931661627168e+16,1.350801727852786e+16,1085616900691.6173,0.0,0.0,0.0,0.0,0.0
48.78518112499366,1.4123168391635878e+16,1.4124303538438228e+16,1135146802352.2446,0.0,0.0,0.0,0.0,0.0
53.763699237493036,1.4748299171126842e+16,1.4749484562688128e+16,1185391561277.104,0.0,0.0,0.0,0.0,0.0
59.240069161242346,1.5377991067425558e+16,1.5379227070344436e+16,1236002918879.2974,0.0,0.0,0.0,0.0,0.0
65.26407607736658,1.6007275654147316e+16,1.600856223568622e+16,1286581538899.7686,0.0,0.0,0.0,0.0,0.0
71.89048368510325,1.6630647986784572e+16,1.6631984671747126e+16,1336684962550.6094,0.0,0.0,0.0,0.0,0.0
79.17953205361358,1.7242205817765648e+16,1.7243591656563538e+16,1385838797897.3694,0.0,0.0,0.0,0.0,0.0
87.19748525897495,1.783582740013566e+16,1.7837260951146412e+16,1433551010793.6177,0.0,0.0,0.0,0.0,0.0
96.01723378487245,1.8405383803044384e+16,1.8406863132034076e+16,1479328989694.5059,0.0,0.0,0.0,0.0,0.0
105.7189571633597,1.8944978532303188e+16,1.8946501231108296e+16,1522698805109.14,0.0,0.0,0.0,0.0,0.0
116.39085287969569,1.9449203481931572e+16,1.9450766707713228e+16,1563225781652.568,0.0,0.0,0.0,0.0,0.0
128.12993816766527,1.9913396200862776e+16,1.9914996736038576e+16,1600535175802.8975,0.0,0.0,0.0,0.0,0.0
141.04293198443182,2.033387980081933e+16,2.0335514132277776e+16,1634331458445.8435,0.0,0.0,0.0,0.0,0.0
155.247225182875,2.070816441946191e+16,2.0709828833969364e+16,1664414507432.1672,0.0,0.0,0.0,0.0,0.0
170.87194770116253,2.1035088894761956e+16,2.103677958575657e+16,1690690994624.629,0.0,0.0,0.0,0.0,0.0
188.0591424712788,2.131488394913713e+16,2.131659712860142e+16,1713179464308.6045,0.0,0.0,0.0,0.0,0.0
206.9650567184067,2.1549144079076684e+16,2.15508760871505e+16,1732008073825.6318,0.0,0.0,0.0,0.0,0.0
227.76156239024738,2.174070425784324e+16,2.1742451662526816e+16,1747404683578.1162,0.0,0.0,0.0,0.0,0.0
250.63771862927214,2.189342853259143e+16,2.189518821245699e+16,1759679865566.3884,0.0,0.0,0.0,0.0,0.0
275.8014904921994,2.2011928999749744e+16,2.201369820406584e+16,1769204316093.441,0.0,0.0,0.0,0.0,0.0
303.4816395414193,2.210124339693696e+16,2.210301977987921e+16,1776382942282.3967,0.0,0.0,0.0,0.0,0.0
333.92980349556126,2.216650556477119e+16,2.21682871931467e+16,1781628375513.2153,0.0,0.0,0.0,0.0,0.0
367.4227838451174,2.2212643753174576e+16,2.2214429089897436e+16,1785336722854.901,0.0,0.0,0.0,0.0,0.0
404.26506222962917,2.224413667130051e+16,2.224592453926013e+16,1787867959629.3748,0.0,0.0,0.0,0.0,0.0
444.7915684525921,2.2264847139007184e+16,2.2266636671566384e+16,1789532559183.4934,0.0,0.0,0.0,0.0,0.0
489.3707252978514,2.227794026485666e+16,2.2279730849773096e+16,1790584916462.8293,0.0,0.0,0.0,0.0,0.0
538.4077978276366,2.2285880059952756e+16,2.2287671283028604e+16,1791223075849.7905,0.0,0.0,0.0,0.0,0.0
592.3485776104003,2.2285880059952756e+16,2.2287671283028604e+16,1791223075849.7905,0.0,0.0,0.0,0.0,0.0
651.6834353714404,2.2285880059952756e+16,2.2287671283028604e+16,1791223075849.7905,0.0,0.0,0.0,0.0,0.0
716.9517789085845,2.2285880059952756e+16,2.2287671283028604e+16,1791223075849.7905,0.0,0.0,0.0,0.0,0.0
788.7469567994431,2.2285880059952756e+16,2.2287671283028604e+16,1791223075849.7905,0.0,0.0,0.0,0.0,0.0
867.7216524793874,2.2285880059952756e+16,2.2287671283028604e+16,1791223075849.7905,0.0,0.0,0.0,0.0,0.0
954.5938177273263,2.2285880059952756e+16,2.2287671283028604e+16,1791223075849.7905,0.0,0.0,0.0,0.0,0.0
1050.153199500059,2.2285880059952756e+16,2.2287671283028604e+16,1791223075849.7905,0.0,0.0,0.0,0.0,0.0
1155.2685194500648,2.2285880059952756e+16,2.2287671283028604e+16,1791223075849.7905,0.0,0.0,0.0,0.0,0.0
1270.8953713950714,2.2285880059952756e+16,2.2287671283028604e+16,1791223075849.7905,0.0,0.0,0.0,0.0,0.0
1398.0849085345785,2.2285880059952756e+16,2.2287671283028604e+16,1791223075849.7905,0.0,0.0,0.0,0.0,0.0
1537.9933993880366,2.2285880059952756e+16,2.2287671283028604e+16,1791223075849.7905,0.0,0.0,0.0,0.0,0.0
1691.8927393268402,2.2285880059952756e+16,2.2287671283028604e+16,1791223075849.7905,0.0,0.0,0.0,0.0,0.0
1861.1820132595244,2.2285880059952756e+16,2.2287671283028604e+16,1791223075849.7905,0.0,0.0,0.0,0.0,0.0
2047.400214585477,2.2285880059952756e+16,2.2287671283028604e+16,1791223075849.7905,0.0,0.0,0.0,0.0,0.0
2252.2402360440246,2.2285880059952756e+16,2.2287671283028604e+16,1791223075849.7905,0.0,0.0,0.0,0.0,0.0
2477.564259648427,2.2285880059952756e+16,2.2287671283028604e+16,1791223075849.7905,0.0,0.0,0.0,0.0,0.0
2725.42068561327,2.2285880059952756e+16,2.2287671283028604e+16,1791223075849.7905,0.0,0.0,0.0,0.0,0.0
2998.062754174597,2.2285880059952756e+16,2.2287671283028604e+16,1791223075849.7905,0.0,0.0,0.0,0.0,0.0
3297.9690295920573,2.2285880059952756e+16,2.2287671283028604e+16,1791223075849.7905,0.0,0.0,0.0,0.0,0.0
3627.8659325512635,2.2285880059952756e+16,2.2287671283028604e+16,1791223075849.7905,0.0,0.0,0.0,0.0,0.0
3990.75252580639,2.2285880059952756e+16,2.2287671283028604e+16,1791223075849.7905,0.0,0.0,0.0,0.0,0.0
4389.927778387029,2.2285880059952756e+16,2.2287671283028604e+16,1791223075849.7905,0.0,0.0,0.0,0.0,0.0
4829.020556225732,2.2285880059952756e+16,2.2287671283028604e+16,1791223075849.7905,0.0,0.0,0.0,0.0,0.0
5312.022611848306,2.2285880059952756e+16,2.2287671283028604e+16,1791223075849.7905,0.0,0.0,0.0,0.0,0.0
5843.324873033137,2.2285880059952756e+16,2.2287671283028604e+16,1791223075849.7905,0.0,0.0,0.0,0.0,0.0
6427.757360336452,2.2285880059952756e+16,2.2287671283028604e+16,1791223075849.7905,0.0,0.0,0.0,0.0,0.0
7070.6330963700975,2.2285880059952756e+16,2.2287671283028604e+16,1791223075849.7905,0.0,0.0,0.0,0.0,0.0
7777.796406007108,2.2285880059952756e+16,2.2287671283028604e+16,1791223075849.7905,0.0,0.0,0.0,0.0,0.0
8555.67604660782,2.2285880059952756e+16,2.2287671283028604e+16,1791223075849.7905,0.0,0.0,0.0,0.0,0.0
9411.343651268602,2.2285880059952756e+16,2.2287671283028604e+16,1791223075849.7905,0.0,0.0,0.0,0.0,0.0
10352.578016395462,2.2285880059952756e+16,2.2287671283028604e+16,1791223075849.7905,0.0,0.0,0.0,0.0,0.0
11387.93581803501,2.2285880059952756e+16,2.2287671283028604e+16,1791223075849.7905,0.0,0.0,0.0,0.0,0.0
12526.829399838512,2.2285880059952756e+16,2.2287671283028604e+16,1791223075849.7905,0.0,0.0,0.0,0.0,0.0
13779.612339822364,2.2285880059952756e+16,2.2287671283028604e+16,1791223075849.7905,0.0,0.0,0.0,0.0,0.0
15157.673573804603,2.2285880059952756e+16,2.2287671283028604e+16,1791223075849.7905,0.0,0.0,0.0,0.0,0.0
16673.540931185064,2.2285880059952756e+16,2.2287671283028604e+16,1791223075849.7905,0.0,0.0,0.0,0.0,0.0
18340.99502430357,2.2285880059952756e+16,2.2287671283028604e+16,1791223075849.7905,0.0,0.0,0.0,0.0,0.0
20175.19452673393,2.2285880059952756e+16,2.2287671283028604e+16,1791223075849.7905,0.0,0.0,0.0,0.0,0.0
22192.813979407325,2.2285880059952756e+16,2.2287671283028604e+16,1791223075849.7905,0.0,0.0,0.0,0.0,0.0
24412.19537734806,2.2285880059952756e+16,2.2287671283028604e+16,1791223075849.7905,0.0,0.0,0.0,0.0,0.0
26853.51491508287,2.2285880059952756e+16,2.2287671283028604e+16,1791223075849.7905,0.0,0.0,0.0,0.0,0.0
29538.966406591157,2.2285880059952756e+16,2.2287671283028604e+16,1791223075849.7905,0.0,0.0,0.0,0.0,0.0
32492.963047250276,2.2285880059952756e+16,2.2287671283028604e+16,1791223075849.7905,0.0,0.0,0.0,0.0,0.0
35742.359351975305,2.2285880059952756e+16,2.2287671283028604e+16,1791223075849.7905,0.0,0.0,0.0,0.0,0.0
39316.695287172835,2.2285880059952756e+16,2.2287671283028604e+16,1791223075849.7905,0.0,0.0,0.0,0.0,0.0
43248.464815890125,2.2285880059952756e+16,2.2287671283028604e+16,1791223075849.7905,0.0,0.0,0.0,0.0,0.0
47573.41129747914,2.2285880059952756e+16,2.2287671283028604e+16,1791223075849.7905,0.0,0.0,0.0,0.0,0.0
52330.85242722706,2.2285880059952756e+16,2.2287671283028604e+16,1791223075849.7905,0.0,0.0,0.0,0.0,0.0
57564.03766994977,2.2285880059952756e+16,2.2287671283028604e+16,1791223075849.7905,0.0,0.0,0.0,0.0,0.0
63320.54143694475,2.2285880059952756e+16,2.2287671283028604e+16,1791223075849.7905,0.0,0.0,0.0,0.0,0.0
69652.69558063924,2.2285880059952756e+16,2.2287671283028604e+16,1791223075849.7905,0.0,0.0,0.0,0.0,0.0
76618.06513870317,2.2285880059952756e+16,2.2287671283028604e+16,1791223075849.7905,0.0,0.0,0.0,0.0,0.0
84279.97165257348,2.2285880059952756e+16,2.2287671283028604e+16,1791223075849.7905,0.0,0.0,0.0,0.0,0.0
92708.06881783083,2.2285880059952756e+16,2.2287671283028604e+16,1791223075849.7905,0.0,0.0,0.0,0.0,0.0
101978.97569961392,2.2285880059952756e+16,2.2287671283028604e+16,1791223075849.7905,0.0,0.0,0.0,0.0,0.0
112176.97326957532,2.2285880059952756e+16,2.2287671283028604e+16,1791223075849.7905,0.0,0.0,0.0,0.0,0.0
123394.77059653286,2.2285880059952756e+16,2.2287671283028604e+16,1791223075849.7905,0.0,0.0,0.0,0.0,0.0
135734.34765618618,2.2285880059952756e+16,2.2287671283028604e+16,1791223075849.7905,0.0,0.0,0.0,0.0,0.0
149307.8824218048,2.2285880059952756e+16,2.2287671283028604e+16,1791223075849.7905,0.0,0.0,0.0,0.0,0.0
164238.77066398528,2.2285880059952756e+16,2.2287671283028604e+16,1791223075849.7905,0.0,0.0,0.0,0.0,0.0
180662.74773038382,2.2285880059952756e+16,2.2287671283028604e+16,1791223075849.7905,0.0,0.0,0.0,0.0,0.0
198729.12250342223,2.2285880059952756e+16,2.2287671283028604e+16,1791223075849.7905,0.0,0.0,0.0,0.0,0.0
218602.13475376446,2.2285880059952756e+16,2.2287671283028604e+16,1791223075849.7905,0.0,0.0,0.0,0.0,0.0
240462.44822914092,2.2285880059952756e+16,2.2287671283028604e+16,1791223075849.7905,0.0,0.0,0.0,0.0,0.0
264508.79305205506,2.2285880059952756e+16,2.2287671283028604e+16,1791223075849.7905,0.0,0.0,0.0,0.0,0.0
290959.7723572606,2.2285880059952756e+16,2.2287671283028604e+16,1791223075849.7905,0.0,0.0,0.0,0.0,0.0
320055.84959298663,2.2285880059952756e+16,2.2287671283028604e+16,1791223075849.7905,0.0,0.0,0.0,0.0,0.0
352061.53455228533,2.2285880059952756e+16,2.2287671283028604e+16,1791223075849.7905,0.0,0.0,0.0,0.0,0.0
387267.7880075139,2.2285880059952756e+16,2.2287671283028604e+16,1791223075849.7905,0.0,0.0,0.0,0.0,0.0
425994.6668082653,2.2285880059952756e+16,2.2287671283028604e+16,1791223075849.7905,0.0,0.0,0.0,0.0,0.0
468594.23348909186,2.2285880059952756e+16,2.2287671283028604e+16,1791223075849.7905,0.0,0.0,0.0,0.0,0.0
515453.7568380011,2.2285880059952756e+16,2.2287671283028604e+16,1791223075849.7905,0.0,0.0,0.0,0.0,0.0
566999.2325218013,2.2285880059952756e+16,2.2287671283028604e+16,1791223075849.7905,0.0,0.0,0.0,0.0,0.0
623699.2557739815,2.2285880059952756e+16,2.2287671283028604e+16,1791223075849.7905,0.0,0.0,0.0,0.0,0.0
686069.2813513797,2.2285880059952756e+16,2.2287671283028604e+16,1791223075849.7905,0.0,0.0,0.0,0.0,0.0
754676.3094865177,2.2285880059952756e+16,2.2287671283028604e+16,1791223075849.7905,0.0,0.0,0.0,0.0,0.0
830144.0404351695,2.2285880059952756e+16,2.2287671283028604e+16,1791223075849.7905,0.0,0.0,0.0,0.0,0.0
913158.5444786865,2.2285880059952756e+16,2.2287671283028604e+16,1791223075849.7905,0.0,0.0,0.0,0.0,0.0
1004474.4989265553,2.2285880059952756e+16,2.2287671283028604e+16,1791223075849.7905,0.0,0.0,0.0,0.0,0.0
1104922.0488192108,2.2285880059952756e+16,2.2287671283028604e+16,1791223075849.7905,0.0,0.0,0.0,0.0,0.0
1215414.3537011321,2.2285880059952756e+16,2.2287671283028604e+16,1791223075849.7905,0.0,0.0,0.0,0.0,0.0
1336955.8890712454,2.2285880059952756e+16,2.2287671283028604e+16,1791223075849.7905,0.0,0.0,0.0,0.0,0.0
1470651.57797837,2.2285880059952756e+16,2.2287671283028604e+16,1791223075849.7905,0.0,0.0,0.0,0.0,0.0
1617716.835776207,2.2285880059952756e+16,2.2287671283028604e+16,1791223075849.7905,0.0,0.0,0.0,0.0,0.0
1779488.619353828,2.2285880059952756e+16,2.2287671283028604e+16,1791223075849.7905,0.0,0.0,0.0,0.0,0.0
1957437.581289211,2.2285880059952756e+16,2.2287671283028604e+16,1791223075849.7905,0.0,0.0,0.0,0.0,0.0
2153181.4394181324,2.2285880059952756e+16,2.2287671283028604e+16,1791223075849.7905,0.0,0.0,0.0,0.0,0.0
2368499.6833599457,2.2285880059952756e+16,2.2287671283028604e+16,1791223075849.7905,0.0,0.0,0.0,0.0,0.0
2605349.7516959403,2.2285880059952756e+16,2.2287671283028604e+16,1791223075849.7905,0.0,0.0,0.0,0.0,0.0
2865884.8268655348,2.2285880059952756e+16,2.2287671283028604e+16,1791223075849.7905,0.0,0.0,0.0,0.0,0.0
3152473.4095520885,2.2285880059952756e+16,2.2287671283028604e+16,1791223075849.7905,0.0,0.0,0.0,0.0,0.0
3467720.8505072976,2.2285880059952756e+16,2.2287671283028604e+16,1791223075849.7905,0.0,0.0,0.0,0.0,0.0
3814493.0355580277,2.2285880059952756e+16,2.2287671283028604e+16,1791223075849.7905,0.0,0.0,0.0,0.0,0.0
4195942.439113831,2.2285880059952756e+16,2.2287671283028604e+16,1791223075849.7905,0.0,0.0,0.0,0.0,0.0
4615536.783025214,2.2285880059952756e+16,2.2287671283028604e+16,1791223075849.7905,0.0,0.0,0.0,0.0,0.0
5077090.561327737,2.2285880059952756e+16,2.2287671283028604e+16,1791223075849.7905,0.0,0.0,0.0,0.0,0.0
5584799.717460511,2.2285880059952756e+16,2.2287671283028604e+16,1791223075849.7905,0.0,0.0,0.0,0.0,0.0
6143279.789206563,2.2285880059952756e+16,2.2287671283028604e+16,1791223075849.7905,0.0,0.0,0.0,0.0,0.0
6757607.868127219,2.2285880059952756e+16,2.2287671283028604e+16,1791223075849.7905,0.0,0.0,0.0,0.0,0.0
7433368.754939942,2.2285880059952756e+16,2.2287671283028604e+16,1791223075849.7905,0.0,0.0,0.0,0.0,0.0
8176705.730433936,2.2285880059952756e+16,2.2287671283028604e+16,1791223075849.7905,0.0,0.0,0.0,0.0,0.0
8994376.40347733,2.2285880059952756e+16,2.2287671283028604e+16,1791223075849.7905,0.0,0.0,0.0,0.0,0.0
9893814.143825063,2.2285880059952756e+16,2.2287671283028604e+16,1791223075849.7905,0.0,0.0,0.0,0.0,0.0
10883195.658207571,2.2285880059952756e+16,2.2287671283028604e+16,1791223075849.7905,0.0,0.0,0.0,0.0,0.0
11971515.32402833,2.2285880059952756e+16,2.2287671283028604e+16,1791223075849.7905,0.0,0.0,0.0,0.0,0.0
13168666.956431163,2.2285880059952756e+16,2.2287671283028604e+16,1791223075849.7905,0.0,0.0,0.0,0.0,0.0
14485533.75207428,2.2285880059952756e+16,2.2287671283028604e+16,1791223075849.7905,0.0,0.0,0.0,0.0,0.0
15934087.22728171,2.2285880059952756e+16,2.2287671283028604e+16,1791223075849.7905,0.0,0.0,0.0,0.0,0.0
17527496.050009884,2.2285880059952756e+16,2.2287671283028604e+16,1791223075849.7905,0.0,0.0,0.0,0.0,0.0
19280245.755010873,2.2285880059952756e+16,2.2287671283028604e+16,1791223075849.7905,0.0,0.0,0.0,0.0,0.0
21208270.430511963,2.2285880059952756e+16,2.2287671283028604e+16,1791223075849.7905,0.0,0.0,0.0,0.0,0.0
23329097.573563162,2.2285880059952756e+16,2.2287671283028604e+16,1791223075849.7905,0.0,0.0,0.0,0.0,0.0
25662007.43091948,2.2285880059952756e+16,2.2287671283028604e+16,1791223075849.7905,0.0,0.0,0.0,0.0,0.0
28228208.27401143,2.2285880059952756e+16,2.2287671283028604e+16,1791223075849.7905,0.0,0.0,0.0,0.0,0.0
31051029.201412573,2.2285880059952756e+16,2.2287671283028604e+16,1791223075849.7905,0.0,0.0,0.0,0.0,0.0
31536000.0,2.2285880059952756e+16,2.2287671283028604e+16,1791223075849.7905,0.0,0.0,0.0,0.0,0.0
