t(s),Total solute volume 1,Total retention volume 1,Total 1 volume 1,Total 2 volume 1,Total 3 volume 1,Total 4 volume 1,Total 5 volume 1,Total 6 volume 1
0.1,964857416365797.9,1154672529873703.2,88762465329957.31,101052648177948.16,0.0,0.0,0.0,0.0
0.202,1453529412030912.2,1739496293330726.2,133718052204270.52,152232853464271.94,22144105.60548747,44195906.303514056,678652824.5503864,15230638435.527876
0.30604000000000003,1825743888958302.2,2184960588440106.8,167960080267579.34,191216084013183.25,56184569.90154297,112134965.59817255,1721903119.5292196,38644978386.68299
0.41216080000000005,2140585877291279.0,2561772489605544.5,196924101986946.72,224190507505872.38,99799421.09146522,199182901.64548218,3058584892.625999,68645254233.34173
0.5204040160000001,2420188576643839.5,2896418687877401.5,222646270425302.28,253474205848517.66,151958229.74018177,303283148.8196981,4657117639.617916,104522600722.84773
0.6308120963200001,2675580060336545.0,3202096396065983.5,246141117849733.16,280222184973449.38,212108419.6682033,423332857.44273275,6500566153.034389,145896898829.51303
0.7434283382464002,2913170088635116.0,3486476130197866.5,267998312864641.7,305105759885174.56,279934209.97654897,558701781.8056079,8579252481.837567,192550924460.3247
0.8582969050113283,3137064875880179.0,3754471786246243.5,288595608393300.8,328554987742911.3,355257578.3927527,709034619.452434,10887720659.108839,244362216989.96442
0.9754628431115548,3350078252143518.0,4009450691068987.5,308191863921988.06,350864570105061.6,437989468.45172113,874153628.839154,13423241309.406937,301269514014.1678
1.094972099973786,3554236360316310.5,4253837568388336.5,326973475321961.9,372246711494212.56,528102770.21534455,1054004703.3567173,16184983569.54794,363254164808.7064
1.2168715419732616,3751054728603249.0,4489446107674712.0,345079864250656.2,392860138099093.5,625616086.2560369,1248624970.944953,19173517553.92133,430328963102.0776
1.3412089728127268,3941701686578906.5,4717674521354285.0,362618511680834.06,412827212868738.25,730583375.6543969,1458122125.242659,22390496967.56002,502531023336.7599
1.4680331522689813,4127100305486511.0,4939627534699135.0,379674335941456.6,432244612050942.2,843087040.9645169,1682660628.326633,25838447238.176464,579917025323.0635
1.597393815314361,4307994923772707.5,5156195995393746.0,396315812762353.8,451190292627489.25,963233149.1299738,1922452172.460081,29520619048.7649,662559926810.7134
1.729341691620648,4484996202777765.0,5368110790521756.0,412599120191482.2,469728211142859.2,1091148036.8470216,2177748904.966465,33440884300.22078,750546628398.6937
1.863928525453061,4658612605244017.0,5575980516023394.0,428571034473610.5,487911620550609.3,1226975848.755047,2448838514.870782,37603660662.88137,843976280118.5687
2.001207095962122,4829272977219791.0,5780318499799170.0,444271007482106.6,505785435289479.3,1370876724.5953813,2736040614.77329,42013856017.38395,942959034428.8018
2.1412312378813647,4997343120759166.0,5981562633761745.0,459732691331456.44,523387966996038.6,1523025450.4783247,3039704049.0057364,46676827119.31811,1047615118457.894
2.284055862638992,5163138199870677.0,6180090219662564.0,474985079667755.8,540752223819966.94,1683610450.1730146,3360204880.416444,51598348684.75165,1158074140140.4624
2.4297369798917723,5326932190354101.0,6376229277438298.0,490053377010436.25,557906900136133.2,1852833030.9292307,3697944885.158609,56784590276.541565,1274474569438.9094
2.578331719489608,5488965189692750.0,6570267292764625.0,504959671228898.4,574877142133354.8,2030906823.5798566,4053350435.2305174,62242099144.87344,1396963353205.2312
2.7298983538794,5649449149845323.0,6762458077357362.0,519723460933110.2,591685148228286.0,2218057373.609115,4426871682.318117,67977787694.53048,1525695633887.679
2.884496320956988,5808572428993297.0,6953027215970262.0,534362074213542.75,608350645784705.2,2414521851.4975066,4818981979.69421,73998924607.7051,1660834550284.2678
3.0421862473761276,5966503446018305.0,7142176439672864.0,548891004836356.6,624891273858795.2,2620548858.798976,5230177495.183219,80313128900.76651,1802551104147.4258
3.2030299723236504,6123393644371161.0,7330087172713818.0,563324184905777.9,641322893614764.4,2836398312.2154355,5660976979.795699,86928366371.45697,1951024080440.5198
3.3670905717701234,6279379918072392.0,7516923435748193.0,577674208045049.0,657659842407747.2,3062341392.1472077,6111921665.046209,93852948022.1187,2106440011945.2466
3.5344323832055258,6434586614257230.0,7702834242342522.0,591952513621406.5,673915143516870.4,3298660545.29918,6583575268.157375,101095530139.59499,2268993181052.1006
3.7051210308696363,6589127199027175.0,7887955592581783.0,606169539996782.0,690100680615261.6,3545649533.2367544,7076524088.972256,108665115783.37955,2438885653158.106
3.879223451487029,6743105653145732.0,8072412143402486.0,620334852925441.9,706227343945819.5,3803613520.5342984,7591377185.886978,116571057487.18483,2616327337298.9106
4.0568079205167695,6896617649139954.0,8256318617352151.0,634457253841919.9,722305153602864.5,4072869197.495642,8128766620.783225,124823061020.05257,2801536070561.636
4.237944078927105,7049751550146943.0,8439780998048170.0,648544871750338.8,738343364144577.9,4353744933.458745,8689347765.00212,133431190084.80174,2994737723535.5767
4.422702960505647,7202589262347791.0,8622897550440497.0,662605241644433.0,754350553871187.9,4646580957.503365,9273799660.009905,142405871856.3098,3196166324612.3423
4.61115701971576,7355206966332206.0,8805759696204716.0,676645371789725.6,770334701423140.6,4951729564.015239,9882825427.673315,151757903281.5869,3406064201383.9277
4.803380160110075,7507675746800115.0,8988452768632265.0,690671801657402.9,786303251749442.1,5269555341.834308,10517152745.905518,161498464700.44193,3624683252533.588
4.9994477633122765,7660062142553859.0,9171056666450366.0,704690652504232.0,802263173639219.8,5600435420.750653,11177534267.790712,171639101138.192,3852280682210.1377
5.199436718578522,7812428616266363.0,9353646422996994.0,718707670614472.6,818221009028998.4,5944759745.511746,11864748277.20368,182191769907.25473,4089125809244.452
5.403425452950093,7964833973502679.0,9536292703374378.0,732728265830921.6,834182916816491.5,6302931361.042337,12579599185.909746,193168823335.08337,4335495870389.073
5.611493962009095,8117333726037598.0,9719062240584510.0,746757544982748.8,850154710930069.8,6675366719.465773,13322918164.28914,204583024647.15775,4591677324564.289
5.823723841249277,8269980412523089.0,9902018219515056.0,760800341385440.6,866141893913299.4,7062496003.734322,14095563787.253735,216447557885.5591,4857966075531.625
6.040198318074262,8422823881769616.0,1.0085220616195524e+16,774861240901362.0,882149686593911.2,7464763468.134638,14898422713.844303,228776038344.68106,5134667706112.78
6.261002284435747,8575911543828441.0,1.0268726498532602e+16,788944605038211.2,898183054380469.1,7882627795.305758,15732410399.784126,241582523513.01218,5422097723766.659
6.486222330124463,8729288593235031.0,1.0452590293740954e+16,803054591486367.4,914246730643382.8,8316562469.514274,16598471842.479532,254881524513.16385,5720581817349.245
6.715946776726952,8882998208094256.0,1.0636864026875324e+16,817195172433826.4,930345237565729.8,8767056166.02331,17497582358.14115,268688018035.14005,6030456124943.712
6.950265712261491,9037081728127756.0,1.082159753419729e+16,831370150945744.6,946482904790753.5,9234613156.470907,18430748390.85815,283017458760.2569,6352067512702.798
7.18927102650672,9191578814340174.0,1.1006838654556438e+16,845583175652992.0,962663886144208.6,9719753730.241827,19399008353.592026,297885792275.2317,6685773864692.379
7.433056447036854,9346527592573954.0,1.1192633401502252e+16,859837753958554.1,978892174669339.1,10223014631.876482,20403433501.178925,313309468477.7602,7031944383766.37
7.681717575977592,9501964782900084.0,1.1379026118456714e+16,874137263940868.9,995171616178370.4,10744949514.613155,21445128835.531387,329305455476.566,7390959903539.119
7.935351927497144,9657925816519898.0,1.1566059618953188e+16,888484965108270.9,1011505921496037.2,11286129410.207144,22525234043.326878,345891253990.2899,7763213211554.053
8.194058966047088,9814444941625570.0,1.1753775313673618e+16,902884008137662.5,1027898677546672.0,11847143215.211903,23644924466.551037,363084912250.8984,8149109383775.625
8.45794014536803,9971555319472474.0,1.194221332578371e+16,917337443712746.6,1044353357416205.5,12428598193.944548,24805412106.342316,380905041418.45123,8549066130558.312
8.72709894827539,1.0129289111753268e+16,1.2131412595871344e+16,931848230562024.1,1060873329503100.5,13031120498.394363,26007946660.650517,399370831515.118,8963514154269.322
9.0016409272409,1.028767756022249e+16,1.2321410977623046e+16,946419242783888.4,1077461865857724.8,13655355705.36252,27253816596.288204,418502067887.3088,9392897518764.8
9.281673745785717,1.044675105940193e+16,1.2512245325232944e+16,961053276535224.2,1094122149797010.8,14301969371.152903,28544350256.010223,438319148205.7024,9837674030937.934
9.567307220701432,1.0606539223093842e+16,1.2703951573413936e+16,975753056150272.6,1110857282870601.8,14971647604.15932,29880917001.312675,458843100013.76385,10298315634577.756
9.85865336511546,1.076707094534069e+16,1.2896564810776362e+16,990521239748671.8,1127670291245346.0,15665097655.72219,31264928391.695477,480095598836.18384,10775308816794.66
10.155826432417769,1.092837445639398e+16,1.3090119347247534e+16,1005360424384345.0,1144564131567143.5,16383048529.650993,32697839401.178593,502098986859.3921,11269155027285.578
10.458942961066125,1.1090477374189974e+16,1.3284648776127244e+16,1020273150780994.5,1161541696352084.2,17126251610.833721,34181149672.913586,524876292197.03546,11780371110727.754
10.768121820287448,1.1253406751770152e+16,1.3480186031305292e+16,1035261907694606.1,1178605818953045.5,17895481313.375736,35716404812.77375,548451248754.0058,12309489752606.766
11.083484256693197,1.1417189121038312e+16,1.367676344010856e+16,1050329135938869.1,1195759278142419.0,18691535748.733875,37305197722.85092,572848316703.2821,12857059938798.191
11.405153941827061,1.1581850533199234e+16,1.3874412772192296e+16,1065477232105382.4,1213004802347453.2,19515237414.332623,38949169975.833374,598092703590.4968,13423647429237.783
11.733257020663602,1.1747416596188692e+16,1.4073165284845328e+16,1080708552007001.5,1230345073570386.8,20367433903.169262,40650013231.27312,624210386081.778,14009835246029.562
12.067922161076874,1.1913912509369458e+16,1.4273051765039524e+16,1096025413869754.5,1247782731022279.8,21248998634.937397,42409470694.80239,651228132371.105,14616224176355.543
12.409280604298411,1.2081363095739958e+16,1.4474102568518244e+16,1111430101295877.2,1265320374496344.8,22160831609.21753,44229338621.39334,679173525263.948,15243433290564.355
12.75746621638438,1.224979283187649e+16,1.4676347656188476e+16,1126924866018328.2,1282960567503864.5,23103860181.304115,46111467863.79518,708074985954.6864,15892100475830.428
13.112615540712067,1.2419225875805754e+16,1.4879816628053798e+16,1142511930464993.2,1300705840193401.5,24079039861.258152,48057765467.32911,737961798515.8561,16562882985789.848
13.474867851526309,1.2589686092987376e+16,1.50845387549014e+16,1158193490148900.2,1318558692071998.8,25087355136.796505,50070196312.2569,768864135117.9305,17256458006571.71
13.844365208556836,1.276119708056489e+16,1.529054300793606e+16,1173971715899246.8,1336521594545118.0,26129820320.647095,52150784804.97954,800813081998.9396,17973523239659.3
14.221252512727972,1.2933782190031386e+16,1.5497858086533566e+16,1189848755946492.5,1354596993290413.0,27207480423.021603,54301616619.3696,833840666203.8998,18714797502028.008
14.605677562982532,1.3107464548438518e+16,1.5706512444270836e+16,1205826737873531.8,1372787310479099.5,28321412049.876064,56524840489.57063,867979883114.5962,19481021344022.535
14.997791114242183,1.3282267078268934e+16,1.5916534313374554e+16,1221907770443840.0,1391094946857170.5,29472724327.65286,58822670055.65157,903264724790.9602,20272957685448.83
15.397746936527026,1.3458212516077298e+16,1.612795172771664e+16,1238093945316361.5,1409522283697817.0,30662559855.2161,61197385763.53516,939730209145.8855,21091392470371.85
15.805701875257567,1.3635323429998472e+16,1.6340792544473306e+16,1254387338656199.5,1428071684635056.8,31892095683.715427,63651336820.668495,977412409975.991,21937135341123.613
16.221815912762718,1.3813622236209832e+16,1.6555084464554242e+16,1270790012649060.2,1446745497387916.0,33162544325.133713,66186943208.943214,1016348487871.5144,22811020332042.67
16.64625223101797,1.399313121442898e+16,1.6770855051897552e+16,1287304016926973.8,1465546055383538.0,34475154790.297295,68806697756.41873,1056576722029.1523,23713906583478.715
17.079177275638333,1.4173872522519194e+16,1.6988131751719544e+16,1303931389911935.2,1484475679286877.2,35831213657.14779,71513168269.44467,1098136542992.3821,24646679076613.242
17.5207608211511,1.435586821026969e+16,1.7206941907799116e+16,1320674160083613.8,1503536678443927.8,37232046170.09847,74308999726.82428,1141068566344.4702,25610249389662.094
17.97117603757412,1.4539140232411432e+16,1.7427312778870456e+16,1337534347176761.8,1522731352244939.8,38679017371.32062,77196916537.70665,1185414627380.071,26605556476040.855
18.430599558325603,1.4723710460924168e+16,1.7649271554190942e+16,1354513963313402.2,1542061991413347.5,40173533264.828415,80179724864.93932,1231217816782.0557,27633567465090.812
18.899211549492115,1.4909600696685854e+16,1.7872845368346526e+16,1371615014074495.8,1561530879225862.5,41717042014.2545,83260315015.66696,1278522517330.881,28695278485979.64
19.37719578048196,1.5096832680510462e+16,1.8098061315350572e+16,1388839499515419.2,1581140292668521.8,43311035175.23356,86441663900.99985,1327374441674.6511,29791715515405.57
19.864739696091597,1.5285428103618254e+16,1.8324946462088092e+16,1406189415129140.8,1600892503533217.2,44957048963.332825,89726837566.63382,1377820671188.6494,30923935249754.176
20.36203449001343,1.5475408617576132e+16,1.8553527861153376e+16,1423666752760706.0,1620789779458848.2,46656665558.49932,93118993796.35065,1429909695953.9675,32093026002370.53
20.869275179813698,1.5666795843746056e+16,1.8783832563125068e+16,1441273501476433.8,1640834384920829.0,48411514447.01039,96621384790.37099,1483691455885.6519,33300108626628.656
21.38666068340997,1.5859611382273086e+16,1.9015887628318664e+16,1459011648390805.8,1661028582172480.8,50223273801.94886,100237359920.6017,1539217383041.462,34546337465498.234
21.91439389707817,1.605387682064507e+16,1.924972013805434e+16,1476883179453868.8,1681374632141465.5,52093671903.24443,103970368564.84885,1596540445143.3252,35832901328325.34
22.452681775019734,1.6249613741850744e+16,1.94853572054743e+16,1494890080201795.8,1701874795284266.0,54024488598.352005,107823963022.14,1655715190344.1787,37161024495563.3
23.00173541052013,1.6446843732163576e+16,1.9722825985941692e+16,1513034336472940.8,1722531332401369.2,56017556804.66481,111801801511.34518,1716797793273.9922,38531967752208.08
23.561770118730532,1.6645588388574368e+16,1.99621536870501e+16,1531317935091584.2,1743346505415723.2,58074764054.78865,115907651255.34166,1779846102399.2698,39947029450711.78
24.133005521105144,1.6845869325894716e+16,2.0203367578271496e+16,1549742864521456.5,1764322578116719.8,60198054085.82799,120145391653.02533,1844919688731.5483,41407546604165.9
24.715665631527248,1.7047708183552174e+16,2.044649500026737e+16,1568311115490825.8,1785461816871834.5,62389428473.86898,124519017541.52872,1912079895920.9868,42914896010567.4
25.309978944157795,1.7251126632095018e+16,2.0691563373885588e+16,1587024681590944.5,1806766491307939.2,64650948314.868774,129032642551.05951,1981389891772.248,44470495408998.98
25.91617852304095,1.745614637942427e+16,2.0938600208865884e+16,1605885559849330.0,1828238874963958.2,66984735953.18956,133690502554.83812,2052914721220.5696,46075804668573.79
26.53450209350177,1.76627891767681e+16,2.1187633112271884e+16,1624895751279405.2,1849881245916628.8,69392976759.04974,138496959216.663,2126721360807.0159,47732327011018.35
27.165192135371807,1.7871076824413096e+16,2.1438689796668656e+16,1644057261407742.8,1871695887380724.2,71877920956.18683,143456503638.69998,2202878774692.5723,49441610267782.75
27.808495978079243,1.808103117720514e+16,2.169179808806088e+16,1663372100780110.0,1893685088285178.2,74441885501.06342,148573760112.13943,2281457972251.8794,51205248172589.836
28.464665897640828,1.8292674149830332e+16,2.194698593360753e+16,1682842285447325.8,1915851143826196.8,77087256014.96886,153853489973.4385,2362532067288.1323,53024881690356.47
29.133959215593645,1.850602772188716e+16,2.220428140912414e+16,1702469837431816.8,1938196355998456.0,79816488770.40717,159300595568.90015,2446176338911.5317,54902200383433.445
29.816638399905518,1.872111394275643e+16,2.2463712726384668e+16,1722256785175693.0,1960723034105173.8,82632112733.1782,164920124330.42288,2532468294124.665,56838943816136.98
30.51297116790363,1.8937954936276852e+16,2.2725308240230816e+16,1742205163970826.8,1983433495247762.0,85536731661.59473,170717272965.2829,2621487732158.865,58836902998556.01
31.223230591261704,1.915657290522993e+16,2.2989096455496292e+16,1762317016371476.2,2006330064795573.8,88533026264.30075,176697391762.88,2713316810606.397,60897921870640.06
31.947695203086937,1.937699013563728e+16,2.3255106033749252e+16,1782594392589608.0,2029415076835960.8,91623756418.1766,182865989021.40955,2808040113394.1567,63023898827589.38
32.686649107148675,1.959922900087049e+16,2.352336579985545e+16,1803039350872979.8,2052690874604718.5,94811763447.8385,189228735597.4744,2905744720644.835,65216788287576.37
33.44038208929165,1.9823311965571172e+16,2.3793904748358972e+16,1823653957865784.8,2076159810896640.2,98099972468.25659,195791469581.67706,3006520280472.5063,67478602302846.49
34.20918973107749,2.0049261589376244e+16,2.406675204967717e+16,1844440288951321.8,2099824248455667.5,101491394792.03104,202560201103.2583,3110459082759.5493,69811412215248.17
34.993373525699035,2.027710053043927e+16,2.4341937056098812e+16,1865400428575992.0,2123686560343714.8,104989130402.8672,209541117266.8683,3217656134962.264,72217350357252.42
35.793240996213015,2.0506851548735892e+16,2.461948930757333e+16,1886536470553357.0,2147749130286846.8,108596370496.79475,216740587224.54855,3328209239992.43,74698611799515.77
36.60910581613728,2.07385375091371e+16,2.489943853727071e+16,1907850518346838.8,2172014352997111.5,112316400092.67151,224165167385.99725,3442219076222.062,77257456146042.14
37.44128793246003,2.0972181384226824e+16,2.518181467688873e+16,1929344685329010.0,2196484634467728.8,116152600713.49025,231821606770.1594,3559789279657.836,79896209377984.22
38.29011369110923,2.1207806256839736e+16,2.5466647861674576e+16,1951021095014949.5,2221162392238761.2,120108453139.98917,239716852501.11804,3681026528331.042,82617265747107.84
39.15591596493141,2.1445435322282616e+16,2.575396843512365e+16,1972881881266656.2,2246050055629858.2,124187540238.01614,247858055451.20386,3806040628947.7646,85423089719912.88
40.03903428423004,2.1685091890201364e+16,2.604380695330708e+16,1994929188464846.2,2271150065935760.5,128393549861.05727,256252576034.12012,3934944605842.1436,88316217973374.55
40.93981496991464,2.1926799386045452e+16,2.633619418877213e+16,2017165171643576.2,2296464876579650.5,132730277829.26022,264907990150.7474,4067854792273.6753,91299261443213.23
41.85861126931294,2.2170581352072564e+16,2.663116113394963e+16,2039591996582757.2,2321996953218419.0,137201630986.19762,273832095290.11557,4204890924106.6978,94374907425544.92
42.7957834946992,2.2416461447829936e+16,2.6928739003991036e+16,2062211839852370.2,2347748773793029.0,141811630334.5162,283032916787.82117,4346176235906.9507,97545921732689.72
43.751699164593184,2.2664463450035908e+16,2.7228959238945476e+16,2085026888801612.0,2373722828516147.0,146564414251.4699,292518714243.8922,4491837559485.99,100815150903824.45
44.72673314788505,2.291461125177757e+16,2.7531853505176536e+16,2108039341485054.2,2399921619788060.5,151464241785.1951,302297988101.808,4642005424919.686,104185524471059.78
