t(s),Total solute volume 1,Total retention volume 1,Total 1 volume 1,Total 2 volume 1,Total 3 volume 1,Total 4 volume 1,Total 5 volume 1,Total 6 volume 1
0.1,1323473711248431.8,2617890617675497.5,487117646595586.6,807299259831480.0,0.0,0.0,0.0,-8.892789209081686e-83
0.202,1962098054672341.0,3969667441023126.0,722169705125716.8,1196850824067219.5,18437451153.798367,65561969448.65968,2374850540452.332,86090007196793.08
0.30604000000000003,2430200151161289.5,5030159834702600.0,894459341445397.6,1482386219975940.0,46128567531.387436,164031149144.96814,5945251384787.686,216958711018506.5
0.41216080000000005,2810550481590631.0,5951531389216090.0,1034451066046744.2,1714394322654794.0,80824346162.24187,287409340425.18726,10419689666384.857,381347595570944.6
0.5204040160000001,3134968952635854.0,6791215500370731.0,1153856513121174.5,1912284814343246.8,121413911030.55905,431746202732.8714,15654717969643.893,573897342187045.0
0.6308120963200001,3419581551322972.5,7577765621590336.0,1258611012836907.0,2085894311062003.5,167216031655.94675,594619280416.8547,21562431537767.996,791354479518607.4
0.7434283382464002,3673908131892446.5,8327735763832489.0,1352218442314153.0,2241029783935521.2,217765109065.14453,774372919615.5037,28082769069065.156,1031504498592625.1
0.8582969050113283,3904139179748233.0,9051715971502416.0,1436957271307240.0,2381467337843016.0,272721879950.37256,969800721643.9996,35171974686620.668,1292737685315707.8
0.9754628431115548,4114578673900632.5,9756965153465962.0,1514411622110092.5,2509832336475385.5,331828731533.87866,1179986639416.3015,42796827955604.63,1573833877653293.8
1.094972099973786,4308369503032247.5,1.0448722034657026e+16,1585738266165415.0,2628041895513375.5,394884547379.0153,1404215527974.02,50931396996269.87,1873841872874362.0
1.2168715419732616,4487894494111048.0,1.113092281625321e+16,1651814226638726.5,2737549504193652.5,461729323502.90906,1641918438928.4548,59555053189074.55,2192005890358270.2
1.3412089728127268,4655014561708079.0,1.1806623168815202e+16,1713324431645319.5,2839490292890037.5,532234160756.15247,1892637033198.3745,68651179895200.97,2527717831482606.0
1.4680331522689813,4811218281700184.0,1.2478260657668196e+16,1770816766340094.8,2934772270869569.0,606294435856.504,2155999297169.5728,78206291426193.7,2880484753599125.0
1.597393815314361,4957720168568796.0,1.3147825465079736e+16,1824738244855296.2,3024136273996272.0,683824960417.0743,2431702328222.865,88209408555130.0,3249905841815597.0
1.729341691620648,5095527691865038.0,1.3816975657211122e+16,1875459676377270.0,3108196843786406.5,764756440875.4197,2719499746294.7363,98651601884344.52,3635655587110903.0
1.863928525453061,5225488420706384.0,1.4487117472113424e+16,1923293017147467.0,3187470984855695.5,849032822037.2538,3019192247585.804,109525649216426.98,4037471175117833.0
2.001207095962122,5348324079032164.0,1.515946274729014e+16,1968503904837993.2,3262398938122333.0,936609249861.8474,3330620360299.3667,120825772813095.78,4455142822874395.5
2.1412312378813647,5464655713527485.0,1.5835070947117134e+16,2011320921856387.8,3333359532868874.5,1027450479923.0723,3653658785205.744,132547434146438.94,4888506235452815.0
2.284055862638992,5575022666768283.0,1.6514880540483934e+16,2051942578600324.0,3400681760080316.5,1121529614077.5645,3988211903312.126,144687170986451.6,5337436622531181.0
2.4297369798917723,5679897132264581.0,1.7199732843353686e+16,2090542670586086.8,3464653650805395.5,1218827083719.3757,4334210160394.446,157242466294658.6,5801843886158840.0
2.578331719489608,5779695494222309.0,1.7890390421528808e+16,2127274452160666.5,3525529193243629.5,1319329821591.0903,4691607122035.946,170211641437556.1,6281668703521020.0
2.7298983538794,5874787285015982.0,1.858755149544291e+16,2162273933388660.8,3583533796671160.0,1423030580049.9375,5060377049459.597,183593768288767.53,6776879304448842.0
2.884496320956988,5965502349009630.0,1.9291861359341856e+16,2195662516767815.2,3638868661265545.0,1529927364689.668,5440512885565.765,197388596208314.03,7287468795840297.0
3.0421862473761276,6052136636280858.0,2.0003921538637732e+16,2227549129666774.5,3691714312191785.0,1640022959973.868,5832024568162.627,211596490887836.9,7813452922082340.0
3.2030299723236504,6134956936027103.0,2.0724297211396348e+16,2258031966502322.0,3742233486909962.5,1753324529102.1687,6234937607169.342,226218382768666.1,8354868177052030.0
3.3670905717701234,6214204779591554.0,2.1453523281845412e+16,2287199925286875.5,3790573515963395.0,1869843274391.5212,6649291877011.391,241255723263430.66,8911770202588768.0
3.5344323832055258,6290099686094691.0,2.219210939583335e+16,2315133802215468.0,3836868302765755.0,1989594147461.23,7075140586119.059,256710447399753.0,9484232422624110.0
3.7051210308696363,6362841882421709.0,2.2940544117627388e+16,2341907292784123.0,3881239982753131.5,2112595600767.0107,7512549393464.235,272584941795638.38,1.0072344872878574e+16
3.879223451487029,6432614599050169.0,2.369929843594519e+16,2367587836792100.0,3923800323804914.5,2238869373743.7295,7961595648167.169,288882017097314.3,1.0676213194178788e+16
4.0568079205167695,6499586020706400.0,2.4468828729047668e+16,2392237336300312.0,3964651916115278.5,2368440308134.1123,8422367732890.001,305604884180206.0,1.1295957763704454e+16
4.237944078927105,6563910953924224.0,2.5249579290255748e+16,2415912769392966.0,4003889189379306.0,2501336188103.716,8894964495372.426,322757133545704.56,1.1931712943330072e+16
4.422702960505647,6625732260723937.0,2.6041984493737028e+16,2438666717857305.0,4041599287315921.5,2637587601544.753,9379494755316.854,340342717449838.94,1.2583626428033162e+16
4.61115701971576,6685182097761278.0,2.684647066398354e+16,2460547823264727.0,4077862823530396.0,2777227819605.9375,9876076876087.576,358365934381816.94,1.3251858680349622e+16
4.803380160110075,6742382992650709.0,2.7663457699747256e+16,2481601183122280.0,4112754538055611.5,2920292691991.866,10384838392489.16,376831415575692.0,1.3936582439258454e+16
4.9994477633122765,6797448783192804.0,2.8493360493364372e+16,2501868696564636.0,4146343870266800.0,3066820555982.4062,10905915687335.805,395744113290916.44,1.4637982293805888e+16
5.199436718578522,6850485440528359.0,2.933659017869582e+16,2521389367324113.0,4178695460993396.5,3216852157452.3486,11439453710696.582,415109290640034.6,1.5356254313341758e+16
5.403425452950093,6901591793505816.0,3.019355523482879e+16,2540199570341349.5,4209869594372391.0,3370430582440.288,11985605736657.107,434932512776457.44,1.6091605727513686e+16
5.611493962009095,6950860168561327.0,3.106466246784979e+16,2558333287279491.0,4239922588165688.0,3527601198036.306,12544533153221.863,455219639283682.25,1.6844254650208356e+16
5.823723841249277,6998376957006599.0,3.1950317889130364e+16,2575822315320133.5,4268907139797280.5,3688411601540.116,13116405281630.441,475976817630823.25,1.7614429842492322e+16
6.040198318074262,7044223119672805.0,3.285092750545063e+16,2592696452902522.5,4296872634178539.0,3852911576992.6973,13701399221897.139,497210477578808.94,1.8402370510319052e+16
6.261002284435747,7088474637271865.0,3.376689803376195e+16,2608983665483528.5,4323865418421944.5,4021153058310.3965,14299699721833.37,518927326437872.56,1.9208326133366596e+16
6.486222330124463,7131202913537011.0,3.469863755133232e+16,2624710233917496.0,4349929047750796.5,4193190098356.752,14911499067188.604,541134345090642.44,2.0032556321870828e+16
6.715946776726952,7172475137132945.0,3.5646556090335424e+16,2639900887660899.5,4375104506259103.0,4369078843376.265,15536996990862.96,563838784706626.1,2.0875330698741628e+16
6.950265712261491,7212354607439898.0,3.661106618455693e+16,2654578924680397.5,4399430405634959.5,4548877512290.29,16176400599413.975,587048164083653.8,2.1736928804606336e+16
7.18927102650672,7250901028577833.0,3.759258337474518e+16,2668766319671361.5,4422943164510997.0,4732646380419.272,16829924315308.852,610770267560145.9,2.2617640023729136e+16
7.433056447036854,7288170775420454.0,3.85915266781807e+16,2682483821967001.5,4445677170728962.5,4920447767250.806,17497789833568.049,635013143449135.9,2.351776352901435e+16
7.681717575977592,7324217134831435.0,3.9608319027244776e+16,2695751044327694.5,4467664928490232.0,5112346027920.014,18180226091615.87,659785102951086.5,2.4437608244524784e+16
7.935351927497144,7359090524918528.0,4.064338768109989e+16,2708586543639728.0,4488937192097588.0,5308407548109.301,18877469251295.668,685094719507753.5,2.537749282413688e+16
8.194058966047088,7392838694732539.0,4.169716461403701e+16,2721007894416402.5,4509523087768586.0,5508700742109.739,19589762692133.73,710950828563889.1,2.6337745645121292e+16
8.45794014536803,7425506906523710.0,4.277008688356816e+16,2733031755879366.0,4529450224809262.0,5713296053816.681,20317357015043.594,737362527707479.8,2.7318704815579536e+16
8.72709894827539,7457138102401385.0,4.386259698094705e+16,2744673933299340.5,4548744797274142.0,5922265960458.78,21060510055756.234,764339177162635.2,2.8320718194793372e+16
9.0016409272409,7487773057013519.0,4.497514316645355e+16,2755949434191330.0,4567431677098278.0,6135684978882.434,21819486907344.824,791890400612255.6,2.934414342565187e+16
9.281673745785717,7517450517666017.0,4.610817979149384e+16,2766872519886927.5,4585534499568174.0,6353629674234.399,22594559951283.59,820026086330146.1,3.0389347978417052e+16
9.567307220701432,7546207333133219.0,4.726216760931502e+16,2777456752944327.0,4603075741894134.0,6576178670902.511,23386008896544.113,848756388604609.0,3.1456709205171228e+16
9.85865336511546,7574078572263977.0,4.84375740759203e+16,2787715040802437.5,4620076795558288.0,6803412665590.555,24194120826288.57,878091729437505.9,3.2546614404366204e+16
10.155826432417769,7601097633361956.0,4.963487364259017e+16,2797659676039389.5,4636558033034867.0,7035414442417.02,25019190251767.03,908042800504638.6,3.365946089495512e+16
10.458942961066125,7627296345207639.0,5.085454804125207e+16,2807302373554707.5,4652538869412263.0,7272268889939.746,25861519173071.96,938620565364762.6,3.4795656099649656e+16
10.768121820287448,7652705060495019.0,5.2097086563809464e+16,2816654304959609.0,4668037819387859.0,7514063020019.119,26721417146439.27,969836261906105.9,3.5955617636894344e+16
11.083484256693197,7677352742370740.0,5.3362986336416456e+16,2825726130428586.0,4683072550055729.0,7760885988442.717,27599201357821.727,1001701405020343.4,3.713977342119483e+16
11.405153941827061,7701267044691250.0,5.465275258958813e+16,2834528028238842.5,4697659929862307.0,8012829117242.471,28495196702490.09,1034227789495272.5,3.834856177148077e+16
11.733257020663602,7724474386548528.0,5.596689892493826e+16,2843069722200261.5,4711816074065928.0,8269985918643.258,29409735870446.285,1067427493118259.1,3.958243152721626e+16
12.067922161076874,7747000021558328.0,5.7305947579266616e+16,2851360507157580.5,4725556387001639.0,8532452120589.208,30343159437455.22,1101312879983589.5,4.0841842172007496e+16
12.409280604298411,7768868102355002.0,5.867042968664203e+16,2859409272728406.0,4738895601422162.0,8800325693799.44,31295815961527.8,1135896603997520.8,4.212726396448359e+16
12.75746621638438,7790101740692846.0,6.006088553907235e+16,2867224525424066.5,4751847815158661.0,9073706880311.748,32268062084704.22,1171191612575682.2,4.343917807625598e+16
13.112615540712067,7810723063514369.0,6.147786484629653e+16,2874814409286135.0,4764426525321766.0,9352698223476.568,33260262640007.348,1207211150528031.5,4.477807673678277e+16
13.474867851526309,7830753265311740.0,6.29219269951905e+16,2882186725158559.0,4776644660241069.0,9637404599369.42,34272790763450.59,1243968764127231.5,4.6144463384989096e+16
13.844365208556836,7850212657076060.0,6.439364130923338e+16,2889348948703902.5,4788514609323596.0,9927933249593.25,35306028011001.9,1281478305356859.0,4.753885282751238e+16
14.221252512727972,7869120712102239.0,6.5893587308451304e+16,2896308247262337.5,4800048250994067.0,10224393815446.49,36360364480415.95,1319753936336285.8,4.896177140346062e+16
14.605677562982532,7887496108892101.0,6.742235497021739e+16,2903071495642543.5,4811256978865124.0,10526898373436.146,37436198937863.586,1358810133919638.8,5.041375715558664e+16
14.997791114242183,7905356771376705.0,6.898054499126253e+16,2909645290925881.0,4822151726272376.0,10835561472117.887,38533938949292.78,1398661694466504.5,5.18953600077997e+16
15.397746936527026,7922719906658917.0,7.0568769051226696e+16,2916035966358006.0,4832742989296807.0,11150500170248.9,39654001016473.49,1439323738782590.0,5.340714194894364e+16
15.805701875257567,7939602040459829.0,7.21876500780566e+16,2922249604395207.5,4843040848386582.0,11471834076241.135,40796810717680.94,1480811717228767.2,5.494967722279228e+16
16.221815912762718,7956019050436429.0,7.383782251553752e+16,2928292048967349.0,4853054988680282.0,11799685388905.736,41962802852985.95,1523141414997325.5,5.652355252421424e+16
16.64625223101797,7971986197523869.0,7.55199325932301e+16,2934168917013656.0,4862794719125289.0,12134178939481.086,43152421594126.93,1566328957554544.0,5.812936720147914e+16
17.079177275638333,7987518155442433.0,7.723463859906731e+16,2939885609343111.0,4872268990476517.0,12475442234939.973,44366120638945.375,1610390816248910.2,5.976773346468239e+16
17.5207608211511,8002629038498156.0,7.89826111548515e+16,2945447320866698.5,4881486412254492.0,12823605502572.004,45604363370376.64,1655343814084680.0,6.14392766002745e+16
17.97117603757412,8017332427794864.0,8.076453349488474e+16,2950859050245026.0,4890455268734178.0,13178801735840.785,46867623019989.49,1701205131660598.0,6.314463519169432e+16
18.430599558325603,8031641395966345.0,8.258110174794752e+16,2956125608991234.5,4899183534031353.0,13541166741515.723,48156382836078.29,1747992313273900.2,6.488446134610724e+16
18.899211549492115,8045568530528448.0,8.443302522283846e+16,2961251630066006.0,4907678886346949.0,13910839188080.951,49471136256316.766,1795723273189879.5,6.66594209272628e+16
19.37719578048196,8059125955943130.0,8.632102669767514e+16,2966241575998398.5,4915948721425859.0,14287960655424.693,50812387084985.04,1844416302077535.8,6.847019379448978e+16
19.864739696091597,8072325354479171.0,8.824584271315154e+16,2971099746563883.5,4924000165281649.0,14672675685814.244,52180649674789.92,1894090073611963.5,7.0317474047854216e+16
20.36203449001343,8085177985947968.0,9.020822386993795e+16,2975830286048284.5,4931840086235077.0,15065131836162.672,53576449113301.18,1944763651244334.5,7.220197027951285e+16
20.869275179813698,8097694706386675.0,9.220893513040806e+16,2980437190124290.0,4939475106310539.0,15465479731595.154,55000321414031.78,1996456495140539.5,7.41244058313003e+16
21.38666068340997,8109885985755648.0,9.424875612486728e+16,2984924312365197.0,4946911612031288.0,15873873120323.45,56452813712194.88,2049188469289567.0,7.60855190585932e+16
21.91439389707817,8121761924712086.0,9.632848146245957e+16,2989295370418573.0,4954155764651048.0,16290468929838.668,57934484465172.56,2102979848783045.8,7.808606360049989e+16
22.452681775019734,8133332270517488.0,9.844892104691733e+16,2993553951861208.5,4961213509857372.0,16715427324433.064,59445903657738.586,2157851327267362.5,8.012680865643194e+16
23.00173541052013,8144606432131854.0,1.0061090039732469e+17,2997703519754636.0,4968090586978857.0,17148911764063.41,60987653012076.48,2213824024569922.5,8.220853926911315e+16
23.561770118730532,8155593494544416.0,1.0281526097405381e+17,3001747417919732.0,4974792537726683.0,17591089064568.145,62560326202642.06,2270919494501332.5,8.433205661409429e+16
24.133005521105144,8166302232386605.0,1.0506286051003912e+17,3005688875947076.5,4981324714498336.0,18042129459253.445,64164529075921.75,2329159732835361.0,8.64981782958367e+16
24.715665631527248,8176741122870127.0,1.0735457334754592e+17,3009531013958990.0,4987692288269649.0,18502206661861.758,65800879875138.49,2388567185468575.5,8.870773865044154e+16
25.309978944157795,8186918358089917.0,1.0969129078059026e+17,3013276847137703.0,4993900256099362.0,18971497930939.77,67470009469965.07,2449164756761798.5,9.096158905510058e+16
25.91617852304095,8196841856728919.0,1.1207392140317051e+17,3016929290033437.0,4999953448268940.0,19450184135621.746,69172561591303.66,2510975818065614.0,9.326059824434669e+16
26.53450209350177,8206519275199361.0,1.1450339146346182e+17,3020491160665084.0,5005856535078562.0,19938449822845.652,70909193071195.23,2574024216432068.0,9.560565263319264e+16
27.165192135371807,8215958018252691.0,1.1698064522412978e+17,3023965184425264.0,5011614033319005.0,20436483286020.938,72680574087925.9,2638334283515201.5,9.799765664724379e+16
27.808495978079243,8225165249088316.0,1.1950664532891894e+17,3027353997800958.5,5017230312437841.0,20944476635165.984,74487388416397.55,2703930844662730.5,1.0043753305987776e+17
28.464665897640828,8234147898989159.0,1.220823731756676e+17,3030660151919988.0,5022709600416943.0,21462625868536.043,76330333683836.25,2770839228201566.0,1.0292622333658757e+17
29.133959215593645,8242912676510456.0,1.24708829295905e+17,3033886115933031.5,5028055989377649.0,21991130945761.16,78210121630911.25,2839085274919889.0,1.0546468798658738e+17
29.816638399905518,8251466076246357.0,1.2738703374118482e+17,3037034280240249.0,5033273440928086.0,22530195862516.26,80127478378343.64,2908695347748543.5,1.0805390692178069e+17
30.51297116790363,8259814387197286.0,1.3011802647630963e+17,3040106959570978.0,5038365791267272.0,23080028726744.26,82083144699081.05,2979696341644668.0,1.1069487982320354e+17
31.223230591261704,8267963700759789.0,1.3290286777959952e+17,3043106395924500.0,5043336756058663.0,23640841836456.02,84077876296125.05,3052115693680525.5,1.1338862651504338e+17
31.947695203086937,8275919918358920.0,1.3574263865036466e+17,3046034761379166.5,5048189935085983.0,24212851759129.125,86112444086091.33,3125981393340669.5,1.1613618734635472e+17
32.686649107148675,8283688758742414.0,1.3863844122373526e+17,3048894160777153.5,5052928816702426.0,24796279412730.562,88187634488591.3,3201321993030473.0,1.1893862358058126e+17
33.44038208929165,8291275764954173.0,1.4159139919300675e+17,3051686634291070.5,5057556782084390.0,25391350148387.12,90304249721526.84,3278166618799489.5,1.2179701779300782e+17
34.20918973107749,8298686311004027.0,1.446026582396611e+17,3054414159878861.0,5062077109299973.0,25998293834729.31,92463108102387.02,3356544981282731.5,1.2471247427625854e+17
34.993373525699035,8305925608249453.0,1.4767338647122125e+17,3057078655632635.5,5066492977201747.0,26617344943934.266,94665044355641.36,3436487386863502.0,1.276861194539745e+17
35.793240996213015,8312998711504007.0,1.508047748671015e+17,3059681982026966.5,5070807469152731.0,27248742639494.242,96910909926327.23,3518024749061185.0,1.30719102302791e+17
36.60910581613728,8319910524886379.0,1.539980377326165e+17,3062225944071671.5,5075023576594289.0,27892730865738.234,99201573299930.2,3601188600147545.5,1.338125947827511e+17
37.44128793246003,8326665807423352.0,1.5725441316131082e+17,3064712293374062.5,5079144202463850.0,28549558439134.055,101537920328658.17,3686011102995380.5,1.3696779227628643e+17
38.29011369110923,8333269178418728.0,1.605751635057772e+17,3067142730115005.0,5083172164469864.0,29219479141399.133,103920854564210.45,3772525063163065.5,1.4018591403590498e+17
39.15591596493141,8339725122600241.0,1.6396157585712835e+17,3069518904943283.0,5087110198231314.0,29902751814449.89,106351297597152.25,3860763941219002.0,1.4346820364072307e+17
40.03903428423004,8346037995055021.0,1.6741496253329322e+17,3071842420792198.0,5090960960288359.0,30599640457217.938,108830189402997.98,3950761865309832.0,1.4681592946198755e+17
40.93981496991464,8352212025964336.0,1.709366615763043e+17,3074114834622180.0,5094727030990352.0,31310414324364.56,111358488695115.44,4042553643976421.0,1.5023038513773133e+17
41.85861126931294,8358251325147169.0,1.7452803725875462e+17,3076337659093126.0,5098410917267413.0,32035348026923.8,113937173284563.17,4136174779221647.5,1.537128900567137e+17
42.7957834946992,8364159886421933.0,1.781904805995924e+17,3078512364169765.5,5102015055291043.0,32774721634904.918,116567240446976.66,4231661479834310.5,1.572647898517938e+17
