t(s),Total solute volume 1,Total retention volume 1,Total 1 volume 1,Total 2 volume 1,Total 3 volume 1,Total 4 volume 1,Total 5 volume 1,Total 6 volume 1
0.1,898666397951953.1,1036126891881881.2,66325422320955.914,71135071608968.8,0.0,0.0,0.0,0.0
0.202,1284566047931342.2,1621272240166788.2,94806466554440.11,101681445595812.95,266483941283.41016,485308200024.8958,6493861308769.266,132972626635114.14
0.30604000000000003,1536624756858126.2,2110447078327881.5,113409476999737.34,121633470737558.19,643808423187.3021,1172600280239.7961,15690607237461.338,321272357791569.3
0.41216080000000005,1721329802422763.2,2559514569916955.0,127041499104527.61,136254031669845.39,1092448699568.8883,1989949440965.2427,26627820707166.0,545179017872120.0
0.5204040160000001,1864680807345428.8,2988502949695305.0,137621416195254.2,147601161346246.0,1593491300868.3667,2902948132683.6,38845127044702.73,795257998330127.5
0.6308120963200001,1979986064379147.2,3407000080870539.5,146131437178756.72,156728294469383.97,2135991033319.508,3891692845486.4424,52076224224553.78,1066050376739892.0
0.7434283382464002,2075083397672262.0,3820386079892654.0,153150026988611.2,164255843896422.9,2712993347581.674,4943543891827.391,66152004128320.01,1354088269967632.2
0.8582969050113283,2155005626956140.5,4232008559525904.0,159048629239255.53,170582188821349.44,3319827548090.905,6050018865689.342,80958985464154.27,1657043282631226.8
0.9754628431115548,2223180606835231.0,4644111481020056.0,164080234256589.06,175978665399097.8,3953242380387.5537,7205219412118.525,96418263274673.03,1973295249461963.2
1.094972099973786,2282045673127554.5,5058288139843858.0,168424727845039.84,180638204020732.8,4610920447556.073,8404947513437.7705,112473684523103.88,2301689982366436.5
1.2168715419732616,2333391975927371.5,5475724074285595.0,172214304539813.25,184702585431344.16,5291185283472.41,9646172421371.352,129084715478696.66,2641393135203526.0
1.3412089728127268,2378570790657986.0,5897336983773020.0,175548694244685.12,188278771541639.75,5992815148547.112,10926691824183.092,146221908046878.8,2991797312309109.0
1.4680331522689813,2418623676260339.0,6323861970759612.0,178504768462816.53,191449208263525.0,6714919792455.802,12244907611379.678,163863899459753.34,3352460590909347.0
1.597393815314361,2454368031287263.0,6755905875420996.0,181142854702312.44,194278597810644.97,7456856218337.739,13599672618749.61,181995361710591.84,3723064501073086.0
1.729341691620648,2486455248238875.5,7193983228092763.0,183511028514810.75,196818501978149.28,8218169559703.214,14990183076869.03,200605562518156.44,4103384534206203.5
1.863928525453061,2515411361392486.0,7638540798735438.0,185648113479128.97,199110559672937.28,8998550649798.895,16415901438971.693,219687332778849.62,4493268979323260.0
2.001207095962122,2541666138557363.5,8089974817498588.0,187585828297140.75,201188789708193.5,9797804986386.658,17876499948230.73,239236311520802.94,4892623444480476.0
2.1412312378813647,2565574330240181.0,8548643339884083.0,189350355073044.56,203081272807884.12,10615829655008.479,19371818689794.133,259250384670540.38,5301399348747629.0
2.284055862638992,2587431467977588.5,9014875309712366.0,190963505297853.84,204811402143697.75,11452595921226.016,20901833961104.273,279729261883529.47,5719585242527356.0
2.4297369798917723,2607485794740805.5,9488977324144976.0,192443600364260.7,206398827701266.12,12308135931565.332,22466634121165.125,300674153447462.94,6147200177838449.0
2.578331719489608,2625947400101346.0,9971238766936978.0,193806145780931.28,207860179385736.62,13182532438476.678,24066400944908.824,322087520847601.8,6584288587437985.0
2.7298983538794,2642995302385357.5,1.0461935761956316e+16,195064353865773.25,209209627618626.4,14075910781834.531,25701395086095.457,343972882307769.1,7030916289910876.0
2.884496320956988,2658783000964006.5,1.0961334259959944e+16,196229553528703.16,210459322836372.56,14988432575343.568,27371944644973.812,366334659876279.8,7487167345534247.0
3.0421862473761276,2673442873554392.5,1.1469692479301688e+16,197311514811260.12,211619743564236.97,15920290695704.37,29078436108972.6,389178058266097.5,7953141562301048.0
3.2030299723236504,2687089691181417.5,1.1987262858726236e+16,198318708305817.56,212699974647544.44,16871705277588.264,30821307126130.543,412508968220043.44,8428952503967695.0
3.3670905717701234,2699823451790442.0,1.251429363728755e+16,199258514288313.3,213707931549868.88,17842920492572.68,32601040707644.24,436333889000568.06,8914725889458143.0
3.5344323832055258,2711731682503453.0,1.3051030146212164e+16,200137392634597.62,214650542591020.44,18834201944511.832,34418160554776.406,460659865926408.3,9410598300057396.0
3.7051210308696363,2722891323716390.0,1.3597715876023216e+16,200961021874874.44,215533898085154.8,19845834553586.61,36273227277736.95,485494439846852.94,9916716130668628.0
3.879223451487029,2733370281353047.5,1.4154593366734e+16,201734413756672.44,216363373211379.38,20878120830714.49,38166835327725.32,510845606161120.9,1.0433234736093334e+16
4.0568079205167695,2743228713721367.5,1.4721904957589606e+16,202462008220343.47,217143729876494.3,21931379466010.402,40099610503378.414,536721781526387.1,1.096031773427563e+16
4.237944078927105,2752520104576186.5,1.529989342446516e+16,203147752595684.25,217879201654625.66,23005944171607.766,42072207923110.555,563131776802629.2,1.1498136436741302e+16
4.422702960505647,2761292162794978.0,1.5888802526774776e+16,203795168001847.53,218573565002193.25,24102162731798.37,44085310377863.734,590084775090612.9,1.2046869382775488e+16
4.61115701971576,2769587580548295.0,1.6488877481028204e+16,204407405303563.72,219230199271847.66,25220396223167.7,46139626996463.695,617590313955915.8,1.2606701958728944e+16
4.803380160110075,2777444675300367.5,1.7100365374578098e+16,204987292493534.25,219852137530841.94,26361018374916.13,48235892169464.64,645658271115024.9,1.3177826087593942e+16
4.9994477633122765,2784897935908751.5,1.7723515530341608e+16,205537374996916.88,220442109788234.38,27524415045414.43,50374864688026.45,674298853002134.5,1.3760439976912106e+16
5.199436718578522,2791978489140355.0,1.835857983114133e+16,206059950102203.66,221002579922554.88,28710983795637.008,52557327062734.41,703522585747319.8,1.4354747915370542e+16
5.403425452950093,2798714499818334.5,1.900581301064269e+16,206557096493772.2,221535777355936.34,29921133543743.016,54784084993877.086,733340308185094.8,1.4960960110251908e+16
5.611493962009095,2805131515361428.5,1.9665472916552104e+16,207030699680363.75,222043724326562.5,31155284287959.94,57055966969954.055,763763166582658.2,1.5579292559343156e+16
5.823723841249277,2811252763525847.0,2.0337820750704308e+16,207482473969706.0,222528259456801.8,32413866887222.3,59373823975369.62,794802610833235.6,1.6209966952056146e+16
6.040198318074262,2817099410598850.0,2.1023121289837304e+16,207913981524303.6,222991058190843.3,33697322890871.246,61738529291648.375,826470391905049.1,1.6853210595435748e+16
6.261002284435747,2822690786036482.5,2.17216430901931e+16,208326648940664.0,223433650576186.4,35006104410209.207,64150978379222.0,858778560372816.1,1.7509256361477546e+16
6.486222330124463,2828044578522192.5,2.243365867854739e+16,208721781719260.88,223857436782903.03,36340674025917.36,66612088829051.875,891739465888313.9,1.8178342652779724e+16
6.715946776726952,2833177007596564.0,2.315944473183719e+16,209100576931542.22,224263700689204.88,37701504726327.07,69122800375149.445,925365757470582.9,1.886071338404779e+16
6.950265712261491,2838102974333766.0,2.389928224720568e+16,209464134340498.62,224653621808433.66,39089079872347.34,71684074960531.98,959670384516160.8,1.955661797737397e+16
7.18927102650672,2842836193986705.0,2.465345670399093e+16,209813466190438.97,225028285788749.6,40503893185508.73,74296896850367.67,994666598445900.9,2.0266311369543224e+16
7.433056447036854,2847389313066143.0,2.542225821895028e+16,210149505847933.6,225388693680680.5,41946448756135.88,76962272787061.44,1030367954918442.4,2.099005402989386e+16
7.681717575977592,2851774012941826.5,2.6205981695815464e+16,210473115448018.78,225735770137798.12,43417261069112.37,79681232182873.03,1066788316551473.1,2.172811198748431e+16
7.935351927497144,2856001101739541.0,2.7004926970109204e+16,210785092676592.56,226070370690947.3,44916855045075.055,82454827346340.4,1103941856101227.5,2.2480756866509468e+16
8.194058966047088,2860080596046535.5,2.7819398950019676e+16,211086176800623.56,226393288215737.9,46445766095194.93,85284133739371.6,1141843060058406.2,2.32482659290638e+16
8.45794014536803,2864021793718523.0,2.864970775401476e+16,211377054041621.72,226705258695681.72,48004540187957.08,88170250262342.19,1180506732625239.0,2.4030922124483444e+16
8.72709894827539,2867833338897751.5,2.949616884578253e+16,211658362374246.16,227006966368771.4,49593733926579.586,91114299564957.86,1219948000043785.5,2.4829014144606452e+16
9.0016409272409,2871523280196209.0,3.0359103167003984e+16,211930695820477.62,227299048333054.34,51213914635887.7,94117428380970.34,1260182315250405.5,2.5642836484386988e+16
9.281673745785717,2875099122867326.0,3.1238837268396076e+16,212194608300110.88,227582098676341.66,52865660457625.4,97180807885143.39,1301225462834999.0,2.6472689507374572e+16
9.567307220701432,2878567875677956.0,3.2135703439404564e+16,212450617090108.97,227856672186424.6,54549560453308.86,100305634071103.95,1343093564287166.0,2.7318879515638504e+16
9.85865336511546,2881936093098157.0,3.305003983687653e+16,212699205938390.22,228123287690657.56,56266214713844.68,103493128148930.22,1385803083514162.2,2.818171882377235e+16
10.155826432417769,2885209913345510.5,3.3982190613001884e+16,212940827871657.44,228382431067405.22,58016234475226.84,106744536961505.92,1429370832618065.0,2.9061525836662468e+16
10.458942961066125,2888395092751513.0,3.4932506042774036e+16,213175907731789.88,228634557966355.5,59800242239707.75,110061133418838.69,1473813977921549.2,2.9958625130744308e+16
10.768121820287448,2891497036858699.5,3.590134265119137e+16,213404844470940.66,228880096270053.94,61618871901906.445,113444216949652.19,1519150046233645.0,3.0873347538506428e+16
11.083484256693197,2894520828606008.5,3.6889063340391336e+16,213628013231737.62,229119448324951.38,63472768879375.75,116895113969704.3,1565396931348213.5,3.180603023603132e+16
11.405153941827061,2897471253916079.5,3.789603751688861e+16,213845767235736.75,229352992966799.28,65362590247198.945,120415178366362.92,1612572900769447.5,3.2757016833387044e+16
11.733257020663602,2900352824960351.5,3.892264121906483e+16,214058439500483.1,229581087362224.1,67289004876229.445,124005791999071.27,1660696602659763.2,3.372665746770684e+16
12.067922161076874,2903169801344778.5,3.996925724504179e+16,214266344403110.75,229804068685714.97,69252693574620.53,127668365215409.17,1709787073006518.8,3.4715308898811668e+16
12.409280604298411,2905926209430678.5,4.103627528105368e+16,214469779106301.5,230022255648987.94,71254349232325.8,131404337382516.67,1759863743004927.5,3.5723334607247936e+16
12.75746621638438,2908625859980295.5,4.212409203041957e+16,214669024860604.3,230235949897739.44,73294676968273.23,135215177433717.03,1810946446655326.2,3.675110489462364e+16
13.112615540712067,2911272364295092.5,4.323311134320543e+16,214864348195508.2,230445437289098.28,75374394279939.86,139102384430219.36,1863055428573687.2,3.779899698614191e+16
13.474867851526309,2913869148995781.0,4.436374434665332e+16,215056002010274.38,230650989061553.03,77494231195069.98,143067488137830.66,1916211352014887.8,3.886739513523791e+16
13.844365208556836,2916419469576793.5,4.551640957644658e+16,215244226574312.56,230852862907878.6,79654930425299.16,147112049618649.5,1970435307108801.8,3.995669073023478e+16
14.221252512727972,2918926422853129.5,4.669153310887056e+16,215429250445810.7,231051303960375.0,81857247521450.62,151237661837744.62,2025748819309856.5,4.106728240294214e+16
14.605677562982532,2921392958404886.0,4.788954869391962e+16,215611291316394.16,231246545696781.6,84101951030292.58,155445950284867.5,2082173858061039.0,4.2199576139125384e+16
14.997791114242183,2923821889113684.0,4.911089788939522e+16,215790556788752.9,231438810774294.75,86389822652539.3,159738573611259.62,2139732845673911.5,4.3353985390780824e+16
15.397746936527026,2926215900875024.0,5.035603019603199e+16,215967245093460.2,231628311798364.28,88721657401899.44,164117224281654.6,2198448666426448.0,4.45309311901551e+16
15.805701875257567,2928577561562137.0,5.1625403193683736e+16,216141545750540.16,231815252032238.16,91098263764966.73,168583629241603.75,2258344675880881.5,4.573084226545143e+16
16.221815912762718,2930909329309000.5,5.291948267859457e+16,216313640180792.6,231999826052616.88,93520463861761.64,173139550600256.5,2319444710424127.0,4.6954155158166024e+16
16.64625223101797,2933213560173443.5,5.423874280177509e+16,216483702271359.0,232182220356232.9,95989093606730.16,177786786328771.75,2381773097033600.5,4.820131434200496e+16
17.079177275638333,2935492515235089.0,5.558366620850047e+16,216651898899582.6,232362613921698.1,98505002870003.02,182527170974539.34,2445354663271509.5,4.947277234332806e+16
17.5207608211511,2937748367177462.0,5.695474417893901e+16,216818390418800.47,232541178730522.62,101069055638730.02,187362576391407.44,2510214747511072.5,5.076898986307099e+16
17.97117603757412,2939983206399028.0,5.835247676991866e+16,216983331109355.75,232718080250834.25,103682130178289.73,192294912486144.7,2576379209398163.0,5.209043590009672e+16
18.430599558325603,2942199046693140.0,5.977737295783295e+16,217146869597809.5,232893477886990.28,106345119193182.73,197326127981362.03,2643874440552247.5,5.343758787592832e+16
18.899211549492115,2944397830533631.5,6.122995078268384e+16,217309149247036.88,233067525397959.7,109058929987408.31,202458211195141.7,2712727375510823.5,5.481093176081174e+16
19.37719578048196,2946581433998851.5,6.271073749325442e+16,217470308519642.03,233240371287093.34,111824484624127.23,207693190837638.06,2782965502921441.0,5.621096220106555e+16
19.864739696091597,2948751671364234.5,6.422026969340344e+16,217630481316908.94,233412159165654.06,114642720084398.36,213033136824923.94,2854616876985957.5,5.763818264766136e+16
20.36203449001343,2950910299390478.5,6.5759093489463656e+16,217789797295290.34,233583028092253.25,117514588424789.66,218480161110364.53,2927710129161577.0,5.90931054859889e+16
20.869275179813698,2953059021332156.0,6.73277646387291e+16,217948382162256.4,233753112890157.47,120441056933634.83,224036418533822.56,3002274480123670.0,6.057625216675354e+16
21.38666068340997,2955199490689237.5,6.892684869900827e+16,218106357953174.12,233922544444244.44,123423108285731.55,229704107689005.38,3078339751995386.0,6.208815333795147e+16
21.91439389707817,2957333314722000.5,7.055692117921624e+16,218263843290725.7,234091449979231.22,126461740695238.89,235485471809264.4,3155936380849260.5,6.362934897787053e+16
22.452681775019734,2959462057748077.5,7.221856769097826e+16,218420953628240.53,234259953320654.9,129557968066549.78,241382799672193.7,3235095429486344.5,6.520038852905637e+16
23.00173541052013,2961587244238714.5,7.39123841012105e+16,218577801478215.44,234428175139961.16,132712820142896.5,247398426523359.44,3315848600498416.5,6.680183103318901e+16
23.561770118730532,2963710361729847.5,7.563897668563894e+16,218734496627162.62,234596233184936.66,135927342652437.61,253534735019514.1,3398228249618995.0,6.8434245266806e+16
24.133005521105144,2965832863562376.0,7.739896228321843e+16,218891146337855.88,234764242496613.5,139202597451572.97,259794156191659.2,3482267399369267.5,7.009820987780917e+16
24.715665631527248,2967956171464567.5,7.919296845140437e+16,219047855539919.97,234932315613689.3,142539662665223.72,266179170428330.62,3567999753004911.0,7.179431352268788e+16
25.309978944157795,2970081677988832.0,8.102163362222754e+16,219204727009676.12,235100562765406.56,145939632823796.2,272692308479480.44,3655459708770213.0,7.35231550043902e+16
25.91617852304095,2972210748813630.5,8.288560725911997e+16,219361861540036.4,235269092053769.3,149403618996559.9,279336152481358.88,3744682374465906.5,7.528534341076866e+16
26.53450209350177,2974344724920947.0,8.478555001443408e+16,219519358101203.72,235438009625899.6,152932748921132.03,286113337002778.44,3835703582337408.5,7.708149825352478e+16
27.165192135371807,2976484924658355.5,8.672213388759134e+16,219677313992866.5,235607419837263.28,156528167128785.78,293026550113190.4,3928559904290283.0,7.891224960757046e+16
27.808495978079243,2978632645694500.0,8.869604238379482e+16,219835824988518.72,235777425406459.78,160191035065245.9,300078534472975.44,4023288667439959.0,8.077823825072722e+16
28.464665897640828,2980789166875740.5,9.07079706732378e+16,219994985472490.06,235948127562187.28,163922531206674.4,307272088446386.1,4119927970002737.0,8.268011580367176e+16
29.133959215593645,2982955749991352.0,9.27586257507253e+16,220154888570225.28,236119626182969.25,167723851170493.4,314610067237571.4,4218516697535623.0,8.46185448700371e+16
29.816638399905518,2985133641453987.0,9.484872659563544e+16,220315626272306.4,236292019930171.3,171596207820713.16,322095384050128.44,4319094539532423.5,8.659419917657574e+16
30.51297116790363,2987324073901609.5,9.697900433213266e+16,220477289552686.72,236465406374808.62,175540831367398.6,329731011270650.56,4421702006383683.5,8.860776371328186e+16
31.223230591261704,2989528267726713.5,9.91502023895384e+16,220639968481549.1,236639882118588.8,179558969459917.75,337519981676700.0,4526380446708629.0,9.065993487336661e+16
31.947695203086937,2991747432538083.0,1.0136307666277115e+17,220803752333195.72,236815542909622.94,183651887273586.1,345465389669719.6,4633172065066833.0,9.275142059298037e+16
32.686649107148675,2993982768560177.0,1.036183956727456e+17,220968729689322.03,236992483753192.03,187820867589310.8,353570392533323.8,4742119940058131.0,9.48829404905622e+16
33.44038208929165,2996235467974526.5,1.0591694072663402e+17,221134988538023.4,237170799017930.28,192067210865843.6,361838211717488.44,4853268042819008.0,9.705522600570133e+16
34.20918973107749,2998506716207637.5,1.0825950607786635e+17,221302616368843.66,237350582537767.28,196392235304206.22,370272134149105.3,4966661255924081.0,9.926902053737451e+16
34.993373525699035,3000797693169123.0,1.1064689908576186e+17,221471700264158.56,237531927709940.6,200797276903883.2,378875513569434.56,5082345392701682.0,1.0152507958144373e+17
35.793240996213015,3003109574444023.5,1.1307994037466059e+17,221642326987169.8,237714927589364.62,205283689510313.12,387651771898949.25,5200367216972080.0,1.0382417086725862e+17
36.60910581613728,3005443532442452.0,1.1555946399242355e+17,221814583066756.75,237899674979644.22,209852844853238.25,396604400630090.6,5320774463217858.0,1.061670744932337e+17
37.44128793246003,3007800737510023.0,1.1808631756817258e+17,221988554879430.16,238086262520961.8,214506132575440.84,405736962248473.56,5443615857195715.0,1.0855458306124264e+17
38.29011369110923,3010182359001893.0,1.2066136246911536e+17,222164328728600.22,238274782775100.53,219244960251374.88,415053091683070.2,5568941136998944.0,1.1098750180967632e+17
39.15591596493141,3012589566323263.5,1.2328547395631429e+17,222341990921370.6,238465328307805.22,224070753395205.88,424556497785910.56,5696801074580803.0,1.1346664874499984e+17
40.03903428423004,3015023529938943.5,1.2595954133923717e+17,222521627843049.97,238657991768695.22,228984955457740.53,434250964841859.7,5827247497747939.0,1.1599285477163896e+17
40.93981496991464,3017485422354456.5,1.286844681289255e+17,222703326029557.84,238852865968924.3,233989027811725.25,444140354109014.44,5960333312634835.0,1.1856696382001698e+17
41.85861126931294,3019976419070895.5,1.3146117218961058e+17,222887172237901.47,239050043956764.25,239084449724974.66,454228605390293.94,6096112526668740.0,1.2118983297256128e+17
42.7957834946992,3022497699515745.0,1.3429058588859589e+17,223073253514872.38,239249619091286.56,244272718320770.6,464519738636786.75,6234640272035939.0,1.2386233258748051e+17
