t(s),Total solute volume 1,Total retention volume 1,Total 1 volume 1,Total 2 volume 1,Total 3 volume 1,Total 4 volume 1,Total 5 volume 1,Total 6 volume 1
0.1,919935341976466.9,1072551036543860.6,72903600131805.52,79712094435588.67,0.0,0.0,0.0,0.0
0.202,1381796750417445.5,1619445584558914.2,109505476480220.02,119732234217413.69,14437333011.712189,27078588791.525562,378808869640.5053,7990798652390.98
0.30604000000000003,1730355814788677.8,2038695069617850.8,137128299049834.52,149934762679856.7,36518867532.20188,68494944101.97067,958195231110.0408,20212984056736.45
0.41216080000000005,2022460282509690.8,2395658319280009.0,160277173100867.53,175245518846633.47,64666025109.87942,121288478594.66891,1696741536117.5952,35792648782994.234
0.5204040160000001,2279438396184005.5,2714778515000379.0,180642332295882.6,197512587966813.1,98152127874.69843,184096401935.60065,2575383280451.495,54327566743417.76
0.6308120963200001,2511933456160498.5,3008224804406022.0,199067243431996.2,217658208526421.0,136565466401.6296,256146668527.02493,3583320173241.5605,75589863978935.27
0.7434283382464002,2726138699649781.0,3283068605017217.5,216042711971483.9,236219022497248.06,179649812803.6706,336958851100.4109,4713831493039.459,99437730741767.14
0.8582969050113283,2926024381276699.0,3543841856273691.5,231883375088595.53,253539051138884.56,227238691576.32364,426220862783.38025,5962551499299.737,125779037715849.28
0.9754628431115548,3114311680941460.5,3793653559376970.0,246804882517428.9,269854083795899.3,279222876391.17206,523727996298.5367,7326616628314.644,154553344621177.03
1.094972099973786,3292959339441333.5,4034746610307756.0,260962461750287.4,285333844714899.6,335532308985.56805,629349012543.3201,8804191094368.342,185721891985337.84
1.2168715419732616,3463431108194143.0,4268803252830490.5,274472113057461.03,300105167475311.25,396125172455.1574,743005647591.0417,10394180206423.068,219261553077105.16
1.3412089728127268,3626853661790326.5,4497125097013200.0,287423123838036.94,314265678060187.75,460980868728.8504,864659442159.425,12096046121518.787,255160946892238.47
1.4680331522689813,3784115211872561.0,4720745335251621.0,299885883633131.5,327892339716488.3,530095285182.04614,994302864455.9772,13909683659758.867,293417818220053.4
1.597393815314361,3935929931189860.0,4940501923612467.0,311916989642852.56,341047035278224.25,603477480982.517,1131953095793.1885,15835333369714.334,334037203555040.7
1.729341691620648,4082881632823941.5,5157087113561452.0,323562708244424.0,353780351957060.25,681147294683.1406,1277647544044.379,17873518765186.992,377030106932122.94
1.863928525453061,4225454319696255.5,5371082037269608.0,334861395998263.25,366134228447073.4,763133572271.7578,1431440520799.1394,20024999841365.656,422412519193580.2
2.001207095962122,4364054123520334.0,5582981505074571.0,345845238279531.25,378143855927760.3,849472826347.8566,1593400727123.931,22290737902838.66,470204675890648.0
2.1412312378813647,4499025422978811.0,5793212195750470.0,356541526621319.5,389839074698787.1,940208202939.9647,1763609316326.869,24671868463519.91,520430485468765.44
2.284055862638992,4630662922523466.0,6002146268144126.0,366973615942797.0,401245420804035.6,1035388672941.1858,1942158378016.565,27169680040208.297,573117081782652.1
2.4297369798917723,4759220863126039.0,6210111726442708.0,377161654488446.6,412384924140143.56,1135068390862.253,2129149735987.191,29785597336380.125,628294469224848.0
2.578331719489608,4884920155184346.0,6417400436796122.0,387123149100984.5,423276726520469.75,1239306180439.22,2324693984041.776,32521167754591.992,685995238071235.6
2.7298983538794,5007953978891316.0,6624274414081730.0,396873409042836.44,433937566945231.94,1348165117941.8472,2528909705075.897,35378050472591.695,746254333906745.8
2.884496320956988,5128492236039750.0,6830970814026520.0,406425898795498.75,444382167348931.75,1461712191798.7144,2741922833316.723,38358007522093.836,809108869295131.8
3.0421862473761276,5246685128561387.0,7037705942371149.0,415792521653791.2,454623542679576.6,1580018022602.272,2963866129828.8765,41462896452102.734,874597968871864.6
3.2030299723236504,5362666064419552.0,7244678507959142.0,424983850013825.4,464673252693336.25,1703156631445.921,3194878748691.948,44694664260692.0,942762641191608.8
3.3670905717701234,5476554039225412.0,7452072287359742.0,434009314112784.75,474541608320797.75,1831205247366.7751,3435105876546.8555,48055342353188.62,1013645672223636.2
3.5344323832055258,5588455604787234.0,7660058326518849.0,442877358033731.7,484237842241118.75,1964244146745.9128,3684698432105.545,51547042339226.195,1087291536538687.4
3.7051210308696363,5698466508977556.0,7868796774561641.0,451595569662796.44,493770250975977.6,2102356519068.7656,3943812815127.1587,55171952521829.43,1163746323089278.5
3.879223451487029,5806673071673016.0,8078438422665646.0,460170789730514.2,503146314114302.5,2245628354620.38,4212610696562.648,58932334962441.12,1243057673134190.8
4.0568079205167695,5913153346975583.0,8289126004486882.0,468609203916232.06,512372795018367.7,2394148350585.9224,4491258843248.761,62830523029303.1,1325274728353550.2
4.237944078927105,6017978111019575.0,8500995302310166.0,476916421130456.94,521455826416938.56,2548007832718.37,4779928971830.179,66868919354747.43,1410448087583889.0
4.422702960505647,6121211706406990.0,8714176093777290.0,485097540435176.8,530400983575317.75,2707300690274.657,5078797627599.78,71049994141107.34,1498629770900821.8
4.61115701971576,6222912767991144.0,8928792966921856.0,493157208561212.6,539213347184266.25,2872123322345.6494,5388046084742.515,75376283766081.14,1589873190012059.8
4.803380160110075,6323134849845709.0,9144966025742680.0,501099669594642.94,547897557686653.1,3042574594041.783,5707860265099.347,79850389647217.94,1684233124109295.5
4.9994477633122765,6421926969452199.0,9362811504269692.0,508928808102905.0,556457862431127.1,3218755801265.142,6038430673072.533,84474977332241.47,1781765700476907.8
5.199436718578522,6519334082151386.0,9582442303718980.0,516648186734422.44,564898156783182.4,3400770643015.2085,6379952344699.357,89252775787617.73,1882528379274646.5
5.403425452950093,6615397496541252.0,9803968464679914.0,524261079138300.75,573222020119240.0,3588725200351.0425,6732624809250.028,94186576862371.58,1986579942009152.8
5.611493962009095,6710155239619197.0,1.0027497584165774e+16,531770498901355.3,581432747466118.5,3782727921275.676,7096652061975.295,99279234907914.19,2093980483287925.8
5.823723841249277,6803642378956632.0,1.0253135185664116e+16,539179225079989.1,589533377417335.1,3982889610925.9175,7472242546847.849,104533666537723.52,2204791405514667.2
6.040198318074262,6895891307972918.0,1.0480985048959196e+16,546489824807769.0,597526716852020.1,4189323426547.705,7859609148324.802,109952850513266.17,2319075416238340.0
6.261002284435747,6986931999386440.0,1.0711149505389468e+16,553704673381065.7,605415362896358.9,4402144876817.223,8258969191308.007,115539827744646.97,2436896527912802.5
6.486222330124463,7076792231110670.0,1.0943729703299984e+16,560825972160996.7,613201722497401.5,4621471825135.117,8670544448605.375,121297701396241.52,2558320059860924.5
6.715946776726952,7165497788199538.0,1.1178825847707364e+16,567855764577331.2,620888029921585.1,4847424496576.965,9094561155300.828,127229637089024.1,2683412642268011.0
6.950265712261491,7253072643898661.0,1.141653741758388e+16,574795950476543.9,628476362442755.1,5080125488230.405,9531250029529.28,133338863192550.4,2812242222055581.0
7.18927102650672,7339539122404697.0,1.1656963363660888e+16,581648299020253.8,635968654445183.8,5319699782688.55,9980846299227.055,139628671200586.45,2944878070508224.0
7.433056447036854,7424918045556341.0,1.1900202289230466e+16,588414460310304.0,643366710134346.0,5566274764503.658,10443589734491.945,146102416185268.22,3081390792545219.0
7.681717575977592,7509228865365393.0,1.2146352616071994e+16,595095975891656.5,650672215020646.8,5819980239432.875,10919724685240.014,152763517325418.03,3221852337544216.5
7.935351927497144,7592489784029163.0,1.2395512737334042e+16,601694288263206.4,657886746318488.5,6080948456332.709,11409500123892.576,159615458505292.6,3366336011637665.5
8.194058966047088,7674717862842860.0,1.2647781158954802e+16,608210749508931.1,665011782383473.0,6349314131579.232,11913169692865.674,166661788980573.16,3514916491414509.5
8.45794014536803,7755929121240038.0,1.2903256630991694e+16,614646629146727.6,672048711294237.2,6625214475909.374,12430991756667.668,173906124108889.66,3667669838969239.0
8.72709894827539,7836138627029075.0,1.3162038270053552e+16,621003121279508.2,678998838671400.0,6908789223593.414,12963229458439.674,181352146142567.38,3824673518248981.0
9.0016409272409,7915360578755993.0,1.3424225673875614e+16,627281351122358.4,685863394814298.4,7200180663862.341,13510150780798.277,189003605081627.34,3986006412656700.0
9.281673745785717,7993608381006993.0,1.3689919028948452e+16,633482380970141.1,692643541225893.2,7499533674524.883,14072028610861.451,196864319585380.7,4151748843874663.5
9.567307220701432,8070894713363439.0,1.3959219211999596e+16,639607215662090.6,699340376587729.6,7806995757719.039,14649140809356.457,204938177941213.7,4321982591878037.5
9.85865336511546,8147231593635662.0,1.4232227886031466e+16,645656807593010.6,705954942239099.5,8122717077750.959,15241770283726.07,213229139089370.97,4496790916112849.0
10.155826432417769,8222630435927364.0,1.4509047591536372e+16,651632061314785.4,712488227208318.8,8446850500981.98,15850205065161.035,221741233702764.8,4676258577817000.0
10.458942961066125,8297102104018183.0,1.4789781833437772e+16,657533837766881.1,718941172838301.4,8779551637730.389,16474738389501.217,230478565320979.66,4860471863466190.0
10.768121820287448,8370656960495678.0,1.5074535164245332e+16,663362958169991.6,725314677043835.5,9120978886160.445,17115668781956.111,239445311537807.03,5049518609329886.0
11.083484256693197,8443304912019889.0,1.5363413263857456e+16,669120207613183.0,731609598233733.8,9471293478135.514,17773300145606.39,248645725241759.47,5243488227125129.0
11.405153941827061,8515055451060996.0,1.565652301639783e+16,674806338361544.0,737826758927396.4,9830659527016.865,18447941853654.24,258084135909134.06,5442471730758082.0
11.733257020663602,8585917694413892.0,1.5953972584431954e+16,680422072908430.9,743966949092087.0,10199244077392.484,19139908845398.96,267764950949288.06,5646561764145454.0
12.067922161076874,8655900418761196.0,1.6255871480873376e+16,685968106793761.0,750030929224448.0,10577217156724.281,19849521725918.445,277692657101864.5,5855852630109493.0
12.409280604298411,8725012093527587.0,1.656233063885872e+16,691445111207694.4,756019433197320.9,10964751828903.965,20577106869444.023,287871821885794.7,6070440320341953.0
12.75746621638438,8793260911243926.0,1.687346247984107e+16,696853735396933.9,761933170890789.6,11362024249710.592,21322996526419.203,298307095099956.8,6290422546433338.0
13.112615540712067,8860654815617296.0,1.7189380980130326e+16,702194608889247.1,767772830624440.5,11769213724164.717,22087528934238.387,309003210375425.0,6515898771965509.0
13.474867851526309,8927201527484263.0,1.7510201736083362e+16,707468343550220.2,773539081406206.6,12186502765775.732,22871048431662.895,319964986779299.0,6746970245665939.0
13.844365208556836,8992908568806987.0,1.7836042028131694e+16,712675535484921.9,779232575011613.1,12614077157680.678,23673905576917.633,331197330470135.5,6983740035623409.0
14.221252512727972,9057783284857428.0,1.8167020883814988e+16,717816766795957.1,784853947906037.0,13052126015673.69,24496457269470.605,342705236405055.56,7226313064565363.0
14.605677562982532,9121832864720746.0,1.8503259139975316e+16,722892607208357.4,790403823021321.6,13500841853126.908,25339066875503.664,354493790098613.2,7474796146197635.0
14.997791114242183,9185064360237858.0,1.8844879504252584e+16,727903615570730.0,795882811397148.0,13960420647804.111,26202104357081.508,366568169433558.3,7729298022608376.0
15.397746936527026,9247484703496180.0,1.919200661601098e+16,732850341241382.8,801291513696587.4,14431061910569.354,27085946405030.395,378933646523639.4,7989929402737575.0
15.805701875257567,9309100722967898.0,1.954476710681481e+16,737733325367270.0,806630521604489.1,14912968755993.953,27990976575537.3,391595589628611.7,8256803001915008.0
16.221815912762718,9369919158387564.0,1.9903289660563212e+16,742553102062995.8,811900419116613.1,15406347974864.824,28917585430483.66,404559465121663.4,8530033582469003.0
16.64625223101797,9429946674452240.0,2.026770507338428e+16,747310199496558.6,817101783726751.4,15911410108598.719,29866170681527.17,417830839509430.4,8809737995409166.0
17.079177275638333,9489189873421666.0,2.063814631338268e+16,752005140887882.6,822235187518512.6,16428369525566.967,30837137337947.883,431415381504862.94,9096035223186212.0
17.5207608211511,9547655306689356.0,2.1014748580326476e+16,756638445425814.1,827301198167972.9,16957444499335.295,31830897858274.84,445318864153154.44,9389046423532586.0
17.97117603757412,9605349485390220.0,2.1397649365354896e+16,761210629108758.2,832300379862811.1,17498857288824.21,32847872305710.473,459547167010997.0,9688894974387576.0
18.430599558325603,9662278890105792.0,2.178698851078083e+16,765722205513814.6,837233294143265.6,18052834220395.883,33888488507371.562,474106278379423.1,9995706519910830.0
18.899211549492115,9718449979723038.0,2.2182908270059704e+16,770173686498811.5,842100500669745.6,18619605771872.516,34953182217364.81,489002297590509.56,1.0309609017588342e+16
19.37719578048196,9773869199499816.0,2.25855533679888e+16,774565582841493.0,846902557921707.2,19199406658493.734,36042397283719.09,504241437348226.3,1.0630732786435384e+16
19.864739696091597,9828542988385398.0,2.2995071061201476e+16,778898404819654.6,851640023831968.9,19792475920817.37,37156585819191.625,519830026123737.1,1.0959210556300766e+16
20.36203449001343,9882477785642212.0,2.3411611199011436e+16,783172662735909.0,856313456360477.2,20399057014572.336,38296208375973.22,535774510605449.94,1.129517751827683e+16
20.869275179813698,9935680036811150.0,2.3835326284664376e+16,787388867390431.1,860923414011216.6,21019397902468.785,39461734124311.625,552081458204141.94,1.1638771376220676e+16
21.38666068340997,9988156199061044.0,2.4266371537048564e+16,791547530504891.5,865470456295720.0,21653751147973.22,40653641035077.875,568757559613488.5,1.1990132399390358e+16
21.91439389707817,1.003991274595952e+16,2.4704904952912532e+16,795649165100540.6,869955144146475.9,22302374011055.582,41872416066299.17,585809631426334.0,1.2349403476202274e+16
22.452681775019734,1.0090956171701116e+16,2.5151087369638868e+16,799694285833289.2,874378040283285.6,22965528545916.06,43118555353680.18,603244618807062.5,1.2716730169114538e+16
23.00173541052013,1.0141292994825868e+16,2.5605082528617436e+16,803683409288390.5,878739709535483.1,23643481700698.68,44392564405142.586,621069598220428.9,1.3092260770641458e+16
23.561770118730532,1.0190929761460036e+16,2.6067057139261316e+16,807617054237270.1,883040719122737.0,24336505419199.516,45694958299404.77,639291780217237.0,1.3476146360505438e+16
24.133005521105144,1.0239873048108866e+16,2.653718094370647e+16,811495741858841.4,887281638897041.9,25044876744578.727,47026261888631.1,657918512277224.1,1.3868540863931308e+16
24.715665631527248,1.028812946402965e+16,2.7015626782234868e+16,815319995927577.2,891463041548356.9,25768877925083.13,48387010005178.16,676957281709603.9,1.4269601111089418e+16
25.309978944157795,1.0335705653211882e+16,2.7502570659458124e+16,819090342970430.0,895585502776170.8,26508796521788.945,49777747672465.625,696415718611636.1,1.467948689769372e+16
25.91617852304095,1.038260829599027e+16,2.7998191811299176e+16,822807312394653.1,899649601429265.4,27264925518373.453,51199030320004.734,716301598885688.5,1.5098361046760914e+16
26.53450209350177,1.0428844110314206e+16,2.8502672772806276e+16,826471436588421.4,903655919615735.1,28037563432924.402,52651424002610.46,736622847315210.8,1.5526389471537192e+16
27.165192135371807,1.0474419852697568e+16,2.9016199446834544e+16,830083250996085.6,907605042785265.4,28827014431796.133,54135505623834.43,757387540700110.4,1.596374123959993e+16
27.808495978079243,1.0519342318870004e+16,2.953896117362685e+16,833643294169790.2,911497559785581.8,29633588445524.22,55651863163648.44,778603911051972.9,1.6410588638140274e+16
28.464665897640828,1.056361834415122e+16,3.0071150801327108e+16,837152107799137.6,915334062894868.6,30457601286805.14,57201095910413.61,800280348849657.6,1.6867107240434956e+16
29.133959215593645,1.0607254803567646e+16,3.061296475745735e+16,840610236720446.1,919115147831900.0,31299374770554.95,58783814697170.695,822425406355745.4,1.73334759735139e+16
29.816638399905518,1.0650258611731262e+16,3.116460312138847e+16,844018228907112.0,922841413745508.2,32159236836055.23,60400642142287.76,845047800994398.2,1.7809877187031898e+16
30.51297116790363,1.0692636722497776e+16,3.1726269697834148e+16,847376635442560.5,926513463184990.2,33037521671197.902,62052212894505.0,868156418791157.6,1.8296496723351984e+16
31.223230591261704,1.0734396128422246e+16,3.2298172091397732e+16,850686010477078.9,930131902052928.4,33934569838841.05,63739173882411.984,891760317875234.8,1.8793523988848996e+16
31.947695203086937,1.0775543860028314e+16,3.2880521782200216e+16,853946911169912.0,933697339541874.1,34850728405285.84,65462184568401.945,915868732044940.2,1.9301152026441492e+16
32.686649107148675,1.0816086984906976e+16,3.3473534202616844e+16,857159897617845.1,937210388056244.8,35786351070888.15,67221917207142.14,940491074396749.4,1.9819577589360956e+16
33.44038208929165,1.0856032606659846e+16,3.4077428815149416e+16,860325532771450.1,940671663120771.0,36741798302815.85,69019057108604.8,965636941018746.0,2.034900121616719e+16
34.20918973107749,1.089538786370136e+16,3.4692429191461988e+16,863444382340168.9,944081783276709.0,37717437469966.195,70854302905702.62,991316114748996.9,2.0889627307019024e+16
34.993373525699035,1.0934159927933734e+16,3.531876309260472e+16,866517014687309.2,947441369967013.1,38713642980053.336,72728366826574.14,1017538568999564.2,2.144166420121049e+16
35.793240996213015,1.0972356003307588e+16,3.5956662550453572e+16,869544000715960.9,950751047411625.0,39730796418882.52,74641974971568.89,1044314471646830.1,2.2005324255981116e+16
36.60910581613728,1.1009983324280824e+16,3.6606363950388616e+16,872525913746880.1,954011442473927.5,40769286691822.18,76595867594975.6,1071654188988840.8,2.2580823926611372e+16
37.44128793246003,1.1047049154187644e+16,3.726810811523905e+16,875463329389226.9,957223184519434.4,41829510167489.98,78590799391552.45,1099568289770394.0,2.3168383847813276e+16
38.29011369110923,1.1083560783529064e+16,3.7942140390516184e+16,878356825405098.1,960386905267651.5,42911870823663.53,80627539787899.52,1128067549276594.5,2.376822891642624e+16
39.15591596493141,1.1119525528195662e+16,3.862871073096213e+16,881206981568670.9,963503238638080.4,44016780395434.03,82706873238736.81,1157162953495707.5,2.4380588375429692e+16
40.03903428423004,1.1154950727632686e+16,3.93280737884332e+16,884014379520806.2,966572820591229.5,45144658525615.02,84829599528135.95,1186865703351996.0,2.5005695899282684e+16
40.93981496991464,1.1189843742957634e+16,4.0040489001147816e+16,886779602619850.1,969596288965496.9,46295932917422.05,86996534075763.78,1217187219009465.0,2.5643789680602236e+16
41.85861126931294,1.1224211955038886e+16,4.0766220684315544e+16,889503235789391.0,972574283310694.5,47471039489437.016,89208508248193.12,1248139144247229.2,2.6295112518191724e+16
42.7957834946992,1.1258062762544944e+16,4.150553812217417e+16,892185865363643.1,975507444719011.5,48670422532874.24,91466369675341.1,1279733350907448.5,2.695991190643093e+16
43.751699164593184,1.1291403579971934e+16,4.22587156614561e+16,894828078931146.2,978396415654087.1,49894534871162.1,93770982572094.66,1311981943416609.2,2.7638440126039e+16
44.72673314788505,1.1324241835657402e+16,4.302603280630558e+16,897430465177341.9,981241839778918.5,51143838021855.26,96123228065180.98,1344897263381124.5,2.8330954336223764e+16
