t(s),Total solute volume 1,Total retention volume 1,Total 1 volume 1,Total 2 volume 1,Total 3 volume 1,Total 4 volume 1,Total 5 volume 1,Total 6 volume 1
0.1,878184692305091.0,1002349173156223.1,60489917771387.09,63674563079745.664,0.0,0.0,0.0,0.0
0.202,1201101512160464.5,1618924475351839.5,82732632997910.38,87088302952009.78,520224706881.4051,920798775806.9092,11801068558732.547,234759935200032.03
0.30604000000000003,1388032788589883.5,2163058949436902.5,95608577766236.38,100642134683263.92,1213934049622.4924,2149204089319.6562,27545001915169.11,547867308343408.0
0.41216080000000005,1512402583209269.8,2681410659506381.5,104175248025791.89,109659819154932.56,2003175558742.689,3547419184599.941,45465903055454.8,904156511317589.5
0.5204040160000001,1601599956935597.5,3189901546609195.0,110319219649106.55,116127255843826.2,2855749848961.0933,5058558544841.688,64834808055043.74,1289105997731813.8
0.6308120963200001,1668789628100453.2,3695849082929331.0,114947286775955.53,120998979379075.8,3755469388636.337,6654052157090.8545,85285629686755.9,1695418037441367.0
0.7434283382464002,1721224203587822.2,4203232903811897.0,118559013563545.45,124800854746131.52,4693301931212.222,8317984498150.114,106614454698650.81,2119023090786383.5
0.8582969050113283,1763266237160647.5,4714477278473870.0,121454895479054.44,127849197761887.72,5663872785052.896,10040909851171.68,128700284953002.05,2557501880483046.5
0.9754628431115548,1797709254100202.0,5231189822508168.0,123827352313779.62,130346558648025.05,6663850935591.363,11816998771188.105,151468468530803.06,3009357339208582.0
1.094972099973786,1826428886280515.8,5754511608802211.0,125805578779592.08,132428933901396.19,7691124165676.012,13642579666803.312,174872009730422.7,3473642496277808.0
1.2168715419732616,1850732550623967.2,6285299913360398.0,127479630582494.47,134191120440286.31,8744344992868.85,15515336055424.68,198881281737799.72,3949755648927547.5
1.3412089728127268,1871559845835377.0,6824230851666906.0,128914227876625.47,135701245776417.31,9822666048339.854,17433838785791.498,223478032012484.3,4437320995331868.5
1.4680331522689813,1889603449714440.5,7371860451797310.0,130157082747733.86,137009533920007.6,10925578647193.207,19397260723481.586,248651725999108.44,4936115820045345.0
1.597393815314361,1905385172268421.5,7928662741906064.0,131244137799764.83,138153819765096.0,12052810530681.322,21405196066455.92,274397231711433.1,5446024373764204.0
1.729341691620648,1919305497978901.8,8495054448136314.0,132202978657581.88,139163141252165.69,13204259006356.81,23457542255104.004,300713306490860.0,5967007722495348.0
1.863928525453061,1931676829659425.0,9071411548465758.0,133055123824943.8,140060149781531.6,14379946033506.967,25554420690782.39,327601581114483.56,6499083497361081.0
2.001207095962122,1942746373277229.0,9658080688608310.0,133817601005525.06,140862769523798.4,15579987336512.256,27696122263996.945,355065861853207.4,7042311973348031.0
2.1412312378813647,1952712246994758.5,1.0255387253219784e+16,134504056703902.34,141585365438620.06,16804570726824.193,29883069171159.227,383111641279810.44,7596786302904710.0
2.284055862638992,1961735045746238.8,1.086364119969076e+16,135125552800914.83,142239581787801.44,18053940612861.402,32115787679027.613,411745749381891.75,8162625541682035.0
2.4297369798917723,1969946289758928.0,1.1483141359090142e+16,135691148493163.83,142834954712486.62,19328386755091.875,34394888401951.53,440976100960719.94,8739969590007805.0
2.578331719489608,1977454694025115.0,1.2114178664566322e+16,136208332138213.28,143379366813952.06,20628235987971.973,36721051831810.01,470811510352091.56,9328975473417178.0
2.7298983538794,1984350886878596.0,1.2757038615055168e+16,136683346273129.48,143879389283576.8,21953846050224.344,39095017602835.91,501261554018182.7,9929814574948610.0
2.884496320956988,1990711007063507.8,1.3412003184531374e+16,137121435382861.45,144340542715619.12,23305600936161.555,41517576453100.26,532336467705367.2,1.0542670554274782e+16
3.0421862473761276,1996599478019554.8,1.4079352323101492e+16,137527036994765.03,144767498262402.9,24683907359541.637,43989564160551.91,564047068914254.6,1.1167737769390436e+16
3.2030299723236504,2002071170549134.2,1.475936515348677e+16,137903930644484.1,145164234442885.28,26089192041443.02,46511856943710.4,596404698147553.8,1.180522007071755e+16
3.3670905717701234,2007173105327018.0,1.5452320937328918e+16,138255355145896.66,145534160586578.03,27521899615541.1,49085367961917.82,629421174257314.0,1.2455329874434666e+16
3.5344323832055258,2011945805349325.0,1.6158499865579174e+16,138584101748658.61,145880214895611.62,28982491000909.465,51711044650408.58,663108760498983.4,1.3118287447435268e+16
3.7051210308696363,2016424379339829.0,1.6878183713042734e+16,138892588763914.05,146204942999300.9,30471442132335.51,54389866695949.945,697480138803330.1,1.3794320354308066e+16
3.879223451487029,2020639396413323.0,1.7611656387024566e+16,139182921811664.75,146510561373397.25,31989242966511.31,57122844508991.32,732548390420285.1,1.448366302953041e+16
4.0568079205167695,2024617597350027.8,1.835920439270226e+16,139456942813800.55,146799008912477.9,33536396702893.13,59911018084401.625,768326981552039.5,1.5186556447286616e+16
4.237944078927105,2028382476928423.0,1.9121117232495604e+16,139716270105554.05,147071989153171.6,35113419172903.723,62755456169194.86,804829752930011.5,1.5903247868036336e+16
4.422702960505647,2031954763719461.8,1.98976877527393e+16,139962331484030.34,147331005062613.4,36720838362097.1,65657255675017.64,842070912538583.8,1.6633990645897494e+16
4.61115701971576,2035352817752347.0,2.0689212448000904e+16,140196391599677.36,147577387872008.94,38359194038038.52,68617541287560.85,880065030873010.5,1.7379044084578274e+16
4.803380160110075,2038592961955552.8,2.1495991731148452e+16,140419574786154.86,147812321108437.84,40029037462747.21,71637465235848.3,918827038257052.9,1.8138673332342636e+16
4.9994477633122765,2041689759858574.5,2.231833017556804e+16,140632884188604.48,148036860730185.06,41730931173153.91,74718207192518.12,958372223850672.5,1.8913149308574348e+16
5.199436718578522,2044656249425419.5,2.315653673461995e+16,140837217870250.75,148251952081310.2,43465448816538.23,77860974282422.88,998716236057639.8,1.9702748656086344e+16
5.403425452950093,2047504140875961.8,2.4010924942407564e+16,141033382438461.25,148458444235088.72,45233175030601.85,81067001181664.48,1039875084104300.2,2.05077537145415e+16
5.611493962009095,2050243984786863.0,2.488181309914096e+16,141222104623643.88,148657102182510.1,47034705359914.695,84337550292856.38,1081865140607989.9,2.1328452511287188e+16
5.823723841249277,2052885315540862.5,2.5769524443753492e+16,141404041160124.75,148848617233359.62,48870646202090.555,87673911985302.69,1124703144990573.2,2.216513876664115e+16
6.040198318074262,2055436774231018.0,2.667438731593647e+16,141579787251869.97,149033615927639.06,50741614778318.414,91077404891019.4,1168406207621429.0,2.301811191123516e+16
6.261002284435747,2057906214364620.5,2.759673530936476e+16,141749883853440.84,149212667699846.34,52648239123868.4,94549376249320.48,1212991814597061.2,2.3887677113476544e+16
6.486222330124463,2060300793104947.2,2.8536907417569704e+16,141914823954779.25,149386291494640.44,54591158094983.27,98091202294083.73,1258477833082617.0,2.477414531554364e+16
6.715946776726952,2062627050303056.8,2.9495248173663616e+16,142075058024972.38,149554961497205.75,56571021389194.75,101704288678953.73,1304882517155048.5,2.56778332766152e+16
6.950265712261491,2064890977180880.2,3.0472107784910716e+16,142230998743183.62,149719112113256.12,58588489576603.5,105390070936631.06,1352224514099207.8,2.659906362226093e+16
7.18927102650672,2067098076210269.5,3.146784226297531e+16,142383025123162.4,149879142310690.6,60644234140065.305,109150014969129.48,1400522871117577.0,2.7538164899104452e+16
7.433056447036854,2069253413475493.8,3.2482813550536764e+16,142531486120004.22,150035419416237.1,62738937522549.27,112985617566472.1,1449797042421869.5,2.8495471634014132e+16
7.681717575977592,2071361664596455.8,3.3517389644848516e+16,142676703793371.12,150188282445214.47,64873293180198.5,116898406951779.86,1500066896681010.2,2.9471324397200456e+16
7.935351927497144,2073427155117583.2,3.4571944718723736e+16,142818976089505.47,150338045030006.12,67048005639830.484,120889943351093.92,1551352724804969.0,3.0466069868690764e+16
8.194058966047088,2075453896125232.2,3.5646859239352736e+16,142958579294577.16,150484998002575.1,69263790559796.055,124961819586604.9,1603675248048138.2,3.1480060907735796e+16
8.45794014536803,2077445615739064.8,3.674252008528979e+16,143095770203832.75,150629411677810.53,71521374793246.94,129115661692222.97,1657055626419471.5,3.2513656624764136e+16
8.72709894827539,2079405787025303.0,3.785932066189316e+16,143230788044274.2,150771537877431.38,73821496452982.92,133353129550646.64,1711515467389349.2,3.356722245555315e+16
9.0016409272409,2081337652798347.5,3.8997661015454264e+16,143363856183012.94,150911611728282.75,76164904977144.23,137675917551275.14,1767076834885655.2,3.4641130237330496e+16
9.281673745785717,2083244247709433.0,4.015794794621326e+16,143495183648749.78,151049853263917.03,78552361195084.81,142085755268461.72,1823762258573518.2,3.5735758286554036e+16
9.567307220701432,2085128417963845.5,4.1340595120423096e+16,143624966489909.06,151186468854227.5,80984637392832.28,146584408159738.84,1881594743414863.2,3.6851491478147704e+16
9.85865336511546,2086992838960064.2,4.254602318159547e+16,143753388989633.44,151321652484415.94,83462517377586.11,151173678283752.28,1940597779505453.2,3.7988721325994504e+16
10.155826432417769,2088840031103825.0,4.377465986103572e+16,143880624755067.16,151455586901618.7,85986796540750.84,155855405037744.47,2000795352188240.5,3.914784606450858e+16
10.458942961066125,2090672374015487.0,4.502694008775523e+16,144006837695968.9,151588444645042.84,88558281919031.36,160631465914493.5,2062211952443039.0,4.032927073112213e+16
10.768121820287448,2092492119320007.2,4.630330609782294e+16,144132182905693.53,151720388973329.1,91177792253143.9,165503777278700.53,2124872587553329.2,4.153340724953874e+16
11.083484256693197,2094301402183856.8,4.7604207543211144e+16,144256807455860.5,151851574701059.16,93846158043724.31,170474295162862.88,2188802792051932.5,4.276067451361188e+16
11.405153941827061,2096102251741899.2,4.893010160016491e+16,144380851114565.6,151982148954777.03,96564221604021.39,175545016082734.03,2254028638947905.0,4.401149847171907e+16
11.733257020663602,2097896600539094.5,5.028145307711892e+16,144504446996729.56,152112251857579.8,99332837108984.47,180717977872511.3,2320576751237743.0,4.528631221150629e+16
12.067922161076874,2099686293096152.2,5.165873452216817e+16,144627722154109.1,152242017150188.22,102152870640362.17,185995260539925.75,2388474313704441.0,4.658555604488299e+16
12.409280604298411,2101473093694795.5,5.3062426330092184e+16,144750798111547.25,152371572755431.66,105025200227429.78,191378987141465.62,2457749085008513.0,4.7909677593152984e+16
12.75746621638438,2103258693466658.0,5.4493016848916776e+16,144873791355262.47,152501041292242.9,107950715882978.61,196871324677973.78,2528429410075540.0,4.925913187216612e+16
13.112615540712067,2105044716859721.8,5.595100248599469e+16,144996813778260.84,152630540544522.47,110930319634191.84,202474485010891.44,2600544232785210.5,5.063438137738189e+16
13.474867851526309,2106832727547528.5,5.743688781357096e+16,145119973087367.72,152760183889595.84,113964925548037.69,208190725799467.7,2674123108967245.0,5.203589616873182e+16
13.844365208556836,2108624233838731.8,5.895118567379575e+16,145243373175838.84,152890080690444.72,117055459750812.64,214022351459245.7,2749196219709805.5,5.346415395517093e+16
14.221252512727972,2110420693638017.5,6.049441728313749e+16,145367114465073.0,153020336655409.62,120202860441455.53,219971714142182.38,2825794384986635.0,5.491964017880879e+16
14.605677562982532,2112223519003552.8,6.2067112336141224e+16,145491294218531.28,153151054168635.2,123408077898262.45,226041214738768.06,2903949077609103.0,5.640284809850447e+16
14.997791114242183,2114034080341197.5,6.366980910847192e+16,145616006830638.3,153282332594181.44,126672074478618.8,232233303902529.2,2983692437509940.5,5.791427887281483e+16
15.397746936527026,2115853710271198.5,6.5303054559173816e+16,145741344093121.44,153414268556385.53,129995824611364.17,238550483097320.6,3065057286365538.5,5.945444164217892e+16
15.805701875257567,2117683707199181.8,6.696740443207135e+16,145867395440982.28,153546956198783.1,133380314781402.27,244995305667825.9,3148077142564073.5,6.1023853610219096e+16
16.221815912762718,2119525338620024.0,6.8663423356229896e+16,145994248180071.28,153680487423664.97,136826543506154.69,251570377933697.88,3232786236526912.5,6.262304012403945e+16
16.64625223101797,2121379844179917.2,7.039168494538962e+16,146121987698004.25,153814952114094.56,140335521303459.23,258278360307785.62,3319219526391108.5,6.425253475339517e+16
17.079177275638333,2123248438519514.8,7.215277189627754e+16,146250697659998.47,153950438340059.66,143908270650503.9,265121968438918.03,3407412714060859.5,6.591287936860784e+16
17.5207608211511,2125132313918550.0,7.394727608569864e+16,146380460191038.1,154087032550222.72,147545825933373.6,272103974379705.12,3497402261636205.5,6.760462421708947e+16
17.97117603757412,2127032642760376.8,7.577579866629754e+16,146511356045631.0,154224819750619.72,151249233386791.3,279227207779854.9,3589225408227552.5,6.932832799834681e+16
18.430599558325603,2128950579832883.0,7.763895016088331e+16,146643464766298.84,154363883671490.34,155019551023618.03,286494557105496.44,3682920187164499.5,7.108455793731906e+16
18.899211549492115,2130887264480724.8,7.953735055519062e+16,146776864831823.34,154504306923333.47,158857848553671.53,293908970885021.25,3778525443608120.5,7.287388985590782e+16
19.37719578048196,2132843822622347.2,8.147162938896066e+16,146911633796181.0,154646171143151.25,162765207291421.06,301473458981955.0,3876080852575671.5,7.469690824254994e+16
19.864739696091597,2134821368643884.8,8.344242584520619e+16,147047848418994.2,154789557131773.44,166742720052091.28,309191093895410.94,3975626937387364.0,7.655420631967664e+16
20.36203449001343,2136821007181009.2,8.545038883752286e+16,147185584788268.4,154934544983051.44,170791491035723.3,317065012088627.5,4077205088544483.5,7.844638610890174e+16
20.869275179813698,2138843834798630.5,8.749617709530643e+16,147324918436089.22,155081214205650.2,174912635698717.6,325098415346176.6,4180857583048995.5,8.037405849377216e+16
21.38666068340997,2140890941577521.8,8.958045924672176e+16,147465924447910.7,155229643838090.53,179107280612378.03,333294572160371.7,4286627604174495.0,8.233784327991091e+16
21.91439389707817,2142963412616089.2,9.170391389927029e+16,147608677565998.75,155379912557634.38,183376563307975.1,341656819147458.56,4394559261698851.0,8.43383692523762e+16
22.452681775019734,2145062329454763.5,9.386722971779174e+16,147753252287544.47,155532098783566.28,187721632107830.78,350188562494147.1,4504697612609013.0,8.63762742300547e+16
23.00173541052013,2147188771429804.5,9.607110549972933e+16,147899722957911.38,155686280775353.97,192143645941933.0,358893279435077.25,4617088682288630.0,8.845220511690038e+16
23.561770118730532,2149343816962735.5,9.831625024748293e+16,148048163859459.38,155842536726138.53,196643774149564.56,367774519761802.25,4731779486199413.0,9.056681794982395e+16
24.133005521105144,2151528544791110.8,1.0060338323766854e+17,148198649296313.2,156000944851976.2,201223196265445.4,376835907363872.94,4848818052067449.0,9.272077794303234e+16
24.715665631527248,2153744035145770.0,1.0293323408708947e+17,148351253675457.75,156161583477196.9,205883101789860.47,386081141802636.75,4968253442585498.0,9.4914759528613e+16
25.309978944157795,2155991370879329.5,1.0530654281522912e+17,148506051584467.5,156324531116228.34,210624689942263.66,395513999918346.4,5090135778643075.0,9.714944639314531e+16
25.91617852304095,2158271638550305.8,1.0772405990305458e+17,148663117866182.03,156489866552200.78,215449169397821.28,405138337471178.7,5214516263095898.0,9.942553151012085e+16
26.53450209350177,2160585929466840.0,1.101865463479247e+17,148822527690596.25,156657668912626.6,220357758006379.66,414958090816796.44,5341447205086492.0,1.0174371716794493e+17
27.165192135371807,2162935340693665.2,1.126947737143817e+17,148984356624224.38,156828017742412.25,225351682493306.53,424977278617038.0,5470982044928189.0,1.041047149932828e+17
27.808495978079243,2165320976025793.0,1.1524952418060352e+17,149148680697166.9,157000993074453.53,230432178141697.88,435200003586376.8,5603175379564538.0,1.065092459695135e+17
28.464665897640828,2167743946931911.8,1.1785159058028122e+17,149315576468090.7,157176675498046.03,235600488455394.44,445630454274746.3,5738082988616932.0,1.0895804045003622e+17
29.133959215593645,2170205373470493.2,1.205017764396842e+17,149485121087332.9,157355146225301.28,240857864802293.9,456272906887353.3,5875761861032458.0,1.1145183816617886e+17
29.816638399905518,2172706385181144.8,1.2320089600966378e+17,149657392358296.9,157536487155782.4,246205566037411.38,467131727142098.5,6016270222345267.0,1.1399138822944365e+17
30.51297116790363,2175248121953761.5,1.259497742923415e+17,149832468797321.06,157720780939519.44,251644858105173.4,478211372165204.9,6159667562563714.0,1.1657744912781674e+17
31.223230591261704,2177831734877681.0,1.2874924706222085e+17,150010429692168.12,157908111038581.2,257177013620414.44,489516392425668.8,6306014664697042.0,1.1921078871586944e+17
31.947695203086937,2180458387072972.0,1.316001608814499e+17,150191355159285.47,158098561787349.44,262803311427556.94,501051433709124.6,6455373633933764.0,1.2189218419835982e+17
32.686649107148675,2183129254505810.0,1.3450337310896011e+17,150375326199968.12,158292218451638.62,268525036137469.8,512821239131738.5,6607807927485776.0,1.2462242210704758e+17
33.44038208929165,2185845526789746.2,1.3745975190319658e+17,150562424755551.25,158489167286793.8,274343477641493.44,524830651194683.56,6763382385110898.0,1.2740229827041728e+17
34.20918973107749,2188608407974588.2,1.4047017621814699e+17,150752733761747.5,158689495594890.03,280259930602151.34,537084613879804.8,6922163260327643.0,1.3023261777600638e+17
34.993373525699035,2191419117324364.8,1.4353553579237109e+17,150946337202236.53,158893291781141.16,286275693920054.8,549588174787005.44,7084218252335071.0,1.3311419492502122e+17
35.793240996213015,2194278890085997.8,1.46656731130721e+17,151143320161608.6,159100645409631.84,292392070176548.94,562346487313929.8,7249616538651827.0,1.360478531789213e+17
36.60910581613728,2197188978249884.8,1.498346734784436e+17,151343768877755.16,159311647258467.47,298610365051646.7,575364812878448.0,7418428808487048.0,1.3903442509764022e+17
37.44128793246003,2200150651303767.8,1.5307028478734035e+17,151547770793795.72,159526389374432.22,304931886716811.7,588648523184466.5,7590727296857192.0,1.4207475226911026e+17
38.29011369110923,2203165196981016.0,1.563644976736577e+17,151755414609621.34,159744965127249.53,311357945202203.06,602203102531550.1,7766585819461553.0,1.4516968522974442e+17
39.15591596493141,2206233922004520.2,1.5971825536737066e+17,151966790333132.2,159967469263513.2,317889851737974.2,616034150168820.5,7946079808330158.0,1.4832008337553274e+17
40.03903428423004,2209358152827107.8,1.631325116525264e+17,152181989331238.34,160193997960378.12,324528918069283.94,630147382693549.6,8129286348257002.0,1.515268148633877e+17
40.93981496991464,2212539236369561.0,1.6660823079828765e+17,152401104380697.66,160424648879070.53,331276455744683.6,644548636494886.2,8316284214031511.0,1.5479075650238768e+17
41.85861126931294,2215778540757131.2,1.70146387480336e+17,152624229718843.22,160659521218286.4,338133775377584.25,659243870243045.5,8507153908481202.0,1.581127936345394e+17
42.7957834946992,2219077456055324.5,1.7374796669225642e+17,152851461094268.8,160898715767547.72,345102185880542.44,674239167424312.2,8701977701337964.0,1.6149382000469658e+17
