t(s),Total solute volume 1,Total retention volume 1,Total 1 volume 1,Total 2 volume 1,Total 3 volume 1,Total 4 volume 1,Total 5 volume 1,Total 6 volume 1
0.1,803801399340899.0,888695292650996.4,42833262785020.44,42060630525076.21,0.0,0.0,0.0,0.0
0.202,1211234565729972.5,1339161181046883.0,64544710347351.78,63380444154281.195,4422794.062645302,7030981.084382756,76753602.64562343,1372607901.7759783
0.30604000000000003,1521492603910340.5,1682189525516537.5,81077854118925.53,79615360864022.84,11222200.103303196,17840098.18080032,194751309.16979185,3482809643.4820905
0.41216080000000005,1783917734697900.2,1972333697451432.5,95062060430326.62,93347318182667.56,19934158.430223484,31689628.38269081,345939708.9469385,6186577041.492572
0.5204040160000001,2016968546605152.8,2230001730583394.0,107480957297216.44,105542201317116.47,30352785.75633983,48252275.93955845,526745869.302355,9420012978.871702
0.6308120963200001,2229839653555292.0,2465359296195732.5,118824510668441.47,116681138145832.78,42367675.22536428,67352525.4362129,735253773.1058619,13148852196.8893
0.7434283382464002,2427874541992992.5,2684314214930335.0,129377466203410.42,127043738048139.5,55915727.65115202,88890067.1749384,970368388.0328486,17353511612.384926
0.8582969050113283,2614496133944603.0,2890650910712582.5,139322225822541.39,136809112754241.92,70961364.2527134,112808341.06073953,1231472274.9629192,22022949210.00211
0.9754628431115548,2792049936739763.5,3086962606940026.0,148783777777952.66,146099995961425.0,87486778.47208336,139079039.76943693,1518256416.4913113,27151638644.912743
1.094972099973786,2962224830993391.0,3275116554418264.0,157852119757312.8,155004761966993.16,105486537.99972412,167693527.50645435,1830626539.667869,32737893958.58645
1.2168715419732616,3126284060475808.5,3456509416272433.0,166594567956496.97,163589512708240.6,124964341.53998144,198657684.1883319,2168646832.433013,38782863028.77615
1.3412089728127268,3285201461636936.5,3632217884738541.0,175063016528280.5,171905206264242.7,145930949.88949305,231988616.4471892,2532504039.257996,45289885472.57355
1.4680331522689813,3439746441395227.5,3803092633468601.5,183298465909826.88,179992103500762.72,168402804.84111083,267712462.0817409,2922483493.4102726,52264064018.77854
1.597393815314361,3590539431386437.0,3969819628292744.0,191333977888968.16,187882669832658.53,192401074.39565867,305862872.21627617,3338952547.426605,59711968186.43346
1.729341691620648,3738089444517685.0,4132961650103838.0,199196676931591.12,195603540451052.12,217950974.54655626,346479933.1316588,3782348803.271,67641423798.672165
1.863928525453061,3882820313639163.0,4292987304577353.5,206909148397567.66,203176893318054.38,245081277.41404212,389609384.3391025,4253171576.4300556,76061360330.76656
2.001207095962122,4025089514206203.0,4450291832694737.0,214490441571117.88,210621434107489.84,273823949.0806691,435302043.3201143,4751975701.094994,84981708224.15797
2.1412312378813647,4165201977982315.5,4605212383234780.0,221956805764511.25,217953119017834.56,304213879.83987135,483613374.7888314,5279366488.416484,94413276369.75424
2.284055862638992,4303420433426228.0,4758039445295725.0,229322241349479.0,225185695883609.94,336288682.9624094,534603173.650003,5835996774.350753,104367747789.08942
2.4297369798917723,4439973282204778.0,4909025556575649.0,236598919477542.8,232331116311464.66,370088543.71086645,588335323.0688661,6422563939.668629,114857594049.88344
2.578331719489608,4575060691942195.0,5058392039589689.0,243797506754240.2,239399854501265.06,405656107.45822155,644877617.0881559,7039808058.256254,125896050220.45172
2.7298983538794,4708859374450811.0,5206334284529296.0,250927419863232.22,246401157277261.56,443036397.9003062,704301630.6094097,7688510477.764699,137497089486.75558
2.884496320956988,4841526379556937.0,5353025943755513.0,257997027733074.6,253343242608148.3,482276759.09086585,766682627.2454273,8369492813.680253,149675405162.78726
3.0421862473761276,4973202141055411.0,5498622299440962.0,265013813851168.84,260233458993170.62,523426816.59545946,832099497.5662693,9083616275.186083,162446398634.54608
3.2030299723236504,5104012947050175.0,5643262994808900.0,271984507904167.72,267078414727985.62,566538454.221085,900634722.1061898,9831781261.326986,175826172137.97977
3.3670905717701234,5234072961991298.0,5787074269725283.0,278915193529021.75,273884083712080.97,611665803.6200281,972374354.8369813,10614927180.595678,189831525532.49094
3.5344323832055258,5363485895772449.0,5930170806078957.0,285811397256461.44,280655892787879.53,658865244.6860452,1047408023.7980131,11434032457.810438,204479956423.86115
3.7051210308696363,5492346392204909.0,6072657262903202.0,292678162500500.44,287398794395612.7,708195415.1232222,1125828946.3082435,12290114700.17705,219789663133.9489
3.879223451487029,5620741192327066.0,6214629562554665.0,299520111549306.2,294117327445991.1,759717227.9171777,1207733956.7407358,13184231000.489376,235779550122.90305
4.0568079205167695,5748750115525399.0,6356175975463714.0,306341497847524.0,300815668659452.4,813493895.7053465,1293223545.2647433,14117478360.057209,252469235552.51642
4.237944078927105,5876446892088912.0,6497378040629853.0,313146250361751.5,307497676131364.9,869590961.249315,1382401906.288317,15090994217.53059,269879060743.37524
4.422702960505647,6003899873737428.0,6638311351204499.0,319938011443420.9,314166926511935.1,928076333.3732861,1475376995.5905466,16105957072.5839,288030101328.4285
4.61115701971576,6131172643246173.0,6779046228515067.0,326720169314705.4,320826746906126.8,989020327.85959,1572260595.3341053,17163587195.625591,306944179944.9991
4.803380160110075,6258324540108907.0,6919648303261117.0,333495886080241.56,327480242380107.5,1052495712.893062,1673168386.3091822,18265147416.44978,326643880338.5385
4.9994477633122765,6385411115924926.0,7060179019013774.0,340268121993960.7,334130319790349.4,1118577758.7269692,1778220026.888523,19411943986.149155,347152562776.55334
5.199436718578522,6512484530641077.0,7200696070324823.0,347039656574179.7,340779708517843.6,1187344291.308579,1887539238.2771876,20605327507.744328,368494380691.41455
5.403425452950093,6639593898758662.0,7341253785517242.0,353813107052402.2,347430978584116.5,1258875749.6557431,2001253895.7253616,21846693931.909283,390694298487.3136
5.611493962009095,6766785593005466.0,7481903462449928.0,360590944555496.94,354086556541520.3,1333255246.8196144,2119496125.4421182,23137485614.93113,413778110460.1667
5.823723841249277,6894103511682992.0,7622693664122224.0,367375508352202.3,360748739462749.4,1410568634.3048885,2242402407.005684,24479192436.671833,437772460790.5846
6.040198318074262,7021589314857532.0,7763670479832748.0,374169018439364.4,367419707300044.7,1490904569.8490274,2370113681.1136055,25873352976.82391,462704864579.31055
6.261002284435747,7149282633718829.0,7904877756673186.0,380973586698309.2,374101533840333.56,1574354588.487466,2502775462.556563,27321555748.190212,488603729902.45734
6.486222330124463,7277221256739808.0,8046357305373726.0,387791226814996.8,380796196446436.8,1661013176.8530588,2640537958.3339534,28825440486.092445,515498380870.52246
6.715946776726952,7405441295705318.0,8188149083892833.0,394623863127421.25,387505584744882.94,1750977850.6765273,2783556190.8579507,30386699493.330082,543419081680.81494
6.950265712261491,7533977334210944.0,8330291361626260.0,401473338538865.94,394231508396413.7,1844349235.470243,2931990126.2183886,32007079040.383663,572397061657.8605
7.18927102650672,7662862560845416.0,8472820866683498.0,408341421614982.56,400975704065057.56,1941231150.391411,3086004807.5018654,33688380820.79499,602464541280.5378
7.433056447036854,7792128888949393.0,8615772918323519.0,415229812965533.94,407739841684749.94,2041730695.2926111,3245770493.1779547,35432463461.859955,633654759198.4045
7.681717575977592,7921807064572550.0,8759181546343713.0,422140150997255.9,414525530108424.6,2145958340.9780638,3411462800.5816092,37241244090.95572,666002000242.9469
7.935351927497144,8051926764026311.0,8903079598966536.0,429074017112280.2,421334322212668.4,2254028022.693367,3583262854.5358872,39116699957.98197,699541624442.336
8.194058966047088,8182516682237881.0,9047498840557164.0,436032940416380.56,428167719521038.06,2366057236.884784,3761357441.1724014,41060870114.54171,734310097050.9056
8.45794014536803,8313604612950917.0,9192470040327430.0,443018401992727.1,435027176400727.56,2482167141.271558,3945939167.018573,43075857150.619736,770345019606.8209
8.72709894827539,8445217521680370.0,9338023053030310.0,450031838789539.5,441914103880090.5,2602482658.2818213,4137206623.432004,45163828989.6309,807685162033.6654
9.0016409272409,8577381612213352.0,9484186892519282.0,457074647163808.25,448829873128440.9,2727132581.9086742,4335364556.472119,47327020742.82527,846370495803.4802
9.281673745785717,8710122387347451.0,9630989798938236.0,464148186117931.5,455775818634308.9,2856249688.049063,4540624042.308402,49567736624.13298,886442228180.6957
9.567307220701432,8843464704472487.0,9778459300210948.0,471253780261586.06,462753241113885.8,2989970848.393412,4753202668.273435,51888351926.63116,927942837568.0486
9.85865336511546,8977432826528623.0,9926622268420222.0,478392722527198.94,469763410177506.3,3128437147.9391155,4973324719.676817,54291315061.90045,970916109977.1837
10.155826432417769,9112050468809658.0,1.0075504971594088e+16,485566276664014.2,476807566778737.9,3271794006.205936,5201221372.504158,56779149663.62287,1015407176648.1282
10.458942961066125,9247340842025742.0,1.0225133121358088e+16,492775679532842.4,483886925467727.5,3420191302.235729,5437130892.132189,59354456756.85887,1061462552843.2772
10.768121820287448,9383326691992112.0,1.0375531916858296e+16,500022143221001.1,491002676467997.3,3573783503.4638486,5681298838.198696,62019916994.50947,1109130177842.9202
11.083484256693197,9520030336268876.0,1.052672608531456e+16,507306856994788.75,498155987593703.3,3732729798.5533905,5933978275.772279,64778292962.55416,1158459456170.6768
11.405153941827061,9657473698040608.0,1.0678739919523824e+16,514630989104885.25,505348006022460.5,3897194234.2880516,6195429992.974356,67632431555.72195,1209501300078.5093
11.733257020663602,9795678337493776.0,1.0831597312597718e+16,521995688458385.5,512579859937222.25,4067345856.6231976,6465922725.211491,70585266425.32506,1262308173322.2473
12.067922161076874,9934665480920576.0,1.0985321790188498e+16,529402086169708.3,519852660049213.7,4243358855.9990644,6745733386.183419,73639820501.05937,1316934136259.8687
12.409280604298411,1.0074456047755614e+16,1.1139936540430548e+16,536851297001334.3,527167501012680.6,4425412717.023746,7035147305.837682,76799208588.63913,1373434892305.9268
12.75746621638438,1.021507067572866e+16,1.1295464441800556e+16,544344420704152.94,534525462741055.1,4613692372.637693,7334458475.449119,80066640045.20631,1431867835776.8584
13.112615540712067,1.0356529744298964e+16,1.1451928089079264e+16,551882543266236.25,541927611633211.25,4808388362.875608,7643969800.007343,83445421534.52179,1492292101163.0164
13.474867851526309,1.0498853396518916e+16,1.1609349817578454e+16,559466738077926.75,549375001717535.0,5009696998.344954,7963993358.103005,86938959864.01334,1554768613864.5684
13.844365208556836,1.064206155946137e+16,1.1767751725781072e+16,567098067020368.2,556868675720807.8,5217820528.5450115,8294850669.508731,90550764905.82455,1619360142429.5464
14.221252512727972,1.0786173963330192e+16,1.192715569652752e+16,574777581483874.4,564409666068229.9,5432967315.153456,8636872970.657515,94284452604.07486,1686131352333.6543
14.605677562982532,1.0931210159363018e+16,1.2087583416868106e+16,582506323321945.6,571998995820205.0,5655352010.412121,8990401498.227064,98143748070.61021,1755148861342.4814
14.997791114242183,1.1077189536624254e+16,1.2249056396690268e+16,590285325746135.9,579637679551075.5,5885195740.746998,9355787781.0455,102132488771.5876,1826481296498.1443
15.397746936527026,1.1224131337776884e+16,1.2411595986218622e+16,598115614166499.9,587326724174412.9,6122726295.761422,9733393940.538841,106254627807.31456,1900199352773.4856
15.805701875257567,1.1372054673912978e+16,1.2575223392475998e+16,605998206981903.2,595067129719066.8,6368178322.745694,10123592999.94821,110514237287.81232,1976375853438.1384
16.221815912762718,1.1520978538515684e+16,1.2739959694786156e+16,613934116324016.9,602859890059735.9,6621793526.849417,10526769202.549284,114915511806.66057,2055085812182.044
16.64625223101797,1.167092182061725e+16,1.2905825859389544e+16,621924348758499.0,610705993605515.2,6883820877.067479,10943318339.113798,119462772015.72469,2136406497043.0378
17.079177275638333,1.1821903317212412e+16,1.30728427532377e+16,629969905946471.5,618606423949425.5,7154516818.193377,11373648084.857656,124160468303.4486,2220417496186.3423
17.5207608211511,1.1973941744978962e+16,1.3241031157023798e+16,638071785269106.1,626562160481737.5,7434145488.897543,11818178346.126083,129013184579.43613,2307200785584.774
17.97117603757412,1.2127055751352876e+16,1.3410411777501518e+16,646230980417789.1,634574178969499.8,7722978946.091561,12277341617.071943,134025642168.12256,2396840798649.656
18.430599558325603,1.2281263924998758e+16,1.3581005259137642e+16,654448481952070.5,642643452104411.2,8021297395.741956,12751583346.5867,139202703814.37033,2489424497863.155
18.899211549492115,1.2436584805711274e+16,1.3752832195137566e+16,662725277827306.5,650770950020956.4,8329389430.299913,13241362315.7495,144549377803.87973,2585041448463.6416
19.37719578048196,1.259303689377836e+16,1.3925913137878026e+16,671062353893600.8,658957640786333.6,8647552272.915789,13747151026.061905,150070822201.341,2683783894236.504
19.864739696091597,1.2750638658830402e+16,1.4100268608774114e+16,679460694367373.2,667204490863529.4,8976092028.608328,14269436098.739073,155772349209.28275,2785746835463.0493
20.36203449001343,1.2909408548195928e+16,1.427591910760243e+16,687921282276600.1,675512465548530.6,9315323942.559908,14808718685.32918,161659429650.57938,2891028109080.7075
20.869275179813698,1.3069364994776056e+16,1.4452885121295144e+16,696445099880457.1,683882529382376.9,9665572665.70887,15365514889.93364,167737697577.60065,2999728471107.516
21.38666068340997,1.3230526424446646e+16,1.4631187132214042e+16,705033129063748.4,692315646538496.8,10027172527.809317,15940356203.298285,174012955010.93964,3111951681383.7812
21.91439389707817,1.3392911262988664e+16,1.481084562590552e+16,713686351706224.6,700812781185354.0,10400467818.126192,16533789949.042948,180491176810.65427,3227804590682.9194
22.452681775019734,1.3556537942541446e+16,1.4991881098330732e+16,722405750026457.0,709374897824118.9,10785813073.930109,17146379742.290565,187178515682.86032,3347397230242.549
23.00173541052013,1.3721424907566254e+16,1.5174314062557042e+16,731192306899637.9,718002961600736.9,11183573376.951174,17778705960.948975,194081307324.44067,3470842903765.139
23.561770118730532,1.388759062029959e+16,1.5358165054887574e+16,740047006148172.5,726697938591279.8,11594124657.943712,18431366229.886787,201206075708.51306,3598258281935.3315
24.133005521105144,1.4055053565667788e+16,1.554345464039838e+16,748970832803559.8,735460796059104.4,12017854009.503931,19104975918.229977,208559538513.12204,3729763499498.123
24.715665631527248,1.4223832255624728e+16,1.5730203417840402e+16,757964773337564.9,744292502681841.0,12455160007.272366,19800168649.986855,216148612695.42764,3865482254938.421
25.309978944157795,1.439394523286714e+16,1.5918432023856026e+16,767029815860178.9,753194028745808.8,12906453039.635857,20517596828.18692,223980420213.4085,4005541912798.112
25.91617852304095,1.4565411073869918e+16,1.6108161136446528e+16,776166950281374.4,762166346304829.1,13372155646.029085,21257932172.68901,232062293896.78226,4150073608661.02
26.53450209350177,1.4738248391175262e+16,1.6299411477617816e+16,785377168433098.6,771210429300025.6,13852702863.91235,22021866271.783638,240401783468.50754,4299212356830.01
27.165192135371807,1.4912475834858706e+16,1.6492203815118742e+16,794661464147380.8,780327253636527.9,14348542584.479656,22810111147.674072,249006661717.777,4453097160712.747
27.808495978079243,1.5088112093083416e+16,1.6686558963174288e+16,804020833285882.4,789517797212479.2,14860135917.12184,23623399835.875477,257884930824.95132,4611871125923.72
28.464665897640828,1.5265175891644986e+16,1.6882497782105296e+16,813456273715623.9,798783039895212.9,15387957562.637735,24462486978.5217,267044828838.29913,4775681576100.519
29.133959215593645,1.5443685992395674e+16,1.7080041176712836e+16,822968785225035.6,808123963438801.4,15932496195.149784,25328149431.509235,276494836301.791,4944680171420.553
29.816638399905518,1.5623661190428876e+16,1.7279210093294072e+16,832559369373908.2,817541551336732.8,16494254852.638857,26221186885.34479,286243683032.47296,5119023029791.994
30.51297116790363,1.5805120309892844e+16,1.7480025515145536e+16,842229029270314.8,827036788602834.0,17073751335.968807,27142422499.48846,296300355045.164,5298870850678.494
31.223230591261704,1.5988082198292828e+16,1.7682508456398244e+16,851978769266984.9,836610661473141.4,17671518616.219753,28092703549.90606,306674101621.33923,5484389041501.6455
31.947695203086937,1.617256571913304e+16,1.7886679954019516e+16,861809594569206.6,846264157020867.4,18288105250.09531,29072902089.457447,317374442518.1319,5675747846548.221
32.686649107148675,1.6358589742740696e+16,1.8092561057807796e+16,871722510745845.0,855998262676233.8,18924075803.108665,30083915620.65123,328411175312.31665,5873122478290.634
33.44038208929165,1.6546173135108402e+16,1.8300172818198784e+16,881718523134789.1,865813965642652.9,19580011280.18976,31126667780.197197,339794382873.08746,6076693251009.514
34.20918973107749,1.6735334744585948e+16,1.8509536271696164e+16,891798636133761.9,875712252200324.1,20256509563.285793,32202109034.677135,351534440956.19006,6286645716585.947
34.993373525699035,1.6926093386248342e+16,1.872067242373541e+16,901963852367328.6,885694106888266.6,20954185855.4576,33311217386.541714,363642025910.77167,6503170802308.111
35.793240996213015,1.7118467823766174e+16,1.893360222878784e+16,912215171720793.9,895760511555651.6,21673673130.89479,34454999089.518364,376128122488.96246,6726464950514.639
36.60910581613728,1.7312476748603862e+16,1.9148346567512444e+16,922553590231712.9,905912444273293.6,22415622590.196693,35634489372.39,389004031746.8246,6956730259870.682
37.44128793246003,1.750813875637484e+16,1.9364926220765456e+16,932980098829891.2,916150878096390.5,23180704120.182377,36850753169.97398,402281379023.8977,7194174628048.72
38.29011369110923,1.7705472320186282e+16,1.9583361840283164e+16,943495681916983.1,926476779669740.9,23969606757.4065,38104885859.99388,415972121987.05725,7439011895558.747
39.15591596493141,1.7904495760815492e+16,1.9803673915862172e+16,954101315777216.4,936891107667137.9,24783039154.474823,39398014004.40187,430088558722.96265,7691461990446.269
40.03903428423004,1.8105227213567372e+16,2.002588273887134e+16,964797966811308.8,947394811057133.5,25621730048.162292,40731296093.5668,444643335861.7718,7951751073548.791
40.93981496991464,1.8307684591677336e+16,2.025000836194431e+16,975586589586250.5,957988827188006.1,26486428728.24947,42105923291.60664,459649456713.3418,8220111683974.586
41.85861126931294,1.8511885546137156e+16,2.047607055471673e+16,986468124694492.5,968674079685562.2,27377905505.905586,43523120180.9989,475120289395.5446,8496782884439.846
42.7957834946992,1.871784742183972e+16,2.0704088755493704e+16,997443496416975.1,979451476158330.8,28296952180.357742,44984145504.46913,491069574932.85645,8782010406073.134
43.751699164593184,1.8925587209958444e+16,2.093408201875259e+16,1008513610185503.1,990321905705697.8,29244382502.50159,46490292902.016045,507511435301.85876,9076046792270.055
44.72673314788505,1.9135121496498852e+16,2.116606895841263e+16,1019679349841153.1,1001286236225760.1,30221032634.02472,48042891640.80541,524460381398.8794,9379151541154.467
45.721267810842754,1.9346466406984496e+16,2.1400067686828068e+16,1030941574686644.1,1012345311520902.4,31227761600.533318,49643307335.53181,541931320903.5661,9691591246178.166
