t(s),Total solute volume 1,Total retention volume 1,Total 1 volume 1,Total 2 volume 1,Total 3 volume 1,Total 4 volume 1,Total 5 volume 1,Total 6 volume 1
0.1,1171626138357391.5,1690659390667246.5,218249522949102.88,300783729360751.56,0.0,0.0,0.0,0.0
0.202,1763694764500484.2,2545045794828505.5,328539567327274.2,452781560161439.5,15125117.999614468,40502296.311025985,965882522.5085524,28881329371.923313
0.30604000000000003,2214996567200670.0,3196321408346751.5,412607685368724.1,568641255673845.0,38370213.235531755,102748567.80262448,2450439545.5793138,73308545187.741
0.41216080000000005,2596791356990813.5,3747311173276735.5,483728095699899.06,666656879433363.5,68152111.84586601,182499282.37976962,4352501180.299177,130238000082.6808
0.5204040160000001,2935873226116162.0,4236677637659975.0,546891979275691.5,753707100385665.8,103767702.94064282,277871622.007006,6627153774.224026,198323089354.23065
0.6308120963200001,3245603031141013.0,4683699803532034.0,604588185178404.4,833221962085136.0,144839924.328699,387855876.5001654,9250312668.250546,276842119013.6914
0.7434283382464002,3533748963362783.5,5099586763325981.0,658263765517671.5,907195740401695.8,191153327.6202231,511875111.0273058,12208216456.781395,365382798938.5463
0.8582969050113283,3805288381947499.5,5491520618079236.0,708845898549888.0,976906239496310.6,242586498.0561369,649604197.1479102,15493109973.86032,463712784867.6637
0.9754628431115548,4063632472028371.5,5864423596119012.0,756970016956089.1,1043229190129485.4,299078754.66894823,800880641.2906735,19101117234.851437,571715928436.5742
1.094972099973786,4311237705118473.0,6221840355416472.0,803093710171328.9,1106795225812254.0,360611708.9719524,965655201.9843209,23031063517.87345,689356983994.272
1.2168715419732616,4549941593705774.0,6566422456348680.0,847559268466953.1,1168076078841325.2,427198184.4435949,1143962218.0919986,27283767621.310783,816660406606.3658
1.3412089728127268,4781160746447950.0,6900214141833626.0,890630576504858.9,1227435425686243.0,498875147.9567997,1335900680.3692236,31861590380.630898,953696828374.3378
1.4680331522689813,5006014429788608.0,7224830627702561.0,932516130290885.5,1285160608137501.8,575698991.2688488,1541621596.0914116,36768133290.63986,1100574031689.52
1.597393815314361,5225405209969857.0,7541574462863224.0,973384059100688.0,1341483335991519.2,657742269.1359764,1761319254.2777388,42008030165.63676,1257430709464.899
1.729341691620648,5440073572882342.0,7851514341290196.0,1013372300019224.1,1396593709239670.8,745091382.4777223,1995225021.598964,47586799161.49639,1424432033382.8806
1.863928525453061,5650636086630431.0,8155540167373590.0,1052595706831079.4,1450650015288551.5,837844898.3279192,2243602843.4920993,53510735470.11434,1601766440324.6897
2.001207095962122,5857612779586535.0,8454402560069499.0,1091151149981289.5,1503785757544858.0,936112312.8139971,2506745931.6298666,59786832310.47782,1789643266273.299
2.1412312378813647,6061447233673919.0,8748741845734369.0,1129121259535042.2,1556114813829540.2,1040013130.9795554,2784974299.8425703,66422722156.71766,1988290986282.3384
2.284055862638992,6262521626203083.0,9039109762169570.0,1166577227158226.0,1607735297967889.0,1149676178.7490776,3078632921.6771655,73426632793.16974,2197955898476.0688
2.4297369798917723,6461168187811677.0,9325985991438656.0,1203580940492786.5,1658732501309840.2,1265239088.6781135,3388090353.324197,80807354469.1504,2418901140447.763
2.578331719489608,6657678065918999.0,9609790949098500.0,1240186634233544.2,1709181168185418.8,1386847918.3610868,3713737711.7792835,88574215526.5764,2651405959384.543
2.7298983538794,6852308276037039.0,9890895814406598.0,1276442185012494.5,1759147280468300.0,1514656871.929962,4055987929.0642548,96737064611.98405,2895765179363.063
2.884496320956988,7045287221097248.0,1.0169630494333172e+16,1312390139534369.5,1808689474515699.5,1648828103.013232,4415275224.585176,105306258091.3968,3152288824442.2046
3.0421862473761276,7236819122837549.0,1.044629001780268e+16,1348068540051628.2,1857860178808712.5,1789531583.0844245,4792054752.592295,114292651641.5933,3421301866813.9463
3.2030299723236504,7427087615809853.0,1.0721139721700356e+16,1383511593853149.0,1906706536617837.0,1936945023.0952694,5186802392.327264,123707595244.64137,3703144076859.784
3.3670905717701234,7616258689197224.0,1.0994419495853624e+16,1418750221263441.0,1955271161236023.0,2091253839.1651325,5600014656.145461,133562930996.27484,3998169957462.0327
3.5344323832055258,7804483115163347.0,1.1266347287151582e+16,1453812507993520.2,2003592759392601.2,2252651155.215312,6032208696.570333,143870993273.9116,4306748748968.7227
3.7051210308696363,7991898468932407.0,1.1537122014592318e+16,1488724081439686.8,2051706649854858.5,2421337837.0168357,6483922397.4677725,154644610911.02725,4629264494232.93
3.879223451487029,8178630821277834.0,1.1806926011669748e+16,1523508425958897.0,2099645197929392.5,2597522553.314251,6955714537.725335,165897111100.84225,4966116155430.583
4.0568079205167695,8364796165939847.0,1.2075927086307958e+16,1558187148766876.2,2147438181913432.0,2781421860.6004267,7448165018.264782,177642324810.58096,5317717776106.472
4.237944078927105,8550501630885102.0,1.2344280268921372e+16,1592780205570574.2,2195113104053465.0,2973260308.822721,7961875145.105475,189894593532.585,5684498683247.145
4.422702960505647,8735846512019831.0,1.2612129304311642e+16,1627306093127343.2,2242695455923465.2,3173270565.8513412,8497467962.669337,202668777233.75476,6066903725231.719
4.61115701971576,8920923160086862.0,1.2879607931742236e+16,1661782014455375.2,2290208946112061.5,3381693558.9744835,9055588632.680971,215980263392.45944,6465393542342.048
4.803380160110075,9105817745394406.0,1.3146840988755078e+16,1696224021286746.2,2337675696546240.5,3598778632.0298147,9636904854.93911,229844977034.12598,6880444867172.81
4.9994477633122765,9290610920288206.0,1.3413945367459244e+16,1730647137472136.8,2385116412563357.5,3824783717.0584736,10242107326.976881,244279391694.35852,7312550852811.283
5.199436718578522,9475378395561180.0,1.3681030846658268e+16,1765065466353971.8,2432550530888996.0,4059975519.5915036,10871910240.22741,259300541252.73715,7762221427084.638
5.403425452950093,9660191444054940.0,1.394820081894056e+16,1799492284576837.0,2479996348923139.5,4304629716.860986,11527051810.7997,274926032592.1024,8229983671521.109
5.611493962009095,9845117342365334.0,1.4215552928478768e+16,1833940124368064.5,2527471138136350.0,4559031168.377833,12208294843.370008,291174059047.6756,8716382223957.823
5.823723841249277,1.0030219759687768e+16,1.4483179632574682e+16,1868420845971478.0,2574991243895384.5,4823474138.442463,12916427327.027988,308063414618.3125,9221979703965.713
6.040198318074262,1.0215559101322186e+16,1.475116869780136e+16,1902945701635216.2,2622572173648960.5,5098262530.257765,13652263062.191353,325613508918.77856,9747357160459.088
6.261002284435747,1.0401192813128474e+16,1.5019603639818708e+16,1937525392325415.5,2670228675088497.5,5383710131.40106,14416642317.937975,343844382857.49567,10293114541024.508
6.486222330124463,1.058717565221897e+16,1.5288564114491994e+16,1972170118150632.0,2717974805641306.0,5680140870.4849615,15210432519.300573,362776725028.9174,10859871182643.89
6.715946776726952,1.0773559928352654e+16,1.5558126266753564e+16,2006889623328461.8,2765823994441972.0,5987889084.900597,16034528964.237364,382431888813.7011,11448266323607.709
6.950265712261491,1.0960395719813624e+16,1.582836304266851e+16,2041693236399294.0,2813789097753510.0,6307299799.590071,16889855570.137579,402831910183.3072,12058959636516.793
7.18927102650672,1.1147731066996982e+16,1.6099344469352718e+16,2076589906287248.8,2861882448665259.0,6638729016.84263,17777365649.846577,423999526208.6569,12692631782361.887
7.433056447036854,1.1335612146453502e+16,1.637113790671567e+16,2111588234721111.0,2910115901774331.0,6982544017.1495285,18698042717.304035,445958194275.0934,13349984985748.215
7.681717575977592,1.1524083427755032e+16,1.6643808274435076e+16,2146696505455105.2,2958500873456532.5,7339123671.1891775,19652901322.98776,468732112008.20953,14031743631401.475
7.935351927497144,1.171318781521256e+16,1.6917418257095932e+16,2181922710667937.8,3007048378248695.0,7708858763.046346,20642987919.43973,492346237917.1796,14738654882153.676
8.194058966047088,1.1902966776201204e+16,1.7192028490026596e+16,2217274574867148.0,3055769061792738.5,8092152324.797861,21669381757.230133,516826312764.0392,15471489318662.254
8.45794014536803,1.2093460457613092e+16,1.7467697728025374e+16,2252759576581825.0,3104673230731809.0,8489419982.623798,22733195811.78454,542198881669.0808,16231041601166.248
8.72709894827539,1.228470779175912e+16,1.7744482998885348e+16,2288384968089873.5,3153770879897726.0,8901090314.626595,23835577741.56326,568491316964.0219,17018131153628.428
9.0016409272409,1.2476746592870134e+16,1.8022439743378016e+16,2324157793394220.0,3203071717085112.0,9327605220.56309,24977710878.14132,595731841806.0181,17833602870655.203
9.281673745785717,1.266961364520502e+16,1.8301621943149e+16,2360084904635458.0,3252585185670774.0,9769420303.714787,26160815248.7922,623949554566.9175,18678327847625.137
9.567307220701432,1.2863344783646402e+16,1.858208223779847e+16,2396172977105198.5,3302320485304489.0,10227005265.14021,27386148632.229702,653174454013.3555,19553204134492.223
9.85865336511546,1.3057974967559226e+16,1.886387203226481e+16,2432428523004344.0,3352286590870229.0,10700844310.572533,28655007648.210854,683437465294.4589,20459157513767.69
10.155826432417769,1.3253538348594364e+16,1.914704159549622e+16,2468857904073507.5,3402492269892969.0,11191436570.241735,29968728881.749115,714770466755.0405,21397142303213.566
10.458942961066125,1.3450068333039972e+16,1.943164015128137e+16,2505467343207776.5,3452946098545661.5,11699296531.91808,31328690042.73152,747206317593.1752,22368142183815.207
10.768121820287448,1.3647597639253312e+16,1.971771596200732e+16,2542262935155039.0,3503656476393376.5,12224954487.48846,32736311161.775787,780778886382.1478,23373171053630.215
11.083484256693197,1.3846158350646124e+16,2.000531640602955e+16,2579250656386081.5,3554631639995876.0,12768956993.394352,34193055823.20488,815523080477.6714,24413273908140.074
11.405153941827061,1.4045781964643784e+16,2.029448804925884e+16,2616436374214639.5,3605879675476531.0,13331867345.273596,35700432436.058365,851474876332.2972,25489527747760.074
11.733257020663602,1.424649943799207e+16,2.0585276711508356e+16,2653825855237103.0,3657408530153696.5,13914266067.16408,37259995544.09792,888671350739.8759,26603042513192.805
12.067922161076874,1.4448341228746314e+16,2.0877727528081704e+16,2691424773154240.0,3709226023320225.5,14516751415.642256,38873347175.80495,927150713033.8569,27754962049335.87
12.409280604298411,1.4651337335240408e+16,2.117188500703341e+16,2729238716030310.5,3761339856247814.5,15139939899.282883,40542138235.40761,966952338264.1486,28946465098486.324
12.75746621638438,1.4855517332304452e+16,2.1467793082490576e+16,2767273193039609.0,3813757621484782.5,15784466813.842827,42268069936.012314,1008116801378.2284,30178766323607.7
13.112615540712067,1.5060910404969464e+16,2.176549516438047e+16,2805533640745027.0,3866486811509014.5,16450986793.583769,44052895275.95494,1050685912433.0358,31453117362457.242
13.474867851526309,1.52675453798766e+16,2.2065034184878004e+16,2844025428948873.5,3919534826791319.0,17140174379.165878,45898420559.523445,1094702752865.1987,32770807913395.87
13.844365208556836,1.547545075458353e+16,2.236645264185288e+16,2882753866152061.0,3972908983319117.0,17852724602.556934,47806506963.247894,1140211712848.026,34133166853732.8
14.221252512727972,1.568465472494428e+16,2.2669792639571108e+16,2921724204654416.0,4026616519625473.5,18589353589.41714,49779072148.98597,1187258529764.6465,35541563391484.586
14.605677562982532,1.5895185210720106e+16,2.2975095926879956e+16,2960941645325427.0,4080664603363999.0,19350799179.435013,51818091925.07904,1235890327827.6235,36997408251457.04
14.997791114242183,1.6107069879564942e+16,2.3282403933082628e+16,3000411342072260.0,4135060337466476.5,20137821565.10376,53925601956.888176,1286155658876.3582,38502154896585.2
15.397746936527026,1.6320336169514602e+16,2.359175780169333e+16,3040138406028990.5,4189810765916369.0,20951203949.443466,56103699528.06531,1338104544384.52,40057300785500.766
15.805701875257567,1.6535011310098054e+16,2.3903198422240436e+16,3080127909489235.5,4244922879168559.5,21791753223.189766,58354545353.95114,1391788518710.776,41664388667317.336
16.221815912762718,1.6751122342176686e+16,2.421676646027541e+16,3120384889601754.0,4300403619242586.0,22660300661.98531,60680365448.53813,1447260673627.0396,43325007914663.67
16.64625223101797,1.6968696136609828e+16,2.4532502385727732e+16,3160914351847498.0,4356259884514492.0,23557702644.125626,63083453046.4748,1504575704159.5396,45040795896018.62
17.079177275638333,1.7187759411834358e+16,2.485044649973474e+16,3201721273314254.5,4412498534229897.0,24484841389.42879,65566170581.635475,1563789955778.976,46813439388432.78
17.5207608211511,1.7408338750439066e+16,2.51706389600645e+16,3242810605784166.5,4469126392759073.5,25442625719.812607,68130951723.81971,1624961472977.1323,48644676031759.17
17.97117603757412,1.763046061480815e+16,2.5493119805239012e+16,3284187278647768.5,4526150253612989.0,26431991842.18125,70780303475.19394,1688150049268.3818,50536295825538.836
18.430599558325603,1.785415136190065e+16,2.5817928977456104e+16,3325856201657071.0,4583576883237481.0,27453904154.24095,73516808328.13144,1753417278655.552,52490142669728.8
18.899211549492115,1.8079437257227704e+16,2.614510634440019e+16,3367822267529259.0,4641413024601601.0,28509356073.879475,76343126486.15245,1820826608600.8713,54508115950484.984
19.37719578048196,1.8306344488083864e+16,2.647469172002554e+16,3410090354411425.0,4699665400594387.0,29599370892.764374,79261998149.72266,1890443394543.6528,56592172172252.7
19.864739696091597,1.8534899176085276e+16,2.6806724884386964e+16,3452665328216064.5,4758340717243638.0,30725002654.83194,82276245868.69676,1962334956007.7307,58744326637449.79
20.36203449001343,1.8765127389060284e+16,2.7141245602588636e+16,3495552044836222.0,4817445666768684.0,31887337060.357296,85388776963.27339,2036570634342.7659,60966655175062.67
20.869275179813698,1.8997055152338764e+16,2.747829364291556e+16,3538755352248290.5,4876986930478410.0,33087492396.315598,88602586015.34601,2113221852144.637,63261295919512.086
21.38666068340997,1.923070845947817e+16,2.781790879420678e+16,3582280092510160.5,4936971181524984.0,34326620493.762764,91920757432.21248,2192362174401.6223,65630451141182.31
21.91439389707817,1.9466113282464044e+16,2.816013088252537e+16,3626131103661337.5,4997405087522668.0,35605907712.985,95346468084.64342,2274067371414.0454,68076389130046.555
22.452681775019734,1.9703295581420424e+16,2.850499978717601e+16,3670313221531710.5,5058295313040453.0,36926575957.18529,98882990021.36761,2358415483536.6113,70601446133856.7
23.00173541052013,1.9942281313858668e+16,2.885255545611711e+16,3714831281464555.0,5119648521976723.0,38289883715.49693,102533693262.0915,2445486887793.7686,73208028352407.44
23.561770118730532,2.018309644349685e+16,2.920283792081092e+16,3759690119959286.0,5181471379823160.0,39697127136.13378,106302048671.21962,2535364366419.847,75898613989425.92
24.133005521105144,2.04257669486744e+16,2.9555887310551732e+16,3804894576239003.5,5243770555825158.0,41149641130.50924,110191630914.50511,2628133177377.2095,78675755363675.95
24.715665631527248,2.0670318830387732e+16,2.9911743866309536e+16,3850449493747290.5,5306552725044708.0,42648800509.17875,114206121500.91719,2723881126906.7837,81542081080908.5
25.309978944157795,2.091677811996931e+16,3.0270447954125388e+16,3896359721578743.0,5369824570331724.0,44196021150.48036,118349311912.0698,2822698644167.117,84500298268336.67
25.91617852304095,2.116517088643203e+16,3.0632040078088012e+16,3942630115847009.5,5433592784209557.0,45792761202.77293,122625106821.62137,2924678858019.1553,87553194873352.52
26.53450209350177,2.1415523243497404e+16,3.0996560892924812e+16,3989265540994031.0,5497864070679352.0,47440522321.195404,127037527407.11206,3029917676015.928,90703642028246.97
27.165192135371807,2.1667861356327108e+16,3.1364051216233348e+16,4036270871043981.0,5562645146948104.0,49140850939.89156,131590714756.77809,3138513865657.2773,93954596482748.25
27.808495978079243,2.1922211447973644e+16,3.173455204038038e+16,4083650990804887.5,5627942745084752.0,50895339580.67242,136288933373.93352,3250569137971.8726,97309103106227.97
28.464665897640828,2.2178599805566356e+16,3.2108104544093516e+16,4131410797020959.5,5693763613608241.0,52705628199.109436,141136574781.59274,3366188233489.8286,100770297461482.44
29.133959215593645,2.2437052786247336e+16,3.248475010376659e+16,4179555199478306.0,5760114519011451.0,54573405569.08196,146138161230.06384,3485479010671.428,104341408452036.92
29.816638399905518,2.2697596822870156e+16,3.286453030450288e+16,4228089122066535.5,5827002247224130.0,56500410706.82258,151298349510.3101,3608552536858.4106,108025761044980.67
30.51297116790363,2.2960258429474784e+16,3.3247486950914196e+16,4277017503798545.0,5894433605018499.0,58488434335.5355,156621934875.96365,3735523181816.686,111826779071372.22
31.223230591261704,2.3225064206549204e+16,3.363366207769562e+16,4326345299790777.0,5962415421359980.0,60539320391.68504,162113855076.92297,3866508713940.4624,115747988106331.47
31.947695203086937,2.3492040846090184e+16,3.4023097959994564e+16,4376077482205743.5,6030954548706418.0,62654967574.08452,167779194507.564,4001630399189.9487,119793018430962.1
32.686649107148675,2.3761215136471036e+16,3.4415837123588384e+16,4426219041158982.0,6100057864257806.0,64837330936.93811,173623188472.6483,4141013102836.2646,123965608078319.36
33.44038208929165,2.4032613967127692e+16,3.4811922354889692e+16,4476774985591859.0,6169732271159255.0,67088423528.01916,179651227574.10675,4284785394089.2275,128269605965681.58
34.20918973107749,2.4306264333070796e+16,3.5211396710791676e+16,4527750344112107.0,6239984699659338.0,69410318073.2001,185868862221.93433,4433079653685.443,132708975115447.05
34.993373525699035,2.4582193339232064e+16,3.561430352836891e+16,4579150165803451.0,6310822108225947.0,71805148708.57214,192281807272.53705,4586032184516.004,137287795967026.23
35.793240996213015,2.4860428204651796e+16,3.6020686434445948e+16,4630979521005719.0,6382251484621358.0,74275112761.43008,198895946797.9205,4743783325375.022,142010269782163.75
36.60910581613728,2.5140996266516304e+16,3.643058935504743e+16,4683243502066807.0,6454279846938613.0,76822472581.42426,205717338989.22336,4906477567912.355,146880722146178.47
37.44128793246003,2.5423924984049264e+16,3.684405652474071e+16,4735947224067667.0,6526914244600607.0,79449557423.2111,212752221198.1606,5074263676875.403,151903606567667.44
38.29011369110923,2.5709241942264816e+16,3.726113249588335e+16,4789095825521407.0,6600161759323592.0,82158765381.97325,220007015120.03467,5247294813727.562,157083508179288.72
39.15591596493141,2.5996974855587436e+16,3.768186214778499e+16,4842694469047565.0,6674029506046476.0,84952565383.2018,227488332122.0589,5425728663732.361,162425147542284.53
40.03903428423004,2.6287151571343556e+16,3.810629069579533e+16,4896748342022525.0,6748524633827218.0,87833499228.17422,235202978720.82544,5609727566594.712,167933384557480.47
40.93981496991464,2.6579800073130068e+16,3.853446370032675e+16,4951262657207044.0,6823654326707519.0,90804183696.59254,243157962212.83615,5799458650752.798,173613222485551.62
41.85861126931294,2.6874948484063464e+16,3.896642707582206e+16,5006242653351451.0,6899425804547081.0,93867312707.87794,251360496462.11188,5995093971416.249,179469812079415.72
42.7957834946992,2.7172625069915236e+16,3.940222709967495e+16,5061693595779754.0,6975846323828426.0,97025659542.65555,259818007848.97797,6196810652448.436,185508455831667.44
43.751699164593184,2.747285824213521e+16,3.98419104211139e+16,5117620776952779.0,7052923178433132.0,100282079125.99796,268538141384.23114,6404791032192.888,191734612340044.97
