t(s),Total solute volume 1,Total retention volume 1,Total 1 volume 1,Total 2 volume 1,Total 3 volume 1,Total 4 volume 1,Total 5 volume 1,Total 6 volume 1
0.1,858476762157242.6,970941579421749.6,55300119698977.766,57164697565528.79,0.0,0.0,0.0,0.0
0.202,1291363400553732.2,1464747301489011.2,83185187845909.98,85989978793819.95,9718479016.178844,16720150777.215557,205493107039.09738,3976802558715.659
0.30604000000000003,1619362870045979.8,1842168435021713.2,104313785334106.62,107830978373949.6,24616816705.169277,42352194066.13949,520515570248.3213,10073316686657.762
0.41216080000000005,1895372804387955.8,2162580364742973.8,122093395809848.88,126210071680825.11,43651123673.406494,75100288672.93947,922995979619.7457,17862345472377.34
0.5204040160000001,2139208771275089.5,2448189624867287.0,137800469981703.38,142446748076027.06,66348088134.994484,114150228347.29884,1402927639551.2737,27150209578430.473
0.6308120963200001,2360748896053396.5,2710054776431827.0,152071322703993.84,157198777320039.72,92445266741.8824,159050590490.83777,1954762554649.7856,37829521942514.57
0.7434283382464002,2565736108183752.5,2954602571173469.0,165275893736789.4,170848572592868.84,121784395569.12999,209529187185.53,2575155563318.5874,49835527513980.33
0.8582969050113283,2757849189739025.0,3185951300461906.0,177651157566042.2,183641098552152.22,154267478243.26648,265417519155.43268,3262035860504.859,63128133746782.88
0.9754628431115548,2939607898135241.5,3406925102606630.0,189359428296379.3,195744142117603.94,189835101316.0267,326613469775.33624,4014148499868.986,77683036986441.05
1.094972099973786,3112824974175360.5,3619559970041653.5,200517476454373.16,207278411018267.0,228454389610.58554,393060583776.6185,4830799725448.264,93486793694818.03
1.2168715419732616,3278854424282013.5,3825381410966113.5,211212522475885.53,218334066539235.97,270111739882.61465,464735566594.69165,5711703336655.085,110533847025842.69
1.3412089728127268,3438738036852223.0,4025568141653687.5,221511674785621.34,228980479829040.44,314808160014.56976,541640266286.37524,6656882144919.828,128824619615584.48
1.4680331522689813,3593296830632062.0,4221054157709508.0,231467820586831.1,239272321311668.84,362556134765.02124,623796281738.2142,7666601707940.187,148364231054507.34
1.597393815314361,3743190765863718.5,4412595320083636.5,241123472247999.4,249253536763542.1,413377437596.6709,711241198513.9235,8741324067914.926,169161602504347.4
1.729341691620648,3888959206651949.5,4600814436285811.0,250513373749297.03,258960041642654.84,467301555955.6937,804025880090.0443,9881674460693.236,191228812345161.9
1.863928525453061,4031049205420107.0,4786232747119019.0,259666322669936.8,268421604508664.72,524364529406.8674,902212469376.9136,11088416754462.871,214580620767063.16
2.001207095962122,4169835804211427.5,4969292508570197.0,268606477928168.8,277663198856528.2,584608074429.0527,1005872883419.9722,12362434949719.887,239234111666497.62
2.1412312378813647,4305636941481130.0,5150373561002119.0,277354320025542.38,286705995737730.9,648078913605.0367,1115087659752.6624,13704719001107.008,265208418183246.5
2.284055862638992,4438724616797376.0,5329805730598475.0,285927370238537.4,295568107201217.44,714828253922.4287,1229945059292.9265,15116353792228.66,292524509255905.56
2.4297369798917723,4569333399616708.0,5507878275003772.0,294340738724603.94,304265152880157.1,784911376046.2668,1350540360169.8245,16598510457042.17,321205021589051.94
2.578331719489608,4697667014650400.0,5684847189978833.0,302607548728813.1,312810698501757.75,858387307641.238,1476975296164.7014,18152439478599.76,351274126015459.0
2.7298983538794,4823903509160390.0,5860940940214651.0,310739269443282.94,321216599969852.1,935318561351.6288,1609357606406.3894,19779465155136.574,382757420318207.5
2.884496320956988,4948199357903466.0,6036365010465675.0,318745980433555.44,329493276707057.25,1015770923218.6975,1747800671856.929,21480981132843.664,415681842693689.6
3.0421862473761276,5070692760686460.0,6211305560778382.0,326636584055768.44,337649931234111.25,1099813280938.9087,1892423220358.6213,23258446781288.414,450075601519464.3
3.2030299723236504,5191506318278366.0,6385932392424565.0,334418977829707.06,345694727354888.94,1187517483952.4954,2043349086462.1626,25113384242120.88,485968118149062.0
3.3670905717701234,5310749224008253.0,6560401377203370.0,342100195613993.25,353634936091669.56,1278958229227.391,2200707015482.4556,27047376021363.28,523389980223385.0
3.5344323832055258,5428519073954243.0,6734856464439129.0,349686524212243.06,361477056222952.25,1374212967984.2898,2364630503603.824,29062063024773.445,562372903553330.94
3.7051210308696363,5544903373786200.0,6909431352351402.0,357183600438680.56,369226914621865.06,1473361829638.8447,2535257667629.0776,31159142957554.89,602949701049835.2
3.879223451487029,5659980802148912.0,7084250890254313.0,364596492500941.8,376889750382997.06,1576487560015.1934,2712731139305.5596,33340369026143.707,645154257496015.4
4.0568079205167695,5773822277008678.0,7259432263071404.0,371929768690455.75,384470285828838.2,1683675471479.6753,2897197980184.317,35607548892373.21,689021509199389.6
4.237944078927105,5886491861295632.0,7435085998438493.0,379187555720796.9,391972786815151.5,1795013403102.6667,3088809613758.5063,37962543840025.95,734587427750036.4
4.422702960505647,5998047536529662.0,7611316828177228.0,386373588562017.25,399401114245594.06,1910591689314.508,3287721772242.954,40407268121352.42,781889007257044.9
4.61115701971576,6108541867270909.0,7788224429429213.0,393491253242253.25,406758768316479.5,2030503135802.9272,3494094455841.268,42943688457087.9,830964254550834.0
4.803380160110075,6218022574719742.0,7965904065731702.0,400543623797069.75,414048926711960.44,2154843001623.0742,3708091902731.3564,45573823668228.09,881852181930358.4
4.9994477633122765,6326533034274552.0,8144447144414588.0,407533494320416.4,421274477735662.56,2283708986669.737,3929882568307.922,48299744421599.805,934592802107375.4
5.199436718578522,6434112709094785.0,8323941703638503.0,414463406893269.56,428438049181010.56,2417201223805.4893,4159639112467.879,51123573074310.05,989227125058852.0
5.403425452950093,6540797529531866.0,8504472839974135.0,421335676025261.7,435542033596962.7,2555422275055.3447,4397538393926.1567,54047483604628.64,1045797156546430.2
5.611493962009095,6646620226550841.0,8686123085495376.0,428152410132566.75,442588610490070.56,2698477131373.902,4643761470713.295,57073701618877.61,1104345898100927.4
5.823723841249277,6751610625869402.0,8868972741814758.0,434915530485315.9,449579765910765.8,2846473215569.4976,4898493606141.647,60204504425561.04,1164917348302008.5
6.040198318074262,6855795908414645.0,9053100177243464.0,441626787985329.0,456517309796782.56,2999520388034.913,5161924279638.583,63442221169345.29,1227556505209701.5
6.261002284435747,6959200841782779.0,9238582092246610.0,448287778075951.44,463402891385722.6,3157730954988.1006,5434247201938.114,66789233018639.64,1292309369826587.5
6.486222330124463,7061847986640628.0,9425493757540004.0,454899954037726.6,470238012959019.3,3321219678971.7183,5715660334200.428,70247973401487.64,1359222950487981.0
6.715946776726952,7163757881393946.0,9613909228497228.0,461464638884101.2,477024042138739.0,3490103791398.2666,6006365910694.28,73820928285281.98,1428345268093050.5
6.950265712261491,7264949207942448.0,9803901538977324.0,467983036038792.5,483762222924952.7,3664503006959.9365,6306570464732.404,77510636496501.4,1499725362102937.8
7.18927102650672,7365438940921478.0,9995542877222220.0,474456238949406.8,490453685633520.25,3844539539749.497,6616484857597.91,81319690077244.66,1573413297243210.2
7.433056447036854,7465242482480956.0,1.018890474608585e+16,480885239769464.7,497099455870828.5,4030338120962.173,6936324310239.172,85250734675833.78,1649460170857563.5
7.681717575977592,7564373784360772.0,1.0384058109538158e+16,487270937222053.3,503700462662600.9,4222026018068.398,7266308437546.371,89306469969188.48,1727918120867905.8
7.935351927497144,7662845458775246.0,1.0581073527113928e+16,493614143742629.3,510257545837532.2,4419733055364.8545,7606661285051.657,93489650115032.89,1808840334303058.2
8.194058966047088,7760668879413008.0,1.0780021277751466e+16,499915591985090.6,516771462752732.0,4623591635826.138,7957611367922.01,97803084232328.86,1892281056364569.0
8.45794014536803,7857854273683701.0,1.0980971474272226e+16,506175940763982.8,523242894436277.8,4833736764192.621,8319391712135.909,102249636908593.5,1978295600003351.2
8.72709894827539,7954410807192830.0,1.1183994169588992e+16,512395780496082.06,529672451212284.3,5050306071241.512,8692239897754.699,106832228733016.25,2066940355985766.5
9.0016409272409,8050346661300546.0,1.1389159455592102e+16,518575638196463.2,536060677865423.1,5273439839198.27,9076398104217.562,111553836854496.25,2158272803431738.8
9.281673745785717,8145669104510397.0,1.1596537555543176e+16,524715982077123.0,542408058394596.0,5503281028254.434,9472113157604.045,116417495563915.98,2252351520811275.0
9.567307220701432,8240384558341688.0,1.1806198910704222e+16,530817225790242.6,548715020399273.3,5739975304165.82,9879636579821.32,121426296900131.72,2349236197388892.0
9.85865336511546,8334498658258256.0,1.2018214261842418e+16,536879732353013.25,554981939136655.56,5983671066912.158,10299224639687.387,126583391279318.7,2448987645108566.0
10.155826432417769,8428016310157442.0,1.223265472617484e+16,542903817786470.25,561209141283190.94,6234519480405.288,10731138405889.58,131891988147429.78,2551667810913998.0
10.458942961066125,8520941742863141.0,1.2449591870252602e+16,548889754496896.1,567396908430006.6,6492674503239.28,11175643801810.367,137355356655665.64,2657339789501855.0
10.768121820287448,8613278557014303.0,1.266909777922652e+16,554837774425066.4,573545480338320.2,6758292920479.957,11633011662219.057,142976826358945.9,2766067836507174.0
11.083484256693197,8705029770695274.0,1.2891245122887052e+16,560748071985594.3,579655057977907.9,7031534376497.08,12103517791837.586,148759787937479.5,2877917382122454.0
11.405153941827061,8796197862114714.0,1.3116107218829552e+16,566620806816153.0,585725806369013.0,7312561408845.193,12587443025794.76,154707693941618.88,2992955045153393.5
11.733257020663602,8886784809604920.0,1.3343758093056138e+16,572456106354102.5,591757857245856.6,7601539483204.324,13085073291990.395,160824059560261.03,3111248647515805.5
12.067922161076874,8976792129183244.0,1.3574272538294842e+16,578254068256064.2,597751311557784.4,7898637029393.983,13596699675396.803,167112463413135.16,3232867229179823.0
12.409280604298411,9066220909890500.0,1.3807726170285996e+16,584014762674304.6,603706241822416.6,8204025478477.732,14122618484330.219,173576548367385.5,3357881063568591.5
12.75746621638438,9155071847098034.0,1.4044195482262198e+16,589738234402248.1,609622694343499.0,8517879300977.783,14663131318730.053,180220022378910.6,3486361673419796.5
13.112615540712067,9243345273953618.0,1.4283757897824016e+16,595424504900129.8,615500691304843.9,8840376046222.5,15218545140488.2,187046659358987.7,3618381847119723.0
13.474867851526309,9331041191118824.0,1.4526491822395362e+16,601073574210560.5,621340232750497.1,9171696382850.816,15789172345874.818,194060300066754.97,3754015655520023.0
13.844365208556836,9418159294933778.0,1.4772476693424338e+16,606685422772820.5,627141298460201.2,9512024140501.184,16375330840110.896,201264853028168.06,3893338469248762.5
14.221252512727972,9504699004131234.0,1.5021793029479774e+16,612260013143670.8,632903849728217.2,9861546352712.807,16977344114141.293,208664295482102.9,4036426976527709.5
14.605677562982532,9590659485208026.0,1.5274522478380356e+16,617797291631700.9,638627831052807.8,10220453301070.428,17595541323664.8,216262674354298.4,4183359201508778.0
14.997791114242183,9676039676552336.0,1.5530747864480742e+16,623297189851527.4,644313171742795.2,10588938560624.033,18230257370481.277,224064107259880.97,4334214523143114.0
15.397746936527026,9760838311412984.0,1.579055323522837e+16,628759626203401.8,649959787447098.1,10967199046617.38,18881832986217.75,232072783535239.1,4489073694596850.5
15.805701875257567,9845053939789972.0,1.6054023907094936e+16,634184507283303.8,655567581612349.4,11355435062559.35,19550614818498.156,240292965300044.38,4648018863228177.0
16.221815912762718,9928684949315482.0,1.632124651097723e+16,639571729228047.4,661136446873355.4,11753850349674.227,20236955519623.707,248728988550241.2,4811133591140809.0
16.64625223101797,1.001172958518874e+16,1.659230903715635e+16,644921178999403.8,666666266380526.0,12162652137767.508,20941213837831.152,257385264282858.28,4978502876329215.0
17.079177275638333,1.0094185969221054e+16,1.686730087989386e+16,650232735610909.4,672156915068046.2,12582051197544.543,21663754711200.586,266266279653493.62,5150213174431605.0
17.5207608211511,1.0176052118041672e+16,1.714631288174102e+16,655506271300648.8,677608260866185.4,13012261894420.008,22404949364283.15,275376599167373.34,5326352421106471.0
17.97117603757412,1.0257325960509844e+16,1.7429437377629246e+16,660741652652855.1,683020165860737.6,13453502243857.396,23165175407521.547,284720865904866.56,5507010055049537.0
18.430599558325603,1.0338005354374066e+16,1.7716768238804828e+16,665938741671054.0,688392487402336.1,13905993968277.32,23944816939537.08,294303802782383.2,5692277041667170.0
18.899211549492115,1.0418088102215078e+16,1.8008400916668978e+16,671097396805054.6,693725079168074.8,14369962555573.58,24744264652357.67,304130213849553.44,5882245897423304.0
19.37719578048196,1.0497571966705692e+16,1.8304432486576476e+16,676217473933935.6,699017792177642.4,14845637319278.107,25563915939662.188,314204985623649.3,6077010714876587.0
19.864739696091597,1.0576454685217412e+16,1.8604961691645696e+16,681298827306943.5,704270475765938.8,15333251460412.764,26404175008115.97,324533088462143.9,6276667188424764.0
20.36203449001343,1.065473398379964e+16,1.8910088986627876e+16,686341310444009.6,709482978513956.0,15833042131069.15,27265452991873.816,335119577974385.0,6481312640772959.0
20.869275179813698,1.0732407590557112e+16,1.9219916581880572e+16,691344776997451.5,714655149139538.9,16345250499755.535,28148168070326.734,345969596473289.6,6691046050143122.0
21.38666068340997,1.0809473248445832e+16,1.9534548487488388e+16,696309081576258.0,719786837349455.1,16870121818550.281,29052745589167.17,357088374468027.0,6905968078241104.0
21.91439389707817,1.0885928727507882e+16,1.9854090557570256e+16,701234080534203.2,724877894654099.8,17407905492101.295,29979618184849.848,368481232198605.94,7126181098998484.0
22.452681775019734,1.09617718365631e+16,2.017865053481202e+16,706119632723001.4,729928175146017.6,17958855148509.79,30929225912522.19,380153581213309.1,7351789228105591.0
23.00173541052013,1.1037000434373184e+16,2.0508338095259476e+16,710965600211446.6,734937536243308.4,18523228712137.484,31902016377500.28,392110925989906.2,7582898353351993.0
23.561770118730532,1.1111612440293732e+16,2.0843264893405812e+16,715771848971577.8,739905839398925.6,19101288478373.91,32898444870364.062,404358865601559.0,7819616165791255.0
24.133005521105144,1.1185605844426762e+16,2.1183544607605976e+16,720538249532676.8,744832950776730.4,19693301190401.93,33918974505745.35,416903095428327.56,8062052191745338.0
24.715665631527248,1.1258978717287004e+16,2.1529292985849116e+16,725264677603942.4,749718741895140.0,20299538117997.46,34964076364880.914,429749408915196.9,8310317825664948.0
25.309978944157795,1.133172921899287e+16,2.188062789191746e+16,729951014666526.9,754563090239153.1,20920275138398.543,36034229642003.54,442903699377487.2,8564526363861053.0
25.91617852304095,1.140385560799264e+16,2.2237669351960824e+16,734597148535656.1,759365879841409.0,21555792819279.21,37129921794639.81,456371961854543.56,8824793039122605.0
26.53450209350177,1.1475356249336052e+16,2.26005396015125e+16,739202973893454.0,764127001832970.5,22206376503861.914,38251648697885.77,470160295012565.5,9091235056235712.0
27.165192135371807,1.154622962250007e+16,2.2969363132974136e+16,743768392793058.8,768846354964453.5,22872316398200.438,39399914802726.516,484274903097411.75,9363971628418178.0
27.808495978079243,1.1616474328778354e+16,2.3344266743592188e+16,748293315134611.1,773523846098055.8,23553907660665.957,40575233298468.945,498722097938225.1,9643124014683818.0
28.464665897640828,1.168608909824185e+16,2.3725379583952172e+16,752777659113651.0,778159390671074.9,24251450493666.28,41778126279350.37,513508301002672.25,9928815558149900.0
29.133959215593645,1.1755072796279302e+16,2.4112833207012052e+16,757221351642420.8,782752913131411.0,24965250237628.082,43009124915388.1,528640045504614.75,1.0221171725301314e+16
29.816638399905518,1.1823424429724972e+16,2.4506761617698356e+16,761624328744597.0,787304347345615.2,25695617467269.598,44268769627532.14,544123978564961.44,1.052032014622346e+16
30.51297116790363,1.1891143152581324e+16,2.4907301323086004e+16,765986535923925.4,791813636979953.8,26442868090191.73,45557610267179.74,559966863426476.7,1.0826390655816934e+16
31.223230591261704,1.1958228271344042e+16,2.5314591383182668e+16,770307928507237.9,796280735854987.1,27207323447812.496,46876206300113.22,576175581723263.4,1.1139515336005238e+16
31.947695203086937,1.2024679249936562e+16,2.572877346233889e+16,774588471962326.1,800705608274156.4,27989310418668.22,48225126994914.45,592757135805642.9,1.1459828558946614e+16
32.686649107148675,1.2090495714261734e+16,2.6149991881302296e+16,778828142191136.6,805088229326880.2,28789161524106.69,49604951615914.54,609718651121113.8,1.1787467031261366e+16
33.44038208929165,1.2155677456377636e+16,2.6578393669936388e+16,783026925798756.4,809428585166594.6,29607215036390.887,51016269620729.305,627067378652056.0,1.212256983928424e+16
34.20918973107749,1.222022443830469e+16,2.7014128620621932e+16,787184820338674.8,813726673264288.1,30443815089234.81,52459680862432.01,644810697410850.2,1.2465278495351734e+16
34.993373525699035,1.2284136795472092e+16,2.7457349342358452e+16,791301834534767.2,817982502637975.1,31299311790790.164,53935795796415.05,662956116992976.6,1.2815736985133424e+16
35.793240996213015,1.234741483981025e+16,2.790821131558512e+16,795377988480514.8,822196094058630.9,32174061339099.23,55445235691984.664,681511280188772.1,1.317409181601591e+16
36.60910581613728,1.2410059062497426e+16,2.8366872947736664e+16,799413313815931.0,826367480233078.6,33068426140031.125,56988632848736.95,700483965654343.1,1.3540492066547096e+16
37.44128793246003,1.2472070136367954e+16,2.883349562955141e+16,803407853882681.6,830496705964346.0,33982774927714.04,58566630817757.54,719882090642246.0,1.3915089436948688e+16
38.29011369110923,1.2533448917990166e+16,2.930824379214876e+16,807361663857946.5,834583828290040.5,34917482887476.793,60179884627685.91,739713713792434.8,1.4298038300703052e+16
39.15591596493141,1.259419644942163e+16,2.9791284964890788e+16,811274810867497.9,838628916599221.9,35872931781309.82,61829061015685.984,759987037983976.8,1.4689495757221456e+16
40.03903428423004,1.2654313959650708e+16,3.0282789834043896e+16,815147374078519.1,842632052728393.2,36849510075855.445,63514838663359.58,780710413248070.2,1.508962168559896e+16
40.93981496991464,1.2713802865731696e+16,3.0782932302256076e+16,818979444772778.0,846593331037092.6,37847613072934.43,65237908437638.88,801892339742758.8,1.549857879946117e+16
41.85861126931294,1.2772664773623164e+16,3.129188954886429e+16,822771126400595.8,850512858463718.8,38867643042616.28,66998973636693.26,823541470789843.6,1.5916532702907598e+16
42.7957834946992,1.2830901478737808e+16,3.1809842091045812e+16,826522534616280.4,854390754562127.2,39910009358836.49,68798750240882.08,845666615974374.5,1.6343651947555512e+16
43.751699164593184,1.2888514966212434e+16,3.233697384582922e+16,830233797295507.0,858227151519633.2,40975128637565.31,70637967168784.08,868276744307155.1,1.6780108090688126e+16
44.72673314788505,1.2945507410907978e+16,3.2873472192976428e+16,833905054535337.9,862022194156997.6,42063424877528.8,72517366538333.92,891380987450626.8,1.722607575450962e+16
