t(s),Total solute volume 1,Total retention volume 1,Total 1 volume 1,Total 2 volume 1,Total 3 volume 1,Total 4 volume 1,Total 5 volume 1,Total 6 volume 1
0.1,1343181032126672.5,2872917611672401.5,563076449980376.4,966660129565354.2,0.0,0.0,0.0,-1.5603494592410886e-89
0.202,1739567269000465.0,4768838586250150.0,729246020548231.9,1251931689226730.0,191641165367.2386,719382876724.4341,28139031874861.977,1019043551557767.0
0.30604000000000003,1934141460141278.0,6525785266332777.0,810813702568925.2,1391962917860083.8,430409772081.2403,1615715208965.145,63278113288489.53,2323542947492951.5
0.41216080000000005,2049644766478118.2,8244859466515766.0,859233982944166.5,1475088378057396.8,691024920919.4298,2594073249333.4375,101649200669095.55,3755958040196726.0
0.5204040160000001,2125766852232258.2,9960066238336040.0,891145214481053.8,1529871948946866.8,965191248321.853,3623313771966.657,142023467994309.8,5266670249661271.0
0.6308120963200001,2179452310868315.2,1.168659395405062e+16,913650760618037.0,1568508321261769.2,1249433159684.361,4690388807352.612,183886417257828.56,6835156322077634.0
0.7434283382464002,2219184224318940.8,1.3432547195549984e+16,930306824301318.6,1597102601787874.8,1542098755524.6223,5789097075199.987,226993420277269.3,8451628929033852.0
0.8582969050113283,2249675468644907.5,1.5202842716765938e+16,943089095949983.4,1619046554452973.2,1842347098310.1843,6916281895016.563,271219840737940.97,1.0111053127986802e+16
0.9754628431115548,2273748269742485.0,1.7000779213738578e+16,953180684265594.2,1636371279585945.0,2149739859903.576,8070298126391.9795,316500629153578.2,1.1810758313004674e+16
1.094972099973786,2293192223632032.0,1.8828760345767684e+16,961331807944481.8,1650364714184794.8,2464055823766.202,9250315762438.639,362802881715016.44,1.3549354346705172e+16
1.2168715419732616,2309194786866052.5,2.06886621537585e+16,968040262076074.6,1661881447358260.8,2785198820829.125,10455974296139.277,410112217506181.9,1.5326192266834964e+16
1.3412089728127268,2322573529138633.0,2.2582034437076404e+16,973648781036740.2,1671509867939546.2,3113148774948.3433,11687198931077.55,458425532159944.5,1.7141076379095512e+16
1.4680331522689813,2333908915584061.0,2.4510217979179716e+16,978400702315890.5,1679667725283650.0,3447934188089.2046,12944097282783.225,507746923476082.3,1.899410168104917e+16
1.597393815314361,2343623919946328.0,2.647441624030226e+16,982473341247985.9,1686659425293589.8,3789615955341.72,14226898615635.346,558085293770290.3,2.08855577454731e+16
1.729341691620648,2352033699785014.5,2.8475741056764844e+16,985998815415109.5,1692711780685989.5,4138277476100.204,15535916717614.957,609452884321349.1,2.2815869682363656e+16
1.863928525453061,2359377661481484.0,3.051524282238622e+16,989077486656648.0,1697997087543807.0,4494018415975.874,16871526481213.625,661864350471916.2,2.4785560691335172e+16
2.001207095962122,2365840772831692.5,3.2593931047354196e+16,991786895546901.9,1702648463569468.0,4856950664056.113,18234148726537.484,715336161966348.1,2.6795227654049176e+16
2.1412312378813647,2371568095218534.0,3.471278875238845e+16,994187853444554.2,1706770306603259.2,5227195652738.137,19624240140112.016,769886205226295.2,2.8845524856102964e+16
2.284055862638992,2376674917792816.0,3.687278280001073e+16,996328690854837.8,1710445587993952.2,5604882547067.86,21042286478236.25,825533514537881.5,3.0937152919805976e+16
2.4297369798917723,2381253967110185.0,3.907487148090415e+16,998248279790154.0,1713741041232806.5,5990147002760.92,22488797905488.043,882298087582656.8,3.3070851160280108e+16
2.578331719489608,2385380628511638.5,4.132001020480615e+16,999978222631271.4,1716710919678536.2,6383130304435.52,23964305760791.0,940200757381042.5,3.5247392240538444e+16
2.7298983538794,2389116788729258.0,4.360915585690979e+16,1001544462990730.2,1719399762005220.2,6783978763149.694,25469360297109.043,999263102723962.1,3.74675784014004e+16
2.884496320956988,2392513705141935.0,4.594327019840012e+16,1002968488536997.8,1721844457149360.8,7192843294013.677,27004529097309.85,1059507385343320.0,3.97322387898372e+16
3.0421862473761276,2395614176686094.5,4.832332257174511e+16,1004268241064589.1,1724075806671763.8,7609879120955.264,28570395967505.734,1120956505970718.9,4.204222756626345e+16
3.2030299723236504,2398454206295188.5,5.075029209334643e+16,1005458813407333.9,1726119721182668.2,8035245572669.475,30167560172831.23,1183633973947012.2,4.43984225727688e+16
3.3670905717701234,2401064288098256.0,5.322516946358597e+16,1006552989046447.2,1727998146713339.2,8469105944917.032,31796635922415.312,1247563886696201.8,4.680172441116437e+16
3.5344323832055258,2403470414254725.5,5.574895848824424e+16,1007561664186976.1,1729729789315382.5,8911627411774.877,33458252038234.816,1312770916480524.0,4.9253055824556616e+16
3.7051210308696363,2405694869914721.0,5.832267738014653e+16,1008494181014066.4,1731330687178104.5,9362980973490.61,35153051761490.836,1379280302602722.5,5.175336130670196e+16
3.879223451487029,2407756866368693.0,6.094735989211849e+16,1009358593116393.4,1732814666293930.2,9823341432070.201,36881692663205.56,1447117847737482.0,5.4303606884506696e+16
4.0568079205167695,2409673049408811.5,6.362405631959803e+16,1010161878596963.0,1734193706316179.8,10292887388154.855,38644846634849.7,1516309917434431.0,5.690478003381867e+16
4.237944078927105,2411457910576552.5,6.6353834402006584e+16,1010910112472709.8,1735478236525892.2,10771801254459.092,40443199941250.0,1586883442089733.8,5.955788969914598e+16
4.422702960505647,2413124122191381.5,6.913778014518761e+16,1011608607122281.0,1736677376945459.8,11260269282267.705,42277453322633.08,1658865920865560.5,6.226396639545805e+16
4.61115701971576,2414682812085135.5,7.197699858218913e+16,1012262027457771.9,1737799136059577.5,11758481598375.441,44148322135987.06,1732285427168341.0,6.502406237568392e+16
4.803380160110075,2416143790284962.5,7.487261448588069e+16,1012874485952759.0,1738850573954538.0,12266632250501.396,46056536528353.55,1807170615392935.2,6.7839251851516584e+16
4.9994477633122765,2417515737134782.0,7.782577304404184e+16,1013449621504923.6,1739837937705598.0,12784919259685.36,48002841636452.02,1883550728710695.2,7.071063125808971e+16
5.199436718578522,2418806360268132.5,8.083764050537371e+16,1013990665240836.5,1740766774347245.0,13313544678528.777,49987997808370.49,1961455607732150.8,7.363931955529842e+16
5.403425452950093,2420022526264790.0,8.390940480320371e+16,1014500495707885.5,1741642025623920.0,13852714654408.652,52012780844052.89,2040915699914576.5,7.662645856019414e+16
5.611493962009095,2421170371611650.5,8.70422761623545e+16,1014981685390324.1,1742468107846409.2,14402639496993.164,54077982252069.63,2121962069614564.0,7.967321330614245e+16
5.823723841249277,2422255396651819.0,9.023748769362434e+16,1015436540093784.6,1743248979505151.0,14963533749540.902,56184409520730.86,2204626408708554.2,8.278077242539464e+16
6.040198318074262,2423282545477161.5,9.34962959795313e+16,1015867132437136.9,1743988198767374.0,15535616263582.887,58332886402041.97,2288941047721682.5,8.595034855246235e+16
6.261002284435747,2424256274148866.0,9.681998165433565e+16,1016275330451302.5,1744688972574095.8,16119110276677.086,60524253207342.766,2374938967418771.0,8.918317874625851e+16
6.486222330124463,2425180609180396.0,1.0020984998085075e+17,1016662822095973.9,1745354198729165.5,16714243492995.016,62759367113733.72,2462653810821888.5,9.248052492941654e+16
6.715946776726952,2426059197860533.0,1.0366723142615186e+17,1017031136355601.2,1745986502115789.2,17321248166555.715,65039102480601.11,2552119895626976.0,9.584367434354592e+16
6.950265712261491,2426895351709479.5,1.0719348223796304e+17,1017381661456670.1,1746588265971031.2,17940361186965.16,67364351175715.12,2643372226998598.0,9.927394001946474e+16
7.18927102650672,2427692084132706.0,1.107899850232414e+17,1017715660652624.9,1747161658984566.5,18571824167553.58,69736022910503.68,2736446510726897.5,1.0277266126166664e+17
7.433056447036854,2428452143153282.5,1.1445814933026544e+17,1018034285945623.8,1747708658855491.2,19215883535830.37,72155045584207.67,2831379166735074.5,1.0634120414645595e+17
7.681717575977592,2429178039954264.0,1.181994122353578e+17,1018338590051829.2,1748231072833740.2,19872790626198.363,74622365636705.3,2928207342928773.0,1.0998096203332629e+17
7.935351927497144,2429872073841466.5,1.2201523893523189e+17,1018629536866089.9,1748730555685295.2,20542801774886.71,77138948409860.23,3026968929381577.5,1.1369335608927266e+17
8.194058966047088,2430536354137699.0,1.259071233458335e+17,1018908010640231.2,1749208625449041.8,21226178417075.285,79705778517302.08,3127702572852853.5,1.1747983582581917e+17
8.45794014536803,2431172819437979.0,1.29876588708453e+17,1019174824055082.6,1749666677294385.2,21923187186196.555,82323860222590.5,3230447691635970.0,1.213418796486209e+17
8.72709894827539,2431783254588266.5,1.3392518820380477e+17,1019430725338137.4,1750105995740515.5,22634100015409.168,84994217825752.05,3335244490736376.5,1.2528099541956034e+17
9.0016409272409,2432369305694471.0,1.3805450557470029e+17,1019676404555494.9,1750527765458077.8,23359194241245.5,87717896058208.67,3442133977380158.5,1.2929872103131253e+17
9.281673745785717,2432932493422269.0,1.4226615575789395e+17,1019912499187306.4,1750933080840817.0,24098752709443.18,90495960486140.27,3551157976854789.5,1.333966249943932e+17
9.567307220701432,2433474224809894.0,1.465617855256288e+17,1020139599079816.2,1751322954506998.2,24853063882974.098,93329497922347.1,3662359148684491.0,1.3757630703674226e+17
9.85865336511546,2433995803783559.0,1.509430741373736e+17,1020358250853556.0,1751698324867169.8,25622421952291.316,96219616846692.36,3775781003143436.0,1.4183939871592693e+17
10.155826432417769,2434498440538302.0,1.5541173400221392e+17,1020568961835891.1,1752060062875352.8,26407126947816.36,99167447835225.06,3891467918110652.0,1.4618756404407082e+17
10.458942961066125,2434983259924008.5,1.599695113523309e+17,1020772203576544.4,1752408978064318.2,27207484854693.42,102174143998093.25,4009465156270854.0,1.5062250012564224e+17
10.768121820287448,2435451308957258.0,1.646181869279796e+17,1020968414996635.0,1752745823951707.5,28023807729841.043,105240881426366.86,4129818882666106.0,1.5514593780825187e+17
11.083484256693197,2435903563563121.5,1.6935957667436758e+17,1021158005214928.2,1753071302891972.5,28856413821332.33,108368859647908.0,4252576182603408.5,1.5975964234662518e+17
11.405153941827061,2436340934637240.5,1.7419553245080733e+17,1021341356089120.9,1753386070439153.8,29705627690138.477,111559302092425.14,4377785079923859.5,1.6446541407993555e+17
11.733257020663602,2436764273506613.5,1.7912794275251984e+17,1021518824505062.8,1753690739276875.5,30571780334272.74,114813456565864.03,4505494555639149.0,1.6926508912269194e+17
12.067922161076874,2437174376857362.0,1.8415873344544397e+17,1021690744442532.9,1753985882764778.5,31455209315371.746,118132595734289.55,4635754566941702.0,1.7416054006938797e+17
12.409280604298411,2437571991189066.5,1.892898685144069e+17,1021857428842554.4,1754272038144234.2,32356258887755.68,121518017617424.5,4768616066594767.0,1.791536767131311e+17
12.75746621638438,2437957816847884.5,1.9452335082500115e+17,1022019171298107.5,1754549709440859.2,33275280130007.457,124971046092013.97,4904131022709212.0,1.8424644677848314e+17
13.112615540712067,2438332511683982.0,1.9986122289951072e+17,1022176247587382.4,1754819370096750.5,34212631079114.816,128493031405190.92,5042352438913982.0,1.8944083666874442e+17
13.474867851526309,2438696694373607.5,2.053055677072266e+17,1022328917066418.5,1755081465361273.0,35168676867218.81,132085350698025.08,5183334374927240.0,1.9473887222793254e+17
13.844365208556836,2439050947440972.0,2.1085850946948538e+17,1022477423935915.5,1755336414465879.5,36143789861014.72,135749408539442.44,5327131967535774.0,2.0014261951770656e+17
14.221252512727972,2439395820011200.5,2.165222144797757e+17,1022621998395301.4,1755584612605341.2,37138349803851.71,139486637470704.45,5473801451989907.0,2.056541856094991e+17
14.605677562982532,2439731830321825.0,2.2229889193923264e+17,1022762857695578.2,1755826432745218.0,38152743960579.2,143298498560648.16,5623400183822030.0,2.112757193921265e+17
14.997791114242183,2440059468017194.5,2.2819079480787414e+17,1022900207101163.8,1756062227273114.8,39187367265189.125,147186481971885.1,5775986661096481.0,2.1700941239514906e+17
15.397746936527026,2440379196247442.5,2.3420022067190576e+17,1023034240769800.5,1756292329509256.5,40242622471303.445,151152107538166.66,5931620547098896.0,2.2285749962827104e+17
15.805701875257567,2440691453591151.5,2.4032951262743242e+17,1023165142558563.4,1756517055090193.2,41318920305558.87,155196925353128.8,6090362693473604.0,2.288222604370602e+17
16.221815912762718,2440996655818851.0,2.46581060180924e+17,1023293086763133.6,1756736703237965.2,42416679623940.08,159322516370629.56,6252275163817297.0,2.3490601937529232e+17
16.64625223101797,2441295197512552.0,2.5295730016677482e+17,1023418238796724.9,1756951557925633.0,43536327571115.19,163530493016900.5,6417421257737875.0,2.4111114709421398e+17
17.079177275638333,2441587453554863.5,2.5946071768230182e+17,1023540755814348.2,1757161888948990.0,44678299742827.09,167822499814738.34,6585865535387204.0,2.4744006124903885e+17
17.5207608211511,2441873780499953.5,2.6609384704053587e+17,1023660787287513.6,1757367952913192.5,45843040351396.42,172200214019964.8,6757673842477053.0,2.5389522742298666e+17
17.97117603757412,2442154517837109.5,2.7285927274115507e+17,1023778475533950.8,1757569994142132.5,47031002394391.305,176665346270391.0,6932913335787278.0,2.6047916006918973e+17
18.430599558325603,2442429989156736.5,2.797596304599204e+17,1023893956206395.9,1757768245517588.2,48242647826522.28,181219641247522.75,7111652509175721.0,2.6719442347078976e+17
18.899211549492115,2442700503227544.0,2.867976080569733e+17,1024007358744164.6,1757962929254443.0,49478447734819.4,185864878351252.72,7293961220099622.0,2.7404363271956163e+17
19.37719578048196,2442966354992793.5,2.9397594660436314e+17,1024118806790785.9,1758154257617668.0,50738882517150.97,190602872387787.9,7479910716658096.0,2.8102945471339882e+17
19.864739696091597,2443227826492677.0,3.012974414331727e+17,1024228418580681.4,1758342433586147.8,52024442064144.414,195435474271064.0,7669573665165960.0,2.881546091730121e+17
20.36203449001343,2443485187719295.5,3.087649432006189e+17,1024336307297573.8,1758527651467990.5,53335625944569.77,200364571737904.53,7863024178268843.0,2.954218696781833e+17
20.869275179813698,2443738697409962.0,3.163813589775114e+17,1024442581407052.5,1758710097471438.5,54672943594248.15,205392090077191.53,8060337843610204.0,3.0283406472394125e+17
21.38666068340997,2443988603784047.0,3.241496533564452e+17,1024547344965471.6,1758889950235186.5,56036914508548.05,210519992873309.88,8261591753060652.0,3.1039407879701805e+17
21.91439389707817,2444235145228169.5,3.320728495811348e+17,1024650697907178.0,1759067381321474.0,57428068438534.04,215750282764142.8,8466864532520588.0,3.1810485347295424e+17
22.452681775019734,2444478550933921.0,3.4015403069726694e+17,1024752736311864.0,1759242555675060.5,58846945590832.21,221085002213894.34,8676236372306849.0,3.2596938853423456e+17
23.00173541052013,2444719041492083.5,3.483963407252952e+17,1024853552653663.6,1759415632050871.2,60294096831279.375,226526234301021.38,8889789058134921.0,3.339907431098314e+17
23.561770118730532,2444956829446850.0,3.568029858555635e+17,1024953236033494.2,1759586763412851.8,61770083892421.76,232076103521564.9,9107606002707756.0,3.4217203683654835e+17
24.133005521105144,2445192119813272.0,3.653772356661874e+17,1025051872395966.1,1759756097306364.5,63275479584933.055,237736776608173.7,9329772277923170.0,3.5051645104255526e+17
24.715665631527248,2445425110560825.5,3.741224243641102e+17,1025149544732111.0,1759923776206215.0,64810868013019.414,243510463365117.88,9556374647711282.0,3.590272299535216e+17
25.309978944157795,2445655993065823.5,3.830419520497548e+17,1025246333269027.4,1760089937842231.2,66376844793882.695,249399417519598.25,9787501601514450.0,3.6770768192174976e+17
25.91617852304095,2445884952535041.5,3.921392860057104e+17,1025342315647477.9,1760254715504139.8,67974017281312.05,255405937589660.56,1.0023243388421498e+16,3.765611806787314e+17
26.53450209350177,2446112168402832.0,4.014179620098867e+17,1025437567088359.6,1760418238327367.5,69603004793477.39,261532367769030.16,1.0263692051969228e+16,3.855911666115362e+17
27.165192135371807,2446337814703733.0,4.108815856735891e+17,1025532160548904.0,1760580631561200.0,71264438844997.19,267781098829188.28,1.0508941465623512e+16,3.948011480634777e+17
27.808495978079243,2446562060422426.5,4.20533833804958e+17,1025626166869387.5,1760742016820632.8,72958963383354.78,274154569039014.25,1.0759087368953196e+16,4.0419470265946995e+17
28.464665897640828,2446785069822770.0,4.303784557982365e+17,1025719654911068.1,1760902512323182.2,74687235029739.27,280655265102331.0,1.1014227404509798e+16,4.1377547865653766e+17
29.133959215593645,2447007002757465.5,4.4041927504933216e+17,1025812691685990.5,1761062233111727.8,76449923324387.22,287285723113689.56,1.12744611554266e+16,4.235471963199122e+17
29.816638399905518,2447228014959763.0,4.50660190398138e+17,1025905342479280.6,1761221291264467.5,78247710976501.98,294048529532732.25,1.1539890183750632e+16,4.335136493251751e+17
30.51297116790363,2447448258318557.5,4.6110517759810624e+17,1025997670964472.2,1761379796092886.2,80081294118830.47,300946322177500.25,1.181061806952155e+16,4.436787061869121e+17
31.223230591261704,2447667881138088.5,4.717582908135377e+17,1026089739312366.9,1761537854328665.0,81951382566975.72,307981791237020.06,1.2086750450611608e+16,4.540463117143428e+17
31.947695203086937,2447887028383338.0,4.826236641451108e+17,1026181608293906.8,1761695570300270.0,83858700083526.23,315157680303551.4,1.2368395063340812e+16,4.646204884944051e+17
32.686649107148675,2448105841912123.5,4.937055131841177e+17,1026273337377490.4,1761853046100021.8,85803984647085.02,322476787424856.4,1.2655661783882518e+16,4.754053384027738e+17
33.44038208929165,2448324460694969.5,5.0500813659594266e+17,1026364984821114.9,1762010381742295.2,87787988726279.3,329941966176867.56,1.2948662670473722e+16,4.864050441433071e+17
34.20918973107749,2448543021023427.5,5.165359177332755e+17,1026456607759732.0,1762167675313463.2,89811479558835.75,337556126757136.1,1.3247512006445668e+16,4.976238708164172e+17
34.993373525699035,2448761656707847.0,5.282933262796001e+17,1026548262288138.1,1762325023114220.5,91875239435805.72,345322237099452.4,1.3552326344090068e+16,5.090661675168646e+17
35.793240996213015,2448980499265198.5,5.402849199234711e+17,1026640003539726.1,1762482519794772.0,93980065991027.31,353243324010028.4,1.386322454937662e+16,5.2073636896149376e+17
36.60910581613728,2449199678097756.0,5.525153460641284e+17,1026731885761379.2,1762640258483397.0,96126772495910.03,361322474325654.8,1.4180327847537954e+16,5.3263899714742656e+17
37.44128793246003,2449419320663186.0,5.649893435489837e+17,1026823962384778.4,1762798330908889.2,98316188159630.5,369562836094225.6,1.4503759869538074e+16,5.44778663041235e+17
38.29011369110923,2449639552636661.0,5.777117444435357e+17,1026916286094370.5,1762956827517217.8,100549158434828.94,377967619778066.7,1.483364669944102e+16,5.571600682996342e+17
39.15591596493141,2449860498065643.0,5.906874758342716e+17,1027008908892240.4,1763115837582909.5,102826545328895.6,386540099480472.75,1.5170116922696592e+16,5.6978800702222496e+17
40.03903428423004,2450082279517675.0,6.03921561665117e+17,1027101882160074.8,1763275449315423.2,105149227720938.08,395283614195897.6,1.5513301675360002e+16,5.826673675368472e+17
40.93981496991464,2450305018221791.5,6.174191246080173e+17,1027195256718448.4,1763435749960920.2,107518101684523.6,404201569084224.5,1.5863334694263228e+16,5.958031342180841e+17
41.85861126931294,2450528834203963.5,6.311853879682177e+17,1027289082883589.1,1763596825899738.5,109934080816286.11,413297436769571.0,1.622035236815563e+16,6.092003893394894e+17
