t(s),Total solute volume 1,Total retention volume 1,Total 1 volume 1,Total 2 volume 1,Total 3 volume 1,Total 4 volume 1,Total 5 volume 1,Total 6 volume 1
0.1,898666397951953.1,1036126891881881.2,66325422320955.914,71135071608968.8,0.0,0.0,0.0,0.0
0.202,1352557829430732.8,1562296884542452.8,99824550699759.94,107063420694130.42,5418926566.41387,9866677279.717276,132023120272.29822,2703774993709.68
0.30604000000000003,1697131316365110.5,1963951749143047.2,125255547287660.7,134338569672664.95,13734513749.40379,25007593215.80177,334620067242.59296,6852953643403.662
0.41216080000000005,1987636687545833.0,2304488703851064.0,146696085752480.44,157333888721892.62,24369717444.770847,44372105928.932594,593732166749.7252,12159567840735.945
0.5204040160000001,2244769086083841.2,2607631794088308.0,165673556146195.16,177687528022842.1,37064850507.13443,67487408086.55046,903032875235.7742,18494038701602.086
0.6308120963200001,2478842509387607.0,2885197743580061.5,182949175577193.94,196215905054591.28,51677541117.09634,94094296808.07512,1259053868018.9539,25785327854727.86
0.7434283382464002,2695852102640846.5,3144054332203062.5,198965411393085.72,213393573097184.4,68123425843.92808,124039189694.88268,1659740111422.1921,33991342344990.598
0.8582969050113283,2899637778980402.0,3388602128556046.0,214005665601296.06,229524485318599.6,86351754594.17953,157229707308.90683,2103855518028.515,43086761675813.82
0.9754628431115548,3092829627666852.0,3621858174327829.5,228264050034407.88,244816829751625.9,106333352724.23878,193612755147.7403,2590689665384.929,53057031101686.33
1.094972099973786,3277319945063312.5,3845996702472967.5,241880224254656.6,259420393501578.8,128053940748.69856,233162360534.14514,3119895043780.676,63895028308357.3
1.2168715419732616,3454522460855741.0,4062645896790412.0,254958527557348.3,273447082124798.0,151510108888.50412,275872343336.90717,3691388984699.8125,75599054815596.53
1.3412089728127268,3625525279972140.0,4273062871387587.5,267579266738419.25,286983025939196.1,176706738867.08716,321751621784.714,4305290848968.629,88171549528209.56
1.4680331522689813,3791186320789141.5,4478242796678595.0,279805759842135.1,300096134555884.06,203655273440.69913,370821061801.70874,4961879868469.175,101618225287726.38
1.597393815314361,3952195617733636.5,4678990097724121.0,291688934359475.7,312841028520189.4,232372511218.31973,423111282770.7548,5661565785622.281,115947467531212.62
1.729341691620648,4109117530254872.0,4875966664603180.0,303270442430737.44,325262380416081.94,262879742050.79285,478661083393.50073,6404867790261.476,131169902885785.34
1.863928525453061,4262420241440581.5,5069725528841544.0,314584837969535.5,337397249866332.7,295202111619.5339,537516284870.449,7192399040581.093,147298082128018.34
2.001207095962122,4412496925767895.0,5260735018421642.0,325661138933311.25,349276759092543.44,329368145179.1785,599728863865.245,8024855061629.625,164346242557225.5
2.1412312378813647,4559681288268649.0,5449396482976088.0,336523974180187.8,360927322937373.7,365409384802.8034,665356292133.5466,8903004909140.723,182330127003798.78
2.284055862638992,4704259199829494.0,5636057561561187.0,347194442203850.9,372371569871387.7,403360109458.64777,734461026972.2351,9827684351463.127,201266844168571.38
2.4297369798917723,4846477562163759.0,5821022288803574.0,357690765406385.1,383629043711094.0,443257116763.1834,807110113970.9656,10799790554187.752,221174759737414.0
2.578331719489608,4986551166817305.0,6004558912843038.0,368028796322223.94,394716746552194.8,485139551480.1428,883374874881.7513,11820277903725.86,242073410821219.97
2.7298983538794,5124668075444812.0,6186906027297524.0,378222414705549.8,405649564652151.3,529048770012.9383,963330661029.1533,12890154707876.121,263983438356102.12
2.884496320956988,5260993892441522.0,6368277440948108.0,388283842868779.9,416440606635726.56,575028233006.3226,1047056657906.2528,14010480581303.113,286926533529864.06
3.0421862473761276,5395675195872013.0,6548866088673022.0,398223898899780.06,427101475074483.3,623123420182.6621,1134635730260.5022,15182364372807.56,310925395303507.7
3.2030299723236504,5528842320414960.0,6728847204644949.0,408052202055091.94,437642486774293.25,673381762971.7858,1226154299583.6838,16406962526194.49,336003696811856.06
3.3670905717701234,5660611635530340.0,6908380921112508.0,417777340898405.4,448072853106530.2,725852591532.7651,1321702247812.8164,17685477791870.906,362186058946018.56
3.5344323832055258,5791087426145098.0,7087614415087448.0,427407012103202.06,458400828876108.06,780587093530.9924,1421372842441.609,19019158224939.496,389498029802123.7
3.7051210308696363,5920363457240366.0,7266683695681466.0,436948135925987.7,468633836168369.8,837638282604.4099,1525262679280.8647,20409296419456.367,417966068965395.44
3.879223451487029,6048524284768590.0,7445715103209982.0,446406952957577.0,478778568116375.44,897060974883.551,1633471639890.6958,21857228939015.617,447617535813649.06
4.0568079205167695,6175646361287235.0,7624826575163373.0,455789105723588.25,488841076418737.4,958911772259.0511,1746102861306.2932,23364335911839.746,478480681188407.44
4.237944078927105,6301798974174968.0,7804128722149824.0,465099707928811.8,498826845605303.94,1023249051344.1935,1863262716141.383,24932040764738.574,510584641908513.7
4.422702960505647,6427045046326586.0,7983725747829437.0,474343403551910.9,508740856417176.8,1090132957277.7499,1985060801513.5974,26561810075121.43,543959437699849.7
4.61115701971576,6551441823127343.0,8163716239912980.0,483524417547076.6,518587640185026.25,1159625401668.0244,2111609935519.1233,28255153524032.12,578635970192314.5
4.803380160110075,6675041464800732.0,8344193853936931.0,492646599561817.6,528371325717132.94,1231790064102.1375,2243026160208.431,30013623936183.74,614646023696752.5
4.9994477633122765,6797891559558704.0,8525247907352738.0,501713461809641.06,538095679918439.3,1306692396743.1897,2379428750194.3066,31838817395366.363,652022267523669.0
5.199436718578522,6920035570106107.0,8706963898192686.0,510728212023997.1,547764143134168.8,1384399631617.1177,2520940226167.6377,33732373425534.918,690798259645096.2
5.403425452950093,7041513223775362.0,8889423959984141.0,519693782251870.8,557379860031427.8,1464980790255.3503,2667686372713.431,35695975229447.34,731008451533068.6
5.611493962009095,7162360854754203.0,9072707262522158.0,528612854111672.44,566945706688678.2,1548506695411.7627,2819796259915.04,37731349978002.5,772688194034272.5
5.823723841249277,7282611705415906.0,9256890366455814.0,537487881032676.94,576464314447908.4,1635049984615.4397,2977402268312.7217,39840269144473.55,815873744161911.2
6.040198318074262,7402296192587516.0,9442047538310220.0,546321107906772.56,585938090991431.6,1724685125356.2576,3140640116847.5767,42024548878698.83,860602272703603.0
6.261002284435747,7521442143639665.0,9628251031483386.0,555114588512890.25,595369239029871.2,1817488431729.871,3309648893475.4854,44286050417011.19,906911872558755.4
6.486222330124463,7640075006503623.0,9815571337873234.0,563870201017163.6,604759772926332.9,1913538082393.1758,3484571088180.619,46626680524289.32,954841567731251.2
6.715946776726952,7758218037083073.0,1.0004077414065404e+16,572589661804718.0,614111533531206.9,2012914139702.2454,3665552628155.7163,49048391965014.3,1004431322913534.6
6.950265712261491,7875892467001668.0,1.019383688541477e+16,581274537860159.5,623426201460449.1,2115698569921.9893,3852742914948.321,51553184000644.96,1055722053606976.8
7.18927102650672,7993117654191112.0,1.0384916230857812e+16,589926257881613.0,632705309015562.5,2221975264411.6855,4046294863398.901,54143102910987.13,1108755636730711.2
7.433056447036854,8109911218460850.0,1.0577380950881002e+16,598546122286354.0,641950250914796.0,2331830061703.262,4246364942220.2344,56820242537535.32,1163574921677547.5
7.681717575977592,8226289163886978.0,1.077129572072598e+16,607135312243622.5,651162293980982.0,2445350770399.995,4453113216086.772,59586744847036.766,1220223741780881.0
7.935351927497144,8342265989602212.0,1.0966724530621894e+16,615694897851410.0,660342585911264.9,2562627192832.556,4666703389120.1455,62444800513752.64,1278746926161312.2
8.194058966047088,8457854790354255.0,1.116373081459306e+16,624225845558085.8,669492163236924.0,2683751149417.714,4887302849671.574,65396649519088.664,1339190311925617.2
8.45794014536803,8573067348016964.0,1.1362377569182088e+16,632729024916316.2,678611958567045.5,2808816503671.78,5115082716314.972,68444581767443.73,1401600756694322.0
8.72709894827539,8687914215084580.0,1.1562727463254858e+16,641205214745294.9,687702807197630.6,2937919187837.3916,5350217884975.74,71590937717271.86,1466026151437280.8
9.0016409272409,8802404791047214.0,1.1764842939903918e+16,649655108767581.4,696765453157181.5,3071157229087.374,5592887077130.405,74838109026493.58,1532515433599240.2
9.281673745785717,8916547392432695.0,1.1968786311338924e+16,658079320778492.9,705800554750949.2,3208630776274.749,5843272889021.209,78188539211504.92,1601118600499990.8
9.567307220701432,9030349317203444.0,1.2174619847544618e+16,666478389398855.2,714808689658364.4,3350442127201.767,6101561841837.418,81644724319143.6,1671886722995765.5
9.85865336511546,9143816904113262.0,1.238240585939135e+16,674852782455809.5,723790359631486.5,3496695756385.281,6367944432822.595,85209213611065.94,1744871959390512.0
10.155826432417769,9256955587557576.0,1.259220677680346e+16,683202901030965.9,732745994836741.6,3647498343299.0044,6642615187273.3955,88884610260076.38,1820127569587534.0
10.458942961066125,9369769948387030.0,1.2804085222518844e+16,691529083210693.8,741675957877148.5,3802958801076.4277,6925772711401.666,92673572058026.02,1897707929473456.2
10.768121820287448,9482263761102202.0,1.301810408191439e+16,699831607569278.8,750580547528067.0,3963188305661.48,7217619746036.503,96578812134981.22,1977668545528145.5
11.083484256693197,9594440037797806.0,1.3234326569317006e+16,708110696412183.9,759460002215657.0,4128300325396.242,7518363221148.485,100603099689413.77,2060066069655395.0
11.405153941827061,9706301069185170.0,1.345281629117506e+16,716366518803706.1,768314503264070.1,4298410651038.1123,7828214311183.121,104749260729244.02,2144958314230653.8
11.733257020663602,9817848462985164.0,1.367363730642435e+16,724599193400521.5,777144177934488.5,4473637426200.87,8147388491194.088,109020178823613.67,2232404267363158.5
12.067922161076874,9929083179951878.0,1.3896854184347138e+16,732808791110385.9,785949102276611.8,4654101178216.463,8476105593772.103,113418795865332.72,2322464108370937.5
12.409280604298411,1.0040005567759566e+16,1.4122532060192322e+16,740995337593148.2,794729303811041.6,4839924849416.443,8814589866768.408,117948112843985.72,2415199223468409.0
12.75746621638438,1.0150615392961236e+16,1.4350736688797192e+16,749158815619431.8,803484764059000.6,5031233828834.253,9163070031816.107,122611190629743.72,2510672221667097.5
13.112615540712067,1.0260911871205092e+16,1.4581534496426958e+16,757299167300711.0,812215420934124.9,5228155984331.041,9521779343655.87,127411150767972.34,2608946950891064.5
13.474867851526309,1.0370893695875138e+16,1.481499263102789e+16,765416296203142.6,820921171009587.0,5430821695150.182,9890955650276.043,132351176284767.77,2710088514309801.5
13.844365208556836,1.0480559065306918e+16,1.505117901106967e+16,773510069356196.0,829601871672370.4,5639363884906.963,10270841453881.389,137434512503609.86,2814163286891774.0
14.221252512727972,1.0589905708712042e+16,1.5290162373137612e+16,781580319165966.4,838257343175356.0,5853918055022.01,10661683972706.004,142664467873354.72,2921238932183183.0
14.605677562982532,1.0698930910932724e+16,1.5532012318419056e+16,789626845242212.5,846887370596814.1,6074622318608.724,11063735203691.951,148044414807836.8,3031384419317185.5
14.997791114242183,1.080763153613534e+16,1.5776799358215996e+16,797649416147002.2,855491705715875.4,6301617434826.47,11477251986055.469,153577790537390.84,3144670040259513.0
15.397746936527026,1.0916004050540262e+16,1.602459495860405e+16,805647771072288.8,864070068811764.2,6535046843713.149,11902496065767.797,159268097972651.16,3261167427297591.0
15.805701875257567,1.1024044544276492e+16,1.6275471584347292e+16,813621621452882.0,872622150393713.2,6775056701512.378,12339734160979.41,165118906581010.56,3380949570780694.5
16.221815912762718,1.1131748752439954e+16,1.6529502742169394e+16,821570652520623.4,881147612867861.2,7021795916511.843,12789238028420.205,171133853276182.34,3504090837119851.0
16.64625223101797,1.1239112075426508e+16,1.6786763023472504e+16,829494524805060.4,889646092146742.1,7275416185411.328,13251284530810.242,177316643321329.97,3630666987056645.0
17.079177275638333,1.1346129598603774e+16,1.7047328146588486e+16,837392875585313.5,898117199206433.9,7536072030240.23,13726155705319.416,183671051246273.5,3760755194211137.5
17.5207608211511,1.1452796111379164e+16,1.7311274998640394e+16,845265320297367.8,906560521595908.4,7803920835845.792,14214138833116.889,190200921779323.97,3894434063919645.5
17.97117603757412,1.1559106125715376e+16,1.7578681677085e+16,853111453900613.1,914975624902653.0,8079122887974.954,14715526510053.092,196910170794327.2,4031783652374019.0
18.430599558325603,1.1665053894139506e+16,1.784962753100344e+16,860930852206968.5,923362054178204.1,8361841411974.223,15230616718521.385,203802786273535.53,4172885486074723.5
18.899211549492115,1.1770633427287006e+16,1.812419320219998e+16,868723073175727.5,931719335326852.2,8652242612132.995,15759712900547.838,210882829286972.06,4317822581610781.5
19.37719578048196,1.187583851101694e+16,1.8402460666167068e+16,876487658176717.2,940046976460434.6,8950495711697.682,16303124032160.555,218154434988962.9,4466679465780180.5
19.864739696091597,1.1980662723131152e+16,1.868451327296784e+16,884224133224254.2,948344469221754.6,9256772993584.838,16861164699092.986,225621813632582.5,4619542196065422.0
20.36203449001343,1.208509944972624e+16,1.897043578808662e+16,891932010183991.9,956611290078946.2,9571249841823.318,17434155173877.135,233289251602754.7,4776498381478985.0
20.869275179813698,1.218914190120363e+16,1.9260314433292584e+16,899610787954523.6,964846901592766.9,9894104783756.293,18022421494386.72,241161112468809.03,4937637203794690.0
21.38666068340997,1.2292783127959942e+16,1.9554236927559436e+16,907259953625404.4,973050753658594.5,10225519533035.354,18626295543890.125,249241838057314.25,5103049439181249.0
21.91439389707817,1.2396016035777024e+16,1.985229252808173e+16,914878983613007.0,981222284724642.6,10565679033440.54,19246115132678.23,257535949546042.06,5272827480254871.0
22.452681775019734,1.2498833400928586e+16,2.0154572071425172e+16,922467344775438.6,989360922987738.5,10914771503560.715,19882224081332.074,266048048579943.06,5447065358568593.0
23.00173541052013,1.2601227885017086e+16,2.046116801484713e+16,930024495507588.0,997466087567767.1,11272988482369.777,20534972305698.355,274782818410050.4,5625858767556572.0
23.561770118730532,1.270319204955369e+16,2.0772174477819892e+16,937549886817173.0,1005537189661759.9,11640524875735.988,21204715903643.28,283745025056246.94,5809305085951639.0
24.133005521105144,1.2804718370290674e+16,2.108768728378969e+16,945042963382536.9,1013573633678385.5,12017579003902.078,21891817243655.934,292939518494858.75,5997503401695663.0
24.715665631527248,1.290579925131459e+16,2.140780400220045e+16,952503164592793.0,1021574818353536.0,12404352649974.326,22596645055375.402,302371233872073.25,6190554536362110.0
25.309978944157795,1.3006427038906686e+16,2.173262399081177e+16,959929925570770.8,1029540137847442.1,12801051109461.223,23319574522117.027,312045192744183.2,6388561070111105.0
25.91617852304095,1.3106594035175224e+16,2.206224843833738e+16,967322678179142.6,1037468982823765.8,13207883240901.064,24060987375474.125,321966504345696.2,6591627367197148.0
26.53450209350177,1.320629251146288e+16,2.239678040743063e+16,974680852009953.6,1045360741510880.4,13625061517620.37,24821271992074.84,332140366886363.75,6799859602050853.0
27.165192135371807,1.3305514721531602e+16,2.2736324878041776e+16,982003875357719.0,1053214800745538.1,14052802080664.361,25600823492572.977,342572068878194.8,7013365785955425.0
27.808495978079243,1.3404252914525624e+16,2.308098879117005e+16,989291176176129.2,1061030546998962.2,14491324792942.379,26400043842953.92,353266990493555.44,7232255794339863.0
28.464665897640828,1.3502499347711838e+16,2.3430881093034092e+16,996542183018384.1,1068807367385338.9,14940853294630.64,27219341958238.46,364230604955428.8,7456641394710241.0
29.133959215593645,1.360024629899716e+16,2.3786112779681664e+16,1003756325960993.0,1076544650652643.2,15401615059875.695,28059133808665.594,375468479960990.1,7686636275241314.0
29.816638399905518,1.369748607921989e+16,2.4146796942060056e+16,1010933037510939.6,1084241788155567.4,15873841454842.283,28919842528440.906,386986279139570.44,7922356074050774.0
30.51297116790363,1.379421104421244e+16,2.4513048811567156e+16,1018071753495973.6,1091898174810374.1,16357767797149.275,29801898527131.598,398789763546185.94,8163918409177895.0
31.223230591261704,1.3890413606631632e+16,2.4884985806102628e+16,1025171913937728.4,1099513210031336.4,16853633416737.574,30705739603794.664,410884793191736.1,8411442909289607.0
31.947695203086937,1.3986086247552556e+16,2.5262727576637384e+16,1032232963907383.0,1107086298648447.8,17361681718213.738,31631811063922.574,423277328611029.5,8665051245135856.0
32.686649107148675,1.4081221527820144e+16,2.5646396054320428e+16,1039254354363494.2,1114616851805998.0,17882160244713.57,32580565839291.305,435973432469766.4,8924867161777030.0
33.44038208929165,1.417581209915457e+16,2.6036115498138892e+16,1046235542971582.5,1122104287841613.6,18415320743328.566,33552464610794.84,448979271211623.4,9191016511605392.0
34.20918973107749,1.4269850715003224e+16,2.6432012543149588e+16,1053175994905080.2,1129548033145265.5,18961419232139.52,34547975934351.46,462301116746560.2,9463627288182990.0
34.993373525699035,1.4363330241134176e+16,2.6834216249297364e+16,1060075183627167.1,1136947522997817.0,19520716068899.277,35567576369964.695,475945348181502.3,9742829660917836.0
35.793240996213015,1.445624366596453e+16,2.724285815083611e+16,1066932591653034.9,1144302202388557.8,20093476021407.44,36611750614022.81,489918453594477.6,1.0028756010600112e+16
36.60910581613728,1.454858411061659e+16,2.765807230636791e+16,1073747711292100.0,1151611526811231.0,20679968339618.81,37680991634917.66,504227031853345.8,1.0321540965820102e+16
37.44128793246003,1.4640344838696174e+16,2.8079995349514064e+16,1080520045369661.8,1158874963038038.0,21280466829526.35,38775800812065.414,518877794480191.1,1.062132144028844e+16
38.29011369110923,1.4731519265785444e+16,2.8508766540233772e+16,1087249107927531.2,1166091989871067.2,21895249928859.305,39896688078407.79,533877567562455.3,1.0928236671079976e+16
39.15591596493141,1.4822100968644108e+16,2.8944527816801812e+16,1093934424903095.8,1173262098870602.2,22524600784634.8,41044172066472.34,549233293711870.75,1.124242825782105e+16
40.03903428423004,1.4912083694111748e+16,2.938742384846113e+16,1100575534786388.2,1180384795059833.5,23168807332601.844,42218780258068.51,564952034072207.2,1.156404020284029e+16
40.93981496991464,1.5001461367705698e+16,2.983760208876053e+16,1107171989254601.9,1187459597605394.5,23828162378614.867,43421049137693.305,581040970376855.6,1.1893218952301642e+16
41.85861126931294,1.5090228101907036e+16,3.029521282959181e+16,1113723353783664.0,1194486040473275.5,24502963681970.96,44651524349720.22,597507407057219.0,1.2230113438338912e+16
42.7957834946992,1.5178378204129068e+16,3.076040925593729e+16,1120229208236333.0,1201463673059581.0,25193514040747.625,45910760859441.75,614358773402869.1,1.2574875122209204e+16
43.751699164593184,1.5265906184362886e+16,3.1233347501339284e+16,1126689147426467.8,1208392060795702.2,25900121379171.7,47199323118032.6,631602625774366.5,1.2927658038482706e+16
44.72673314788505,1.535280676249362e+16,3.1714186704103844e+16,1133102781659011.2,1215270785727463.5,26623098837052.445,48517785231501.24,649246649869678.9,1.3288618840285478e+16
