t(s),Total solute volume 1,Total retention volume 1,Total 1 volume 1,Total 2 volume 1,Total 3 volume 1,Total 4 volume 1,Total 5 volume 1,Total 6 volume 1
0.1,919935341976466.9,1072551036543860.6,72903600131805.52,79712094435588.67,0.0,0.0,0.0,0.0
0.202,1373150885457864.8,1626771827373099.0,108820303675155.69,118983072878815.17,44314379204.0777,83117456611.21054,1162751663738.2935,24527381861710.023
0.30604000000000003,1708796949693351.5,2057181505190336.0,135419788893757.73,148066694142209.84,111390871734.71542,208931407376.53192,2922807191043.4146,61654942990862.22
0.41216080000000005,1984837580121927.0,2428322530588668.0,157295626118656.75,171985524108406.7,196016182456.8391,367665347207.1565,5143397938267.448,108496720771746.22
0.5204040160000001,2223168091781397.0,2764254761616501.0,176182988716444.06,192636784666154.0,295670740210.68774,554594920179.774,7758434238079.139,163658196554039.56
0.6308120963200001,2434792716835654.0,3076925109226622.0,192953946830005.12,210973988924196.12,408838901669.04895,766878651583.7472,10728166891635.658,226300572191883.7
0.7434283382464002,2626162324323350.5,3373262462334610.5,208119722886666.75,227556102567191.88,534504023532.08344,1002610954002.3801,14025939179643.314,295861258400225.0
0.8582969050113283,2801444411501497.5,3657702304266623.5,222010585265708.84,242744237863681.94,671939136539.6292,1260429541440.3074,17632694824109.76,371938006133651.5
0.9754628431115548,2963518500540972.5,3933286583401606.0,234854732106560.5,256787904463697.75,820602829764.6003,1539320165971.0398,21534246384145.312,454231276910495.6
1.094972099973786,3114474879006301.5,4202211255675844.5,246817815800372.6,269868225097775.75,980080999275.1478,1838507372574.472,25719746993463.97,542512000406078.25
1.2168715419732616,3255889456093284.0,4466126113462302.0,258024724965776.1,282121751779754.75,1150051445959.4119,2157388107041.852,30180761584389.383,636601979486091.0
1.3412089728127268,3388986494098798.5,4726311183749675.0,268572480692237.34,293654566435207.3,1330260994934.049,2495488807663.8594,34910666634110.61,736361226086733.1
1.4680331522689813,3514740510155076.5,4983786500392308.0,278538312111212.38,304551110653253.25,1520509987446.6128,2852436323694.914,39904243337947.08,841679377823680.1
1.597393815314361,3633943030000227.0,5239383572406042.0,287984946539902.06,314879969878849.3,1720641364136.385,3227937444670.55,45157391242369.99,952469655935892.9
1.729341691620648,3747247969680362.0,5493793677454512.0,296964205918226.56,324697805722363.6,1930532739727.7817,3621764039992.848,50666920361667.42,1068664478992159.1
1.863928525453061,3855203461413201.5,5747601529122789.0,305519528964382.25,334052113660209.6,2150090500539.133,4033741992201.6436,56430396365551.336,1190212196226708.0
2.001207095962122,3958274770290192.0,6001309379140524.0,313687787291712.94,342983208759545.3,2379245313094.1255,4463742776710.15,62446022788904.25,1317074601920361.5
2.1412312378813647,4056861175364461.0,6255354671601778.0,321500623211521.2,351525688419004.1,2617948643539.851,4911676937285.806,68712549761654.25,1449225009264320.8
2.284055862638992,4151308653247350.0,6510123234931531.0,328985454890509.2,359709531398161.3,2866170017851.6455,5377488950883.116,75229202174716.88,1586646734252058.8
2.4297369798917723,4241919574972979.5,6765959314285008.0,336166244813847.4,367560938047662.06,3123894835843.644,5861153131168.735,81995622376536.92,1729331886106966.0
2.578331719489608,4328960234380065.0,7023173321194605.0,343064096398994.3,375102982641033.56,3391122606507.5654,6362670322297.131,89011823924725.86,1877280390920975.0
2.7298983538794,4412666773670774.0,7282047904169571.0,349697723588024.5,382356126822408.44,3667865508907.729,6882065203332.461,96278153880271.44,2030499195495854.5
2.884496320956988,4493249905155909.0,7542842764388092.0,356083825039379.4,389338628744200.2,3954147208145.45,7419384071133.484,103795261795182.98,2189001612374135.8
3.0421862473761276,4570898715772543.0,7805798519902214.0,362237385630625.0,396066872727295.25,4250001873680.288,7974693002851.383,111564074010742.05,2352806776884478.5
3.2030299723236504,4645783763590776.0,8071139838983415.0,368171921852304.75,402555637572352.1,4555473360016.95,8548076323048.857,119585772217287.56,2521939194067627.0
3.3670905717701234,4718059621312201.0,8339078005419912.0,373899683376681.1,408818316953106.3,4870614519022.056,9139635317805.812,127861775469282.11,2696428358471822.5
3.5344323832055258,4787866983148818.0,8609813037538525.0,379431820024954.3,414867101976735.3,5195486619967.902,9749487150991.932,136393725028667.8,2876308433588389.5
3.7051210308696363,4855334423554390.0,8883535453154524.0,384778521144297.44,420713133577350.06,5530158858513.859,10377763947476.07,145183471543678.97,3061617980528830.5
3.879223451487029,4920579875821487.0,9160427751057240.0,389949132784607.6,426366630635951.4,5874707939709.497,11024612015306.504,154233064171903.7,3252399727688269.5
4.0568079205167695,4983711883373770.0,9440665663664700.0,394952256861696.94,431836998404475.8,6229217723071.225,11690191184462.736,163544741334237.1,3448700374783004.0
4.237944078927105,5044830665184267.0,9724419223530674.0,399795835590204.6,437132920823963.1,6593778920081.747,12374674244086.955,173120922846660.4,3650570425921425.5
4.422702960505647,5104029028101102.0,1.0011853677347484e+16,404487223784150.56,442262439577260.94,6968488836256.88,13078246463471.604,182964203223871.25,3858064047361362.0
4.61115701971576,5161393152232207.0,1.0303130274184854e+16,409033251097583.5,447233022142364.7,7353451151340.651,13801105184735.11,193077345985952.47,4071238946390656.5
4.803380160110075,5217003270414032.0,1.0598406949383108e+16,413440275871535.75,452051620668151.44,7748775732315.277,14543459477229.07,203463278828805.9,4290156268391032.5
4.9994477633122765,5270934258788210.0,1.089783892137982e+16,417714231936398.06,456724723147652.0,8154578474814.478,15305529845412.61,214125089542746.94,4514880509644587.0
5.199436718578522,5323256152363781.0,1.120157921550513e+16,421860669469525.8,461258398091355.94,8570981169257.045,16087547983295.266,225066022582756.28,4745479443845156.0
5.403425452950093,5374034596950051.0,1.1509779126219408e+16,425884790810274.44,465658333687036.6,8998111388609.176,16889756569658.805,236289476209417.0,4982024060604363.0
5.611493962009095,5423331246854338.0,1.1822588627228072e+16,429791481977001.4,469929872260135.56,9436102395167.098,17712409099176.977,247799000132251.78,5224588514509989.0
5.823723841249277,5471204116141042.0,1.2140156737276492e+16,433585340503867.3,474078040710243.06,9885093064150.184,18555769745297.246,259598293597625.47,5473250083514285.0
6.040198318074262,5517707889955442.0,1.2462631848113296e+16,437270700112801.7,478107577487205.06,10345227822223.785,19420113251367.652,271691203872004.44,5728089135612233.0
6.261002284435747,5562894201364922.0,1.279016202004339e+16,440851652652796.9,482022956579318.7,10816656599343.684,20305724847003.61,284081725078572.5,5989189102921431.0
6.486222330124463,5606811878310087.0,1.3122895249624338e+16,444332067670437.7,485828408911572.1,11299534792544.662,21212900187121.168,296773997351179.5,6256636462401396.0
6.715946776726952,5649507164552003.0,1.3460979713346042e+16,447715609919662.25,489527941490648.0,11794023240485.543,22141945311421.742,309772306274671.94,6530520722557141.0
6.950265712261491,5691023917917090.0,1.380456399054811e+16,451005755072400.1,493125354582774.9,12300288207727.066,23093176622418.117,323081082584885.9,6810934415560799.0
7.18927102650672,5731403788656661.0,1.4153797268343784e+16,454205803853310.7,496624257168523.06,12818501377854.424,24066920880350.64,336704902105215.25,7097973094301860.0
7.433056447036854,5770686380333015.0,1.4508829530914824e+16,457318894789790.44,500028080883542.0,13348839854675.156,25063515213559.445,350648485899711.1,7391735333940539.0
7.681717575977592,5808909395305790.0,1.4869811735205938e+16,460348015741560.94,503340092624886.56,13891486170819.678,26083307143068.074,364916700625301.06,7692322737594507.0
7.935351927497144,5846108766606411.0,1.5236895974763514e+16,463296014351533.5,506563405977912.0,14446628303160.746,27126654620293.375,379514559067977.75,7999839945836227.0
8.194058966047088,5882318777748276.0,1.5610235633226834e+16,466165607540606.3,509700991597773.2,15014459694538.287,28193926076934.91,394447220849716.94,8314394649719000.0
8.45794014536803,5917572171815938.0,1.598998552877789e+16,468959390152827.4,512755686661980.6,15595179281342.08,29285500486217.293,409719993294568.9,8636097607085017.0
8.72709894827539,5951900251003027.0,1.6376302050685866e+16,471679842843637.5,515730203495315.56,16188991526557.332,30401767434760.023,425338332443812.7,8965062661938741.0
9.0016409272409,5985332967620387.0,1.6769343288937858e+16,474329339292135.9,518627137455657.1,16796106457927.986,31543127204443.594,441307844211324.8,9301406766696016.0
9.281673745785717,6017899007468738.0,1.716926915782287e+16,476910152808254.7,521448974158209.56,17416739710932.033,32709990863713.69,457634285671403.8,9645250007141648.0
9.567307220701432,6049625866361689.0,1.7576241514230422e+16,479424462397094.8,524198096106176.4,18051112576301.324,33902780367837.92,474323566472252.9,9996715629949070.0
9.85865336511546,6080539920489994.0,1.7990424271334106e+16,481874358335199.1,526876788787812.1,18699452051848.23,35121928667688.46,491381750369174.25,1.0355930072632376e+16
10.155826432417769,6110666491237501.0,1.8411983508252024e+16,484261847307128.94,529487246292705.3,19361990898390.496,36367879826675.555,508815056872253.7,1.0723022995817334e+16
10.458942961066125,6140029904988539.0,1.884108757620824e+16,486588857145108.0,532031576494055.2,20038967699590.61,37641089145506.37,526629863003981.6,1.1098127317731438e+16
10.768121820287448,6168653548404842.0,1.9277907201660396e+16,488857241209651.7,534511805838414.44,20730626925545.383,38942023294480.89,544832705162833.8,1.148137925082462e+16
11.083484256693197,6196559919597632.0,1.972261558680828e+16,491068782444877.7,536929883779720.8,21437218999983.79,40271160453078.16,563430281089335.2,1.187291834044368e+16
11.405153941827061,6223770675572932.0,2.0175388507853304e+16,493225197138485.2,539287686890430.75,22159000370944.902,41628990456614.46,582429451931588.0,1.227288750549231e+16
11.733257020663602,6250306676288300.0,2.0636404411339996e+16,495328138413185.2,541587022679008.4,22896233584825.52,43016014949785.41,601837244407704.0,1.2681433081017192e+16
12.067922161076874,6276188025622585.0,2.1105844508878068e+16,497379199473499.75,543829633139945.7,23649187363697.734,44432747546931.8,621660853062818.2,1.3098704862668602e+16
12.409280604298411,6301434109529131.0,2.1583892870511372e+16,499379916629353.94,546017198059733.3,24418136685812.062,45879713998888.89,641907642618864.9,1.3524856152989606e+16
12.75746621638438,6326063631615490.0,2.2070736516977332e+16,501331772115710.25,548151338099815.75,25203362869208.24,47357452366303.18,662585150415410.9,1.3960043809495398e+16
13.112615540712067,6350094646367221.0,2.256656551107417e+16,503236196725516.0,550233617675434.5,26005153658369.562,48866513199315.68,683701088940255.2,1.440442829450804e+16
13.474867851526309,6373544590212689.0,2.30715730483359e+16,505094572271541.5,552265547647375.94,26823803313861.695,50407459723532.96,705263348448627.1,1.485817372671829e+16
13.844365208556836,6396430310605611.0,2.3585955547195424e+16,506908233891134.9,554248587841970.44,27659612704907.133,51980868032216.31,727279999670114.1,1.532144793444944e+16
14.221252512727972,6418768093285922.0,2.4109912738800176e+16,508678472206603.3,556184149413232.6,28512889404851.086,53587327284639.16,749759296602602.5,1.5794422510602338e+16
14.605677562982532,6440573687863207.0,2.4643647756632828e+16,510406535352672.56,558073597059660.94,29383947789483.31,55227439910571.61,772709679392699.9,1.6277272869264526e+16
14.997791114242183,6461862331854514.0,2.518736722607409e+16,512093630881437.7,559918251107100.94,30273109138183.707,56901821820864.21,796139777302290.4,1.677017830396972e+16
15.397746936527026,6482648773295197.0,2.5741281354036076e+16,513740927554253.9,561719389467971.5,31180701737865.242,58611102624114.28,820058411760992.4,1.7273322047595656e+16
15.805701875257567,6502947292031417.0,2.630560401878356e+16,515349557029128.7,563478249486252.5,32107060989693.902,60355925849405.664,844474599504467.5,1.778689133389316e+16
16.221815912762718,6522771719792612.0,2.6880552860052284e+16,516920615451443.56,565196029676758.8,33052529518566.26,62136949175125.29,869397555798607.6,1.8311077460639172e+16
16.64625223101797,6542135459133927.0,2.746634936956486e+16,518455164955110.0,566873891366489.5,34017457285331.973,63954844663862.85,894836697749785.2,1.884607585441037e+16
17.079177275638333,6561051501330342.0,2.80632189820384e+16,519954235080657.44,568512960245157.8,35002201701751.027,65810299003413.72,920801647701435.4,1.9392086136975656e+16
17.5207608211511,6579532443297642.0,2.867139116677221e+16,521418824116197.5,570114327831385.1,36007127748176.28,67704013753908.15,947302236717346.6,1.9949312193307544e+16
17.97117603757412,6597590503608672.0,2.9291099519896028e+16,522849900366685.94,571679052860486.5,37032608093958.586,69636705601096.68,974348508152146.5,2.051796224121297e+16
18.430599558325603,6615237537667397.0,2.99225818573574e+16,524248403356450.1,573208162599331.2,38079023220571.47,71609106615830.4,1001950721309511.1,2.1098248902588276e+16
18.899211549492115,6632485052098889.0,3.0566080308719636e+16,525615244969574.2,574702654093204.6,39146761547454.414,73621964519777.61,1030119355188759.6,2.169038927630199e+16
19.37719578048196,6649344218407615.0,3.122184141183856e+16,526951310532296.4,576163495349298.9,40236219560577.88,75676042957423.47,1058865112320561.9,2.229460501271073e+16
19.864739696091597,6665825885952757.0,3.189011620848232e+16,528257459841291.8,577591626461028.2,41347801943732.43,77772121774409.81,1088198922692509.9,2.2911122389816572e+16
20.36203449001343,6681940594285588.0,3.257116034095678e+16,529534528141385.25,578987960677050.6,42481921712548.68,79910997302269.61,1118131947765436.9,2.3540172391072548e+16
20.869275179813698,6697698584889639.0,3.3265234149792372e+16,530783327055947.7,580353385418554.8,43639000351253.445,82093482649617.3,1148675584581428.8,2.4181990784845932e+16
21.38666068340997,6713109812362150.0,3.397260277254939e+16,532004645473006.7,581688763248125.9,44819467952170.21,84320407999867.0,1179841469964457.8,2.483681820554959e+16
21.91439389707817,6728183955071498.0,3.4693536243793788e+16,533199250389840.2,582994932793205.9,46023763357973.12,86592620915542.08,1211641484814709.0,2.5504900236451016e+16
22.452681775019734,6742930425323419.0,3.542830959629428e+16,534367887718628.6,584272709627001.6,47252334306705.945,88910986649258.27,1244087758497723.5,2.618648749417153e+16
23.00173541052013,6757358379065807.0,3.617720296348886e+16,535511283055547.1,585522887109394.0,48505637579572.32,91276388461449.64,1277192673329479.0,2.6881835714887604e+16
23.561770118730532,6771476725159948.0,3.69405016832674e+16,536630142415499.94,586746237190288.0,49784139151516.164,93689727944929.11,1310968869158605.2,2.7591205842246452e+16
24.133005521105144,6785294134244020.0,3.771849640311451e+16,537725152934545.0,587943511177642.6,51088314344595.55,96151925356358.4,1345429248047005.2,2.831486411701033e+16
24.715665631527248,6798819047212792.0,3.8511483186658184e+16,538796983541888.5,589115440472217.9,52418647984169.984,98663919954724.66,1380586979050202.2,2.9053082168442176e+16
25.309978944157795,6812059683335706.0,3.931976362166111e+16,539846285603237.7,590262737271018.0,53775634557910.3,101226670346909.66,1416455503098702.8,2.980613710744766e+16
25.91617852304095,6825024048033993.0,4.014364492950076e+16,540873693537128.7,591386095241165.8,55159778377645.36,103841154840445.81,1453048537981836.5,3.05743116214885e+16
26.53450209350177,6837719940336131.0,4.098344007617216e+16,541879825405754.5,592486190165923.5,56571593744057.5,106508371803561.8,1490380083435458.2,3.13578940712813e+16
27.165192135371807,6850154960029548.0,4.183946788485518e+16,542865283481731.5,593563680564379.0,58011605114243.11,109229340032609.78,1528464426335006.8,3.215717858929771e+16
27.808495978079243,6862336514525158.0,4.271205315008031e+16,543830654792108.3,594619208286259.8,59480347272148.234,112005099126985.48,1567316145995446.0,3.2972465180082196e+16
28.464665897640828,6874271825450531.0,4.36015267535296e+16,544776511640855.94,595653399083225.5,60978365501894.9,114836709871639.23,1606950119579636.5,3.380405982240185e+16
29.133959215593645,6885967934986057.0,4.450822578150863e+16,545703412111007.06,596666863157901.0,62506215764009.47,117725254627292.55,1647381527616741.5,3.4652274573245636e+16
29.816638399905518,6897431711957847.0,4.5432493644120936e+16,546611900547509.9,597660195691816.9,64064464874567.12,120671837728465.38,1688625859632334.2,3.5517427673688384e+16
30.51297116790363,6908669857700066.0,4.637468019618001e+16,547502508021805.25,598633977353383.2,65653690687262.91,123677585889430.08,1730698919891775.8,3.639984365663629e+16
31.223230591261704,6919688911698620.0,4.733514185989026e+16,548375752779086.9,599588774786909.4,67274482278422.55,126743648618207.78,1773616833258746.5,3.729985345647036e+16
31.947695203086937,6930495257027402.0,4.831424174932735e+16,549232140669111.06,600525141083658.4,68927440134963.79,129871198638724.16,1817396051170516.8,3.821779452060299e+16
32.686649107148675,6941095125587574.0,4.9312349796749384e+16,550072165561402.94,601443616235819.0,70613176345316.77,133061432321242.08,1862053357731833.5,3.915401092296615e+16
33.44038208929165,6951494603159670.0,5.032984288076892e+16,550896309745637.2,602344727574286.8,72332314793316.92,136315570121199.02,1907605875929211.8,4.0108853479445544e+16
34.20918973107749,6961699634277971.0,5.1367104956413656e+16,551705044317910.8,603228990191006.6,74085491355074.16,139634857026570.27,1954071073967485.2,4.108267986527772e+16
34.993373525699035,6971716026935515.0,5.242452718710467e+16,552498829553621.94,604096907346669.4,75873354098830.5,143020563013881.47,2001466771730516.0,4.207585473442559e+16
35.793240996213015,6981549457128345.0,5.35025080785794e+16,553278115267591.06,604948970864479.2,77696563487808.42,146473983513007.44,2049811147367972.5,4.308874984095028e+16
36.60910581613728,6991205473246381.0,5.460145361478715e+16,554043341162022.56,605785661510600.1,79555792586060.38,149996439880878.56,2099122744010122.5,4.412174416239113e+16
37.44128793246003,7000689500318259.0,5.572177739578069e+16,554794937162917.5,606607449361988.1,81451727267318.12,153589279884233.22,2149420476612652.2,4.517522402517326e+16
38.29011369110923,7010006844117121.0,5.686390077763226e+16,555533323745444.2,607414794162150.5,83385066426847.78,157253878191552.75,2200723638933504.8,4.624958323205559e+16
39.15591596493141,7019162695133781.0,5.8028253014395544e+16,556258912248800.25,608208145665412.1,85356522196313.11,160991636874305.2,2253051910643819.5,4.734522319163305e+16
40.03903428423004,7028162132423217.0,5.921527140213918e+16,556972105181051.8,608987943970224.8,87366820161640.97,164803985917650.84,2306425364574990.0,4.846255304991036e+16
40.93981496991464,7037010127330387.0,6.0425401425074024e+16,557673296514401.0,609754619842004.9,89416699583892.86,168692383740735.8,2360864474104072.0,4.9601989823958504e+16
41.85861126931294,7045711547100939.0,6.1659096903795464e+16,558362871971309.94,610508595025987.8,91506913623134.98,172658317726724.0,2416390120679509.0,5.0763958537667864e+16
42.7957834946992,7054271158381434.0,6.2916820145663896e+16,559041209301917.8,611250282550545.0,93638229565302.78,176703304762709.56,2473023601489557.5,5.194889235961232e+16
43.751699164593184,7062693630614859.0,6.419904209734087e+16,559708678553105.2,611980087021374.1,95811429052048.22,180828891789652.6,2530786637275386.5,5.31572327430344e+16
44.72673314788505,7070983539335326.0,6.5506242499502744e+16,560365642329605.25,612698404907011.2,98027308313564.66,185036656362486.8,2589701380291318.5,5.438942956796348e+16
