t(s),Total solute volume 1,Total retention volume 1,Total 1 volume 1,Total 2 volume 1,Total 3 volume 1,Total 4 volume 1,Total 5 volume 1,Total 6 volume 1
0.1,1393105271922661.8,5193352995607505.0,1226369007487646.5,2573878716197194.5,0.0,0.0,0.0,3.3616881476863753e-156
0.202,2069768011616498.2,7739544539493196.0,1822044514292339.0,3824074719997079.5,4613313533.804042,23549424860.24238,1270573340121.334,22358557508764.85
0.30604000000000003,2587194018994424.5,9708148377571332.0,2277541604058755.5,4780064452015899.0,11648571791.6997,59470288610.239494,3241189945268.347,60035993696583.62
0.41216080000000005,3022580294166453.0,1.1383458556218144e+16,2660817998021852.5,5584478420717653.0,20618038163.269566,105268602694.93826,5761574826821.475,109694381844507.28
0.5204040160000001,3406598559404696.0,1.2878134454261308e+16,2998874437609359.0,6293985466304521.0,31295166482.222435,159787120922.10678,8765566866932.729,169719341788403.25
0.6308120963200001,3754767964234347.0,1.4249101181562252e+16,3305372641801189.0,6937258607606590.0,43552327919.112625,222373981452.2671,12216429768320.059,239219611842438.03
0.7434283382464002,4076166853528432.0,1.5529638304946902e+16,3588304400646903.0,7531070889145339.0,57310924257.15572,292627767047.22174,16091650365920.924,317654572568998.5
0.8582969050113283,4376630577165806.5,1.6741140603273912e+16,3852806651497072.5,8086203632036973.0,72520724088.61542,370291941441.2145,20376867986641.008,404680061921884.3
0.9754628431115548,4660164774269918.0,1.7898309685100454e+16,4102405612502489.5,8610057604777361.0,89149626551.86603,455202563734.93805,25062908976530.87,500074432383868.2
1.094972099973786,4929655434519553.0,1.9011759318540756e+16,4339641859261625.5,9107964924996466.0,107177962397.46507,547259181147.2257,30144146889600.543,603698515729972.5
1.2168715419732616,5187260443609488.0,2.0089450361790316e+16,4566415007604230.0,9583912474404620.0,126595048888.83105,646407234016.9271,35617515124928.5,715471918764146.8
1.3412089728127268,5434641279313634.0,2.113753886482891e+16,4784187678772586.0,1.0040969977693234e+16,147396975542.9169,752626747366.166,41481873973507.54,835358031353060.8
1.4680331522689813,5673107926465174.0,2.21609058922663e+16,4994113070037071.0,1.0481557745685508e+16,169585111823.14532,865924709712.7482,47737584827201.56,963354055429828.1
1.597393815314361,5903713655538176.0,2.3163503644523164e+16,5197118389560915.0,1.090762178706584e+16,193165062650.9564,986329738975.3678,54386212578743.305,1099484104977875.0
1.729341691620648,6127319335329206.0,2.4148590059215224e+16,5393961471721101.0,1.132075263167895e+16,218145914488.7469,1113888232349.7117,61430311052938.05,1243794275286188.5
1.863928525453061,6344638441445936.0,2.511889281802431e+16,5585270398687420.0,1.172226848763996e+16,244539677084.33548,1248661515427.2612,68873264273335.99,1396349024785157.2
2.001207095962122,6556269393875864.0,2.607672706081572e+16,5771571967619782.0,1.2113274987810282e+16,272360861126.51776,1390723685402.8135,76719166472758.7,1557228460490500.0
2.1412312378813647,6762719323061432.0,2.702408181367031e+16,5953312612264047.0,1.2494709099690592e+16,301626152836.9988,1540159949324.4888,84972729714038.53,1726526262838008.8
2.284055862638992,6964421884478103.0,2.7962684714165308e+16,6130874085364901.0,1.2867372039403448e+16,332354159293.4098,1697065323555.9932,93639211643242.88,1904348073792757.0
2.4297369798917723,7161750845692499.0,2.889405133484994e+16,6304585419535880.0,1.323195437496425e+16,364565206396.18445,1861543602080.773,102724358218774.19,2090810227630071.0
2.578331719489608,7355030609622592.0,2.9819523354882176e+16,6474732191026890.0,1.3589055468918848e+16,398281176706.437,2033706528418.474,112234357777567.8,2286038739831136.0
2.7298983538794,7544544477459923.0,3.074029851184008e+16,6641563793685759.0,1.393919874480979e+16,433525377951.44324,2213673124153.281,122175803818126.12,2490168493564374.0
2.884496320956988,7730541217233885.0,3.1657454397528164e+16,6805299221353635.0,1.428284382316913e+16,470322435446.7426,2401569139598.0996,132555664579384.16,2703342579617079.5
3.0421862473761276,7913240343950997.0,3.2571967576876584e+16,6966131716042664.0,1.4620396277033916e+16,508698203403.2715,2597526600899.292,143381257984294.47,2925711757060417.5
3.2030299723236504,8092836407214006.0,3.3484729107317976e+16,7124232542384611.0,1.495221555369434e+16,548679691315.37317,2801683434155.0327,154660230866563.25,3157434010032982.0
3.3670905717701234,8269502505214466.0,3.439655725504134e+16,7279754081045834.0,1.527862146709986e+16,590295002516.2554,3014183151669.1636,166400541652475.72,3398674181874507.0
3.5344323832055258,8443393189205439.0,3.5308208004755388e+16,7432832385573565.0,1.5599899564124356e+16,633573282643.4843,3235174588812.4966,178610445856380.28,3649603672124173.5
3.7051210308696363,8614646883000755.0,3.622038381544123e+16,7583589312313689.0,1.5916305594800642e+16,678544676246.8281,3464811682464.577,191298483887663.78,3910400185079735.0
3.879223451487029,8783387913090976.0,3.713374096912927e+16,7732134307549041.0,1.6228069263135792e+16,725240290140.9342,3703253283899.105,204473470772269.25,4181247521007145.5
4.0568079205167695,8949728223504915.0,3.804889578163356e+16,7878565917115078.0,1.6535397395466218e+16,773692162388.3018,3950663000421.5513,218144487472226.06,4462335402912294.0
4.237944078927105,9113768833454264.0,3.896642988565499e+16,8022973069583999.0,1.6838476633582448e+16,823933236016.7,4207209061183.9263,232320873548770.1,4753859333188289.0
4.422702960505647,9275601083605192.0,3.988689475234785e+16,8165436173374365.0,1.7137475737323896e+16,875997336745.7422,4473064203473.09,247012220963081.7,5056020475541073.0
4.61115701971576,9435307707487882.0,4.081081558354388e+16,8306028059927336.0,1.743254756410067e+16,929919154131.7052,4748405576454.857,262228368846805.03,5369025558450612.0
4.803380160110075,9592963757346250.0,4.173869468066354e+16,8444814798744613.0,1.7723830779481118e+16,985734225646.3594,5033414659901.077,277979399104792.94,5693086797101214.0
4.9994477633122765,9748637408113242.0,4.267101437596697e+16,8581856405138629.0,1.8011451342605714e+16,1043478923291.0238,5328277195863.309,294275632736764.0,6028421831253429.0
5.199436718578522,9902390658785826.0,4.360823959580859e+16,8717207457662415.0,1.8295523802038132e+16,1103190442415.9626,5633183131608.195,311127626784096.44,6375253676964145.0
5.403425452950093,1.0054279946982884e+16,4.455082011291076e+16,8850917639113176.0,1.8576152431213984e+16,1164906792471.2761,5948326572416.477,328546171823887.5,6733810690411929.0
5.611493962009095,1.020435668968692e+16,4.54991925345986e+16,8983032212554463.0,1.8853432227508024e+16,1228666789461.2727,6273905743080.794,346542289945373.7,7104326542371224.0
5.823723841249277,1.0352667760938258e+16,4.645378206586552e+16,9113592441836704.0,1.9127449794815308e+16,1294510049912.0671,6610122957130.922,365127233154534.1,7487040202113675.0
6.040198318074262,1.0499255915447742e+16,4.741500407961911e+16,9242635964509288.0,1.939828412621242e+16,1362476986193.4143,6957184592974.551,384312482161541.9,7882195929708890.0
6.261002284435747,1.0644160165630878e+16,4.838326552117063e+16,9370197123728726.0,1.966600730056063e+16,1432608803062.0022,7315301076275.175,404109745513146.56,8290043275857915.0
6.486222330124463,1.078741611836987e+16,4.935896616971622e+16,9496307264714696.0,1.9930685104702556e+16,1504947495315.1685,7684686868000.426,424530959038249.1,8710837088527518.0
6.715946776726952,1.092905627682844e+16,5.034249977601237e+16,9620995000441820.0,2.0192377591091532e+16,1579535846462.6143,8065560457668.677,445588285580178.1,9144837525766250.0
6.950265712261491,1.1069110311834356e+16,5.133425509253178e+16,9744286450541238.0,2.045113957919376e+16,1656417428339.3264,8458144361401.471,467294114993595.5,9592310074179032.0
7.18927102650672,1.1207605306671846e+16,5.233461680996223e+16,9866205456794674.0,2.0707021107763908e+16,1735636601596.2268,8862665124458.027,489661064387767.7,1.0053525572617992e+16
7.433056447036854,1.1344565978566746e+16,5.33439664118981e+16,9986773778110882.0,2.0960067844057596e+16,1817238517016.6133,9279353327986.154,512701978601140.75,1.052876024071673e+16
7.681717575977592,1.1480014879678462e+16,5.43626829578886e+16,1.0106011267461394e+16,2.121032145518157e+16,1901269117616.2512,9708443599774.367,536429930894990.8,1.101829571195476e+16
7.935351927497144,1.1613972580018914e+16,5.53911438035937e+16,1.0223936032906576e+16,2.145781994605213e+16,1987775141493.525,10150174628833.928,560858223856292.1,1.1522419070989454e+16
8.194058966047088,1.1746457834386922e+16,5.642972526560784e+16,1.034056458455031e+16,2.1702597967820804e+16,2076804125403.4766,10604789183676.684,586000390502089.4,1.204142289503864e+16
8.45794014536803,1.187748773512461e+16,5.747880323749952e+16,1.045591196901338e+16,2.1944687100105052e+16,2168404409036.0007,11072534134188.143,611870195579432.1,1.2575605299133876e+16
8.72709894827539,1.2007077852263884e+16,5.853875376276452e+16,1.056999189280633e+16,2.218411610992073e+16,2262625139984.1333,11553660477023.773,638481637056597.1,1.312526998509998e+16
9.0016409272409,1.2135242362426466e+16,5.960995356965576e+16,1.0682816835801866e+16,2.242091118983599e+16,2359516279393.3164,12048423364482.074,665848947802660.9,1.3690726294144878e+16
9.281673745785717,1.2261994167666694e+16,6.069278057223399e+16,1.0794398155853852e+16,2.2655096177543836e+16,2459128608286.872,12557082136829.867,693986597453787.0,1.427228926297067e+16
9.567307220701432,1.2387345005296674e+16,6.1787614341445656e+16,1.0904746185477758e+16,2.2886692758773132e+16,2561513734566.7847,13079900358075.184,722909294465638.0,1.4870279683339826e+16
9.85865336511546,1.2511305549603452e+16,6.2894836549576456e+16,1.1013870321393634e+16,2.3115720655220104e+16,2666724100692.261,13617145855200.352,752631988352303.6,1.5485024165051064e+16
10.155826432417769,1.2633885506257284e+16,6.401483139103194e+16,1.1121779107635106e+16,2.3342197798975604e+16,2774812992041.508,14169090760882.992,783169872113008.1,1.6116855202297952e+16
10.458942961066125,1.2755093700112824e+16,6.514798598205383e+16,1.1228480312841788e+16,2.356614049474528e+16,2885834545964.86,14736011559746.383,814538384848588.4,1.6766111243399648e+16
10.768121820287448,1.287493815702136e+16,6.6294690741684056e+16,1.1333981002279848e+16,2.378756357100475e+16,2999843761539.586,15318189138191.996,846753214570402.9,1.7433136763907948e+16
11.083484256693197,1.2993426180199308e+16,6.74553397560275e+16,1.1438287605069978e+16,2.400648052109694e+16,3116896510038.9106,15915908837877.69,879830301204945.1,1.811828234310837e+16
11.405153941827061,1.3110564421633896e+16,6.863033112764268e+16,1.1541405977047018e+16,2.4222903635160244e+16,3237049546129.305,16529460512914.447,913785839797924.4,1.8821904743944548e+16
11.733257020663602,1.322635894895197e+16,6.982006731169044e+16,1.1643341459625308e+16,2.4436844123674188e+16,3360360519811.9307,17159138590861.223,948636283922030.6,1.95443669964063e+16
12.067922161076874,1.3340815308127996e+16,7.102495544029863e+16,1.1744098935001436e+16,2.4648312233317948e+16,3486887989125.14,17805242137605.3,984398349292997.8,2.02860384844315e+16
12.409280604298411,1.3453938582365104e+16,7.224540763645051e+16,1.1843682877987982e+16,2.4857317355758364e+16,3616691433626.2075,18468074926220.77,1021089017598907.5,2.1047295036380304e+16
12.75746621638438,1.356573344744489e+16,7.348184131857197e+16,1.1942097404738756e+16,2.5063868129912916e+16,3749831268671.363,19147945509901.812,1058725540547954.5,2.1828519019148892e+16
13.112615540712067,1.3676204223808296e+16,7.473467949687432e+16,1.2039346318596158e+16,2.5267972538174004e+16,3886368860513.8906,19845167299072.797,1097325444140116.8,2.26300994359962e+16
13.474867851526309,1.3785354925600558e+16,7.600435106240768e+16,1.213543315326623e+16,2.546963799702357e+16,4026366542240.5376,20560058642777.508,1136906533168379.2,2.34524320281639e+16
13.844365208556836,1.3893189306887424e+16,7.729129106968854e+16,1.2230361213503354e+16,2.566887144242153e+16,4169887630567.1143,21292942914454.977,1177486895955282.0,2.4295919380375932e+16
14.221252512727972,1.3999710905226268e+16,7.859594101368435e+16,1.2324133613466472e+16,2.5865679410307092e+16,4316996443514.123,22044148602207.79,1219084909330646.2,2.5160971030308084e+16
14.605677562982532,1.4104923082756096e+16,7.991874910186618e+16,1.2416753312891258e+16,2.606006811251629e+16,4467758318983.55,22814009403670.953,1261719243856439.2,2.604800358212345e+16
14.997791114242183,1.4208829064952076e+16,8.126017052197941e+16,1.2508223151206114e+16,2.625204350838387e+16,4622239634257.792,23602864325588.61,1305408869304689.0,2.695744082417277e+16
15.397746936527026,1.4311431977173698e+16,8.262066770612102e+16,1.2598545879706116e+16,2.6441611372269756e+16,4780507826441.593,24411057788205.35,1350173060394393.5,2.788971385096243e+16
15.805701875257567,1.4412734879123044e+16,8.400071059167027e+16,1.2687724191886976e+16,2.6628777357222976e+16,4942631413867.508,25238939734576.055,1396031402793299.5,2.8845261189495604e+16
16.221815912762718,1.4512740797315238e+16,8.540077687956638e+16,1.2775760752029394e+16,2.681354705497427e+16,5108680018484.925,26086865744898.023,1443003799390309.2,2.982452893009382e+16
16.64625223101797,1.4611452755653884e+16,8.682135229039363e+16,1.286265822211481e+16,2.699592605242643e+16,5278724389252.293,26955197155964.39,1491110476844206.2,3.082797086180916e+16
17.079177275638333,1.4708873804193138e+16,8.826293081869718e+16,1.2948419287145248e+16,2.7175919984794976e+16,5452836426551.327,27844301185835.94,1540371992414174.5,3.1856048612537068e+16
17.5207608211511,1.4805007046160564e+16,8.972601498591853e+16,1.303304667893177e+16,2.7353534585535148e+16,5631089207641.375,28754551063823.207,1590809241077474.8,3.2909231793942104e+16
17.97117603757412,1.4899855663306638e+16,9.121111609232072e+16,1.3116543198409944e+16,2.752877573317702e+16,5813557013171.142,29686326165867.758,1642443462939356.8,3.3987998151308656e+16
18.430599558325603,1.499342293964046e+16,9.271875446823387e+16,1.319891173653493e+16,2.7701649495179908e+16,6000315354764.136,30640012155405.527,1695296250940127.0,3.509283371842829e+16
18.899211549492115,1.5085712283605756e+16,9.424945972494642e+16,1.3280155293803044e+16,2.7872162168904092e+16,6191441003693.052,31616001129790.15,1749389558863963.5,3.622423297763622e+16
19.37719578048196,1.517672724874598e+16,9.580377100553512e+16,1.3360276998443672e+16,2.8040320319791252e+16,6387012020657.16,32614691772349.17,1804745709653845.8,3.738269902510718e+16
19.864739696091597,1.526647155290267e+16,9.738223723591365e+16,1.343928012331992e+16,2.820613081683578e+16,6587107786675.8955,33636489510139.02,1861387404036636.0,3.856874374152176e+16
20.36203449001343,1.5354949095988966e+16,9.898541737636944e+16,1.3517168101574714e+16,2.83696008654221e+16,6791809035110.188,34681806677458.977,1919337729462021.5,3.978288796820909e+16
20.869275179813698,1.5442163976375256e+16,1.0061388067383418e+17,1.3593944541055352e+16,2.8530738037599252e+16,7001197884821.924,35751062685177.61,1978620169358760.2,4.102566168887554e+16
21.38666068340997,1.5528120505922934e+16,1.0226820691513093e+17,1.3669613237548028e+16,2.8689550299856924e+16,7215357874480.992,36844684195918.586,2039258612711195.0,4.229760421702138e+16
21.91439389707817,1.56128232236994e+16,1.0394898668142629e+17,1.3744178186851228e+16,2.8846046038465084e+16,7434373998027.28,37963105305145.17,2101277363958833.0,4.359926438914858e+16
22.452681775019734,1.5696276908405862e+16,1.0565682160410598e+17,1.381764359571617e+16,2.9000234082435572e+16,7658332741294.323,39106767728177.55,2164701153221217.5,4.493120076385766e+16
23.00173541052013,1.5778486589548524e+16,1.0739232462228688e+17,1.389001389168084e+16,2.915212372416195e+16,7887322119799.403,40276120993166.29,2229555146850137.2,4.62939818269325e+16
23.561770118730532,1.5859457557382488e+16,1.0915612024216917e+17,1.3961293731823888e+16,2.9301724737791628e+16,8121431717703.858,41471622640043.39,2295864958310708.5,4.768818620250266e+16
24.133005521105144,1.593919537165718e+16,1.1094884479842643e+17,1.4031488010463284e+16,2.944904739538408e+16,8360752727945.83,42693738425460.91,2363656659392590.5,4.911440287037592e+16
24.715665631527248,1.6017705869192078e+16,1.1277114671783066e+17,1.4100601865825348e+16,2.95941024809077e+16,8605377993546.245,43942942533722.23,2432956791752132.0,5.057323138962614e+16
25.309978944157795,1.6094995170310756e+16,1.1462368678529541e+17,1.4168640685708748e+16,2.9736901302127296e+16,8855402050087.76,45219717793703.88,2503792378786040.5,5.2065282128518824e+16
25.91617852304095,1.6171069684162242e+16,1.1650713841252838e+17,1.4235610112168854e+16,2.9877455700435716e+16,9110921169364.842,46524555901761.13,2576190937836628.0,5.3591176500853784e+16
26.53450209350177,1.6245936112957978e+16,1.1842218790947184e+17,1.4301516045247814e+16,3.0015778058682628e+16,9372033404202.217,47857957650599.04,2650180492728508.5,5.515154720880015e+16
27.165192135371807,1.6319601455154336e+16,1.2036953475871282e+17,1.4366364645775938e+16,3.015188130705381e+16,9638838634437.41,49220433164092.69,2725789586636154.0,5.674703849229417e+16
27.808495978079243,1.6392073007609842e+16,1.2234989189304069e+17,1.4430162337271002e+16,3.0285778927057684e+16,9911438614062.48,50612502138027.24,2803047295281610.5,5.83783063850685e+16
28.464665897640828,1.6463358366748438e+16,1.2436398597632738e+17,1.449291580696199e+16,3.041748495367411e+16,10189937019518.398,52034694086727.79,2881983240461122.0,6.0046018977375384e+16
29.133959215593645,1.6533465428759548e+16,1.2641255768790803e+17,1.4554632005965456e+16,3.0547013975724384e+16,10474439499135.516,53487548595543.12,2962627603899442.0,6.1750856685464616e+16
29.816638399905518,1.6602402388867462e+16,1.2849636201063621e+17,1.461531814864228e+16,3.067438113452163e+16,10765053723711.74,54971615579143.555,3045011141430076.0,6.349351252787181e+16
30.51297116790363,1.6670177739703334e+16,1.306161685227844e+17,1.4674981711164512e+16,3.0799602120862556e+16,11061889438220.107,56487455545587.99,3129165197499783.5,6.527469240857052e+16
31.223230591261704,1.6736800268813268e+16,1.3277276169397224e+17,1.4733630429321712e+16,3.092269317042402e+16,11365058514636.562,58035639866115.12,3215121719995220.5,6.709511540703712e+16
31.947695203086937,1.6802279055338184e+16,1.3496694118528672e+17,1.4791272295598222e+16,3.1043671057628836e+16,11674675005878.096,59616751050608.93,3302913275389660.0,6.89555140752752e+16
32.686649107148675,1.6866623465900642e+16,1.3719952215377864e+17,1.4847915555552358e+16,3.1162553088046124e+16,11990855200841.604,61231383028686.984,3392573064207460.0,7.0856634741842504e+16
33.44038208929165,1.6929843149735896e+16,1.3947133556150438e+17,1.4903568703530032e+16,3.127935708939611e+16,12313717680532.78,62880141436361.25,3484134936803983.0,7.279923782292146e+16
34.20918973107749,1.6991948033104486e+16,1.4178322848929096e+17,1.4958240477746282e+16,3.139410140122656e+16,12643383375275.275,64563643908217.87,3577633409458478.0,7.47840981404717e+16
34.993373525699035,1.7052948313024734e+16,1.4413606445540278e+17,1.5011939854767804e+16,3.15068048633336e+16,12979975622989.443,66282520375063.62,3673103680777656.5,7.681200524750094e+16
35.793240996213015,1.7112854450364362e+16,1.4653072373928605e+17,1.506467604343142e+16,3.1617486802997644e+16,13323620228530.959,68037413366989.62,3770581648407428.0,7.88837637604897e+16
36.60910581613728,1.7171677162330702e+16,1.4896810371056947e+17,1.5116458478233252e+16,3.172616702110874e+16,13674445524079.371,69828978321800.91,3870103926050525.5,8.100019369900045e+16
37.44128793246003,1.7229427414399988e+16,1.5144911916350346e+17,1.5167296812223822e+16,3.183286577725526e+16,14032582430567.553,71657883898766.03,3971707860787788.5,8.31621308325072e+16
38.29011369110923,1.7286116411726058e+16,1.5397470265701536e+17,1.521720090944503e+16,3.193760377385086e+16,14398164520143.162,73524812297642.75,4075431550701026.5,8.537042703447477e+16
