t(s),Total solute volume 1,Total retention volume 1,Total 1 volume 1,Total 2 volume 1,Total 3 volume 1,Total 4 volume 1,Total 5 volume 1,Total 6 volume 1
0.1,919935341976466.9,1072551036543860.6,72903600131805.52,79712094435588.67,0.0,0.0,0.0,0.0
0.202,1385907042044077.2,1615989521023441.2,109831211390091.75,120088389627094.84,279574126.75502527,524362987.21272945,7335434667.365268,154738590395.45807
0.30604000000000003,1740742016024614.0,2029941381160268.5,137951391091760.92,150834723585128.8,709315325.6760393,1330376286.0146313,18610992700.59739,392599774453.7211
0.41216080000000005,2040828470088859.2,2380132430058084.5,161732826489944.97,176837116234009.2,1259878758.3922904,2363001354.553945,33056700972.98003,697337664181.9287
0.5204040160000001,2307280341718894.5,2691171778575861.0,182848767863504.06,199925083354546.72,1918233224.172477,3597797209.8348784,50330643910.23523,1061738964573.028
0.6308120963200001,2550617002289519.0,2975319867252225.5,202132860810227.8,221010125028008.47,2677382102.595061,5021641200.521957,70249243621.17697,1481930857545.7305
0.7434283382464002,2776952286791561.5,3239702471349005.5,220069618276595.5,240622003050031.88,3533318652.669307,6627018429.8840685,92707371407.12822,1955695522325.2983
0.8582969050113283,2990202670383501.5,3488884481247020.0,236969415488736.2,259100078707196.44,4483775087.185947,8409675547.090462,117645525583.21262,2481777691366.967
0.9754628431115548,3193051817756000.0,3725994109785032.0,253044929152424.66,276676890663553.7,5527606226.079454,10367464741.338398,145033659637.90863,3059543482444.9785
1.094972099973786,3387432004744338.5,3953283982009917.5,268449289448433.88,293519869985499.25,6664448149.134213,12499703518.749073,174862225903.79364,3688791454075.663
1.2168715419732616,3574788410945053.0,4172439153969601.5,283297024855978.94,309754241010288.94,7894513066.614267,14806789966.595104,207136793344.8518,4369639061904.645
1.3412089728127268,3756234998184412.5,4384758774891069.5,297676415305224.2,325476528164170.75,9218458428.846619,17289957258.46225,241874613239.54825,5102450208330.17
1.4680331522689813,3932651749099860.0,4591269406549766.0,311657198200036.1,340762981653539.3,10637299519.398394,19951109716.273186,279102325793.70074,5887786861301.646
1.597393815314361,4104748124659183.0,4792798973058481.0,325295597338400.4,355675076038130.25,12152348998.204185,22792709419.040607,318854373870.27136,6726375590474.003
1.729341691620648,4273106042191150.5,4990026843841684.0,338637728861756.25,370263234263263.7,13765173927.714006,25817695602.391018,361171875441.1722,7619083780544.824
1.863928525453061,4438209902449896.5,5183518823963198.0,351721980858213.6,384569429495108.56,15477564577.476381,29029426149.465717,406101805083.3102,8566902364162.467
2.001207095962122,4600468130348730.0,5373752255028727.0,364580720435841.44,398629051618186.1,17291511421.460243,32431634447.95061,453696390436.86487,9570933089650.588
2.1412312378813647,4760228983559613.0,5561134436415707.0,377241546532260.2,412472277045329.0,19209187992.826263,36028397233.22071,504012662352.21704,10632379030923.486
2.284055862638992,4917792386441147.0,5746016414939763.0,389728227737020.44,426125094123648.0,21232938028.484173,39824110477.324104,557112117592.9501,11752537471862.285
2.4297369798917723,5073418944095005.0,5928703488707778.0,402061416643085.56,439610084199563.06,23365265823.24575,43823471297.82878,613060465752.829,12932794567249.97
2.578331719489608,5227336915078170.0,6109463332397513.0,414259202424595.75,452947025802021.25,25608829032.179466,48031464458.47701,671927440409.1704,14174621358820.78
2.7298983538794,5379747679660994.0,6288532369604338.0,426337544188747.44,466153368465269.8,27966433373.68505,52453352434.80874,733786660147.8158,15479570843385.156
2.884496320956988,5530830081427231.0,6466120832493215.0,438310615041576.8,479244608927071.1,30441028832.649696,57094668293.32192,798715528947.6514,16849275871271.117
3.0421862473761276,5680743912908545.0,6642416824182226.0,450191078319652.56,492234593157777.1,33035707065.90579,61961210825.66477,866795168111.5764,18285447710256.44
3.2030299723236504,5829632742389767.0,6817589613568285.0,461990311610478.6,505135761302089.94,35753699785.58481,67059041516.972916,938110373855.9381,19789875150781.168
3.3670905717701234,5977626227585902.0,6991792332367210.0,473718590108188.5,517959348158402.56,38598377949.16782,72394483027.24837,1012749596066.4895,21364424057677.68
3.5344323832055258,6124842020712408.0,7165164201787616.0,485385237590868.75,530715548264733.8,41573251603.79879,77974119023.97354,1090804971678.2598,23011042877305.17
3.7051210308696363,6271387375538017.0,7337832383994780.0,496998753764587.8,543413655100079.1,44681970403.75738,83804794658.81664,1172372189015.299,24731740638018.543
3.879223451487029,6417360450033756.0,7509913534957827.0,508566917515701.06,556062174033013.5,47928324417.41854,89893618820.56917,1257550732001.9949,26528620700100.3
4.0568079205167695,6562851447387169.0,7681515113259253.0,520096877321742.6,568668921140086.5,51316245562.04286,96247966336.04446,1346443769669.5527,28403859428696.965
4.237944078927105,6707943563313256.0,7852736491123941.0,531595226327773.0,581241105302661.4,54849809314.92616,102875481302.38617,1439158237971.275,30359712651670.953
4.422702960505647,6852713798420224.0,8023669902759135.0,543068066725222.8,593785398598132.4,58533236780.08882,109784080963.98642,1535804894018.8643,32398516803802.74
4.61115701971576,6997233655045016.0,8194401258174595.0,554521064975154.6,606307996680500.6,62370897057.865135,116981960157.54984,1636498378266.5422,34522690238451.527
4.803380160110075,7141569737949317.0,8365010845074759.0,565959499412574.2,618814670830464.0,66367309891.04266,124477596275.88551,1741357283951.8708,36734734692293.98
4.9994477633122765,7285784274540189.0,8535573937073693.0,577388301473210.6,631310813032405.2,70527148566.28845,132279754710.5491,1850504233235.3948,39037236891371.74
5.199436718578522,7429935567355406.0,8706161323076159.0,588812091552341.5,643801475182059.1,74855243053.71448,140397494741.17368,1964065959589.2341,41432870288955.21
5.403425452950093,7574078389239885.0,8876839769973169.0,600235210321978.6,656291403328432.2,79356583370.76735,148840175845.58044,2082173396072.1458,43924396927579.555
5.611493962009095,7718264329798008.0,9047672428654436.0,611661746186737.5,668785067693792.8,84036323159.37329,157617464409.91428,2204961769200.669,46514669419122.93
5.823723841249277,7862542100229278.0,9218719191618998.0,623095559441637.2,681286689087571.5,88899783467.52336,166739340822.26758,2332570698185.084,49206633038051.49
6.040198318074262,8006957802462969.0,9390037009077406.0,634540303600648.1,693800262226787.8,93952456728.36227,176216106936.78696,2465144299348.2896,52003327923988.29
6.261002284435747,8151555167540076.0,9561680169311050.0,645999444288134.1,706329576391775.9,99200010931.41313,186058393898.20276,2602831295586.728,54907891390640.8
6.486222330124463,8296375767401300.0,9733700548135488.0,657476276022751.4,718878233777532.9,104648293981.89641,196277170319.19522,2745785130767.305,57923560338841.26
6.715946776726952,8441459203591911.0,9906147831559030.0,668973937172054.8,731449665844944.1,110303338245.21454,206883750805.10922,2894164088983.6416,61053673772089.91
6.950265712261491,8586843275859985.0,1.007906971510563e+16,680495423313664.9,744047147929762.0,116171365274.63469,217889804822.33963,3048131418620.003,64301675413503.734
7.18927102650672,8732564133181472.0,1.0252512082755522e+16,692043599203806.1,756673812328868.6,122258790721.02504,229307365908.22864,3207855461192.9004,67671116423542.06
7.433056447036854,8878656409377160.0,1.0426519168027258e+16,703621209524750.5,769332660051461.8,128572229424.20268,241148841221.66336,3373509784958.8228,71165658218263.03
7.681717575977592,9025153345178246.0,1.0601133699366204e+16,715230888558356.6,782026571395971.5,135118500686.0779,253427021434.70868,3545273323293.043,74789075388214.77
7.935351927497144,9172086898338376.0,1.0776397031702842e+16,726875168912289.1,794758315491252.4,141904633726.31174,266155090966.6468,3723330517858.3896,78545258718357.61
8.194058966047088,9319487843171952.0,1.0952349265789928e+16,738556489408295.0,807530558921537.1,148937873321.69467,279346638562.65894,3907871466595.507,82438218309685.52
8.45794014536803,9467385860713908.0,1.112902935671378e+16,750277202227237.6,820345873538749.1,156225685630.85995,293015668220.2184,4099092076577.387,86472086803443.19
8.72709894827539,9615809620539566.0,1.130647521279048e+16,762039579393211.9,833206743552171.5,163775764206.34738,307176610466.94006,4297194221780.716,90651122709051.72
9.0016409272409,9764786855149304.0,1.148472378590464e+16,773845818668414.4,846115571973848.1,171596036196.3534,321844333994.30884,4502385905835.716,94979713837036.73
9.281673745785717,9914344427708904.0,1.16638111542133e+16,785698048921490.1,859074686488271.6,179694668738.8291,337034157652.25854,4714881429824.174,99462380838438.22
9.567307220701432,1.0064508393838574e+16,1.184377259802503e+16,797598335024212.1,872086344806368.1,188080075550.8652,352761862810.1215,4934901565202.878,104103780852319.33
9.85865336511546,1.0215304058059022e+16,1.2024642669565252e+16,809548682324764.1,885152739556550.8,196760923716.5581,369043706089.9609,5162673731936.545,108908711263151.17
10.155826432417769,1.03667560254308e+16,1.2206455257255168e+16,821551040740070.9,898276002759225.4,205746140676.8037,385896432478.73663,5398432181930.413,113882113569979.1
10.458942961066125,1.051888824885944e+16,1.238924364505743e+16,833607308504690.8,911458209925793.6,215044921424.67633,403337288826.17365,5642418187858.825,119029077369394.64
10.768121820287448,1.0671724072485722e+16,1.2573040567379096e+16,845719335609412.5,924701383818381.2,224666735910.26822,421384037735.61993,5894880237491.4,124354844454460.05
11.083484256693197,1.0825286271531304e+16,1.2757878259966696e+16,857888926958967.0,938007497902461.6,234621336659.05887,440054971855.5201,6156074233623.775,129864813031838.42
11.405153941827061,1.0979597088929642e+16,1.2943788507179978e+16,870117845275002.2,951378479520921.6,244918766608.07104,459368928579.4934,6426263699724.634,135564542059484.75
11.733257020663602,1.1134678269036126e+16,1.3130802685989764e+16,882407813767524.1,964816212815001.6,255569367164.24744,479345305163.34735,6705719991415.457,141459755707356.28
12.067922161076874,1.1290551088678104e+16,1.331895180700684e+16,894760518595599.9,978322541414810.8,266583786489.64914,500004074267.6629,6994722513903.891,147556347943687.16
12.409280604298411,1.1447236385780076e+16,1.3508266552818492e+16,907177611135855.4,991899270919659.0,277972988018.2497,521365799934.9009,7293558945495.898,153860387249466.88
12.75746621638438,1.160475458577227e+16,1.3698777313878326e+16,919660710075316.6,1005548171186368.8,289748259209.2334,543451654010.2621,7602525467315.996,160378121463853.12
13.112615540712067,1.1763125725971342e+16,1.3890514222172972e+16,932211403343546.4,1019270978441844.0,301921220541.88696,566283433015.8345,7921926999368.803,167115982763319.22
13.474867851526309,1.19223694781012e+16,1.4083507182863852e+16,944831249897384.4,1033069397234500.9,314503834757.2951,589883575487.8325,8252077443078.9,174080592777435.34
13.844365208556836,1.208250516910616e+16,1.4277785904085078e+16,957521781370376.8,1046945102237722.9,327508416352.21027,614275179786.9663,8593299930450.173,181278767844251.8
14.221252512727972,1.22435518003932e+16,1.4473379925060094e+16,970284503597679.2,1060899739917176.2,340947641330.59094,639482022392.3262,8945927079988.762,188717524408322.12
14.605677562982532,1.240552806562651e+16,1.4670318642683404e+16,983120898026254.8,1074934930072726.8,354834557218.4523,665528576689.2974,9310301259537.777,196404084564498.9
14.997791114242183,1.2568452367186056e+16,1.4868631336702284e+16,996032423019207.5,1089052267264557.9,369182593347.7937,692440032262.3925,9686774856175.604,204345881750692.7
15.397746936527026,1.2732342831391316e+16,1.50683471936182e+16,1009020515062223.0,1103253322132302.1,384005571415.517,720242314704.0417,10075710553332.469,212550566592853.88
15.805701875257567,1.2897217322581456e+16,1.5269495329419042e+16,1022086589879403.2,1117539642615074.5,399317716323.33075,748962105950.6841,10477481615283.31,221026012905526.94
16.221815912762718,1.3063093456134562e+16,1.5472104811242202e+16,1035232043465044.1,1131912755079602.8,415133667304.8311,778626865157.6737,10892472179179.238,229780323851367.44
16.64625223101797,1.3229988610502524e+16,1.5676204678060298e+16,1048458253037364.8,1146374165363043.5,431468489345.99695,809264850124.8073,11321077554781.623,238821838263108.7
17.079177275638333,1.339791993832894e+16,1.5881823960472628e+16,1061766577919584.9,1160925359736329.8,448337684905.51447,840905139284.4551,11763704532066.877,248159137131503.06
17.5207608211511,1.3566904376713166e+16,1.6088991699680002e+16,1075158360353344.4,1175567805793557.2,465757205941.41956,873577654264.5276,12220771696873.428,257801050262856.03
17.97117603757412,1.37369586566773e+16,1.6297736965712432e+16,1088634926248951.2,1190302953272300.5,483743466250.7147,907313183038.7084,12692709754763.953,267756663109802.16
18.430599558325603,1.3908099311888184e+16,1.6508088874974296e+16,1102197585876574.1,1205132234809364.8,502313354128.6502,942143403676.6093,13179961863280.582,278035323779067.06
18.899211549492115,1.408034268668146e+16,1.6720076607166504e+16,1115847634502150.8,1220057066636063.0,521484245354.55304,978100908706.6722,13682983972772.682,288646650219993.6
19.37719578048196,1.4253704943431634e+16,1.6933729421640206e+16,1129586352971456.0,1235078849216840.5,541274016511.13873,1015219230104.9332,14202245175979.482,299600537597686.9
19.864739696091597,1.4428202069307332e+16,1.7149076673232154e+16,1143415008245434.8,1250198967834608.8,561701058644.362,1053532864922.8209,14738228066553.402,310907165854672.06
20.36203449001343,1.460384988244826e+16,1.7366147827628564e+16,1157334853889731.0,1265418793125985.5,582784291270.9568,1093077301567.488,15291429106711.656,322577007465037.8
20.869275179813698,1.4780664037597236e+16,1.7584972476300288e+16,1171347130520998.5,1280739681569291.8,604543176740.9309,1133889046748.252,15862359004206.871,334620835385060.94
21.38666068340997,1.4958660031217202e+16,1.7805580351048846e+16,1185453066212451.0,1296162975927955.0,626997734962.3464,1176005653102.968,16451543098809.537,347049731204390.4
21.91439389707817,1.5137853206121608e+16,1.8028001338200504e+16,1199653876860779.5,1311690005651723.5,650168558495.8011,1219465747518.2517,17059521758497.352,359875093501880.3
22.452681775019734,1.531825875564336e+16,1.825226549248177e+16,1213950766516540.8,1327322087237898.2,674076828026.1604,1264309060157.697,17686850785548.93,373108646410252.1
23.00173541052013,1.5499891727365186e+16,1.84784030506085e+16,1228344927679812.0,1343060524554592.2,698744328219.075,1310576454212.29,18334101832741.16,386762448393743.3
23.561770118730532,1.5682767026433198e+16,1.8706444444616976e+16,1242837541562753.8,1358906609127810.5,724193463969.9636,1358309956387.4263,19001862829850.652,400848901243004.0
24.133005521105144,1.5866899418472122e+16,1.8936420314964132e+16,1257429778320652.2,1374861620394087.0,750447277053.1504,1407552788140.9692,19690738420662.91,415380759291479.75
24.715665631527248,1.6052303532119406e+16,1.9168361523421324e+16,1272122797252741.5,1390926825920054.2,777529463178.9125,1458349397686.8965,20401350410690.523,430371138857558.6
25.309978944157795,1.6238993861193844e+16,1.9402299165783124e+16,1286917746974062.8,1407103481590337.5,805464389466.1753,1510745492779.1987,21134338225807.402,445833527916795.9
25.91617852304095,1.6426984766511348e+16,1.9638264584412796e+16,1301815765559369.2,1423392831764922.8,834277112338.6947,1564788074290.5535,21890359382001.383,461781796008487.3
26.53450209350177,1.6616290477359978e+16,1.987628938064074e+16,1316817980660000.0,1439796109406936.0,863993395852.4384,1620525470600.4612,22670089966450.07,478230204380913.9
27.165192135371807,1.6806925092642994e+16,2.011640542703208e+16,1331925509594496.5,1456314536181704.5,894639730461.9644,1678007372807.353,23474225130124.3,495193416379505.6
27.808495978079243,1.6998902581697636e+16,2.0358644879536108e+16,1347139459413455.8,1472949322527700.8,926243352233.3702,1737284870779.067,24303479592118.53,512686508082161.7
28.464665897640828,1.7192236784794276e+16,2.0603040189527548e+16,1362460926939113.2,1489701667699790.8,958832262511.4929,1798410490055.916,25158588155909.56,530724979185911.5
29.133959215593645,1.7386941413318736e+16,2.084962411574794e+16,1377890998779781.8,1506572759785035.8,992435248048.6725,1861438229620.3306,26040306237736.336,549324764148998.44
29.816638399905518,1.7583030049637688e+16,2.109842973614969e+16,1393430751319184.2,1523563775691025.5,1027081901602.3518,1926423600546.5286,26949410407291.74,568502243592361.9
30.51297116790363,1.778051614664377e+16,2.1349490459644508e+16,1409081250680397.8,1540675881106465.2,1062802643008.4427,1993423665543.4575,27886698940909.023,588274255964367.9
31.223230591261704,1.7979413026974534e+16,2.1602840037751988e+16,1424843552663964.8,1557910230433483.0,1099628740737.102,2062497079403.3538,28852992387417.598,608658109472431.8
31.947695203086937,1.8179733881894708e+16,2.185851257614094e+16,1440718702659325.5,1575267966690808.8,1137592333937.127,2133704130367.6394,29849134146830.594,629671594284956.1
32.686649107148675,1.838149176982888e+16,2.2116542546050132e+16,1456707735528499.2,1592750221386589.0,1176726454974.665,2207106782420.965,30875991062016.28,651332995006737.9
33.44038208929165,1.8584699614525224e+16,2.2376964795570304e+16,1472811675460613.0,1610358114359326.8,1217065052471.3752,2282768718522.9497,31934454023485.902,673661103430651.2
34.20918973107749,1.8789370202828388e+16,2.2639814560763612e+16,1489031535795350.5,1628092753584835.8,1258643014846.3918,2360755384785.9067,33025438587415.11,696675231567993.8
34.993373525699035,1.899551618203239e+16,2.290512747658895e+16,1505368318813211.2,1645955234946930.5,1301496194365.5417,2441134035605.12,34149885606988.92,720395224959441.9
35.793240996213015,1.9203150056780156e+16,2.317293958759524e+16,1521823015489791.0,1663946641968742.5,1345661431700.4316,2523973779746.4453,35308761877139.266,744841476267964.0
36.60910581613728,1.941228418546981e+16,2.34432873583376e+16,1538396605210981.8,1682068045501321.8,1391176580998.5432,2609345627393.6406,36503060792706.04,770034939154378.4
37.44128793246003,1.962293077612115e+16,2.371620768346122e+16,1555090055445405.0,1700320503365477.0,1438080535464.3928,2697322538155.4473,37733803020024.4,795997142435537.8
38.29011369110923,1.9835101881648884e+16,2.399173789739038e+16,1571904321369805.0,1718705059942203.8,1486413253450.0117,2787979470029.2764,39002037181891.8,822750204524182.4
39.15591596493141,2.004880939448277e+16,2.4269915783550748e+16,1588840345442731.5,1737222745706525.0,1536215785051.4263,2881393429315.243,40308840555829.836,850316848148553.4
40.03903428423004,2.0264065040467004e+16,2.455077958304184e+16,1605899056921039.5,1755874576698841.0,1587530299205.5806,2977643521470.3423,41655319785495.055,878720415348783.8
40.93981496991464,2.0480880371962596e+16,2.483436800266813e+16,1623081371313283.0,1774661553927304.2,1640400111280.0818,3076811002888.354,43042611605040.18,907984882745735.2
41.85861126931294,2.0699266760071732e+16,2.512072022222677e+16,1640388189763497.8,1793584662694010.8,1694869711145.5007,3178979333586.395,44471883576156.1,938134877076637.0
42.7957834946992,2.091923538589236e+16,2.5409875900938028e+16,1657820398358155.8,1812644871837257.2,1750984791717.2124,3284234230773.8755,45944334837456.43,969195690990339.6
43.751699164593184,2.1140797230706636e+16,2.570187518289682e+16,1675378867348593.0,1831843132881339.5,1808792277950.7803,3392663723273.527,47461196865782.75,1001193299093244.8
44.72673314788505,2.1363963064998732e+16,2.5996758701411584e+16,1693064450280678.8,1851180379084958.0,1868340356271.3289,3504358206758.564,49023734248921.08,1034154374235197.6
