t(s),Total solute volume 1,Total retention volume 1,Total 1 volume 1,Total 2 volume 1,Total 3 volume 1,Total 4 volume 1,Total 5 volume 1,Total 6 volume 1
0.1,941999071437344.5,1111941895936827.4,80338108873842.89,89604715625638.98,0.0,0.0,0.0,0.0
0.202,1418613088982551.0,1675669602926023.0,120985992982688.97,134941134553744.66,1745005284.0444522,3374543632.3418083,49422908284.77821,1074843949837.3268
0.30604000000000003,1781200608279869.0,2105405384238561.2,151909161148197.2,169431138769378.66,4425759435.805606,8558672313.406869,125349104620.33708,2726142504747.0986
0.41216080000000005,2087530254471849.5,2469220565062794.0,178034393415071.8,198569788634003.62,7858238335.960989,15196516491.36413,222566366243.25916,4840507420799.116
0.5204040160000001,2359241090555224.5,2792604895829811.0,201207170811125.62,224415432407262.53,11960343928.19068,23129314554.20231,338749459525.05945,7367362938184.431
0.6308120963200001,2607115604984681.0,3088257356998195.5,222347074642217.0,247993720602544.0,16687674960.136734,32271204089.714222,472640843752.49384,10279357045948.562
0.7434283382464002,2837420715385792.5,3363558800146839.0,241988577104683.16,269900774168813.88,22014493554.718685,42572414505.52194,623511580850.1443,13560634998640.188
0.8582969050113283,3054170626681033.5,3623237976463850.0,260474028465159.94,290518431800176.8,27925901842.829628,54004137998.00364,790939754013.6099,17202019723624.12
0.9754628431115548,3260115418541129.0,3870535975401223.0,278037968446053.88,310108286227709.94,34413985145.357704,66551071145.05867,974701231544.9932,21198635898493.43
1.094972099973786,3457234532002184.0,4107787355892478.0,294849213084212.3,328858625591478.0,41475674361.09261,80207281145.67525,1174709123743.4978,25548593135350.81
1.2168715419732616,3647007719600076.5,4336739145328805.5,311033962632146.94,346910206725107.7,49111460040.840546,94973719072.84851,1390977362024.1843,30252193830334.09
1.3412089728127268,3830574869181980.0,4558738964756123.0,326689432084015.6,364371457896237.06,57324570654.93877,110856630795.87694,1623597425319.1309,35311426967117.17
1.4680331522689813,4008835714602832.0,4774852372136272.0,341892354972563.94,381327963474802.94,66120422739.72672,127866493669.3436,1872722766858.8247,40729629402811.414
1.597393815314361,4182514913200818.0,4985939433375942.0,356704533482160.7,397848654224455.56,75506239519.60536,146017279024.7082,2138558012656.0452,46511250937310.09
1.729341691620648,4352206125126131.5,5192706577723765.0,371176597741172.4,413990000210890.94,85490778786.24396,165325925946.42432,2421351254459.42,52661686686372.305
1.863928525453061,4518402812445916.0,5395742824720608.0,385350632514416.5,429798940470421.56,96084134343.42871,185811957311.47717,2721388426294.14,59187154771904.7
2.001207095962122,4681520335352041.0,5595545771284686.0,399262061671632.6,445314984842658.2,107297588577.47217,207497194697.1961,3038989129024.939,66094605506061.35
2.1412312378813647,4841912169410215.0,5792540662864382.0,412941031270732.5,460571756585639.8,119143501533.86206,230405543886.1759,3374503488882.479,73391653063492.23
2.284055862638992,4999882045956185.0,5987094669521552.0,426413444947845.0,475598147193045.3,131635226682.41815,254562831982.55475,3728309771888.348,81086523593925.44
2.4297369798917723,5155693199862853.0,6179527760430287.0,439701752610381.5,490419196059151.75,144787046602.6511,279996683050.99615,4100812562482.5483,89188015605761.3
2.578331719489608,5309575523103282.0,6370121116166819.0,452825560526509.56,505056770939124.8,158614123815.37198,306736423046.40344,4492441371142.433,97705469679886.02
2.7298983538794,5461731174761553.0,6559123726560296.0,465802109773257.94,519530101583784.0,173132463324.84372,334813007390.3438,4903649573685.166,106648745397295.33
2.884496320956988,5612339035000234.0,6746757629892988.0,478646656091790.44,533856203409317.0,188358884354.3809,364258966326.6322,5334913610963.264,116028203929990.27
3.0421862473761276,5761558280656089.0,6933222120002476.0,491372774831028.2,548050217614652.2,204310999401.7583,395108364432.7762,5786732395887.403,125854695140978.39
3.2030299723236504,5909531284697811.0,7118697159088497.0,503992608227026.6,562125686983303.75,221007199199.68964,427396771551.5009,6259626887707.432,136139548321892.77
3.3670905717701234,6056385989024488.0,7303346171969445.0,516517067766387.25,576094781588411.8,238466642499.32507,461161243049.8766,6754139802906.175,146894565901703.4
3.5344323832055258,6202237862583997.0,7487318353427794.0,528956001183796.0,589968485052629.0,256709249839.50726,496440307786.9751,7270835438992.529,158132019610750.5
3.7051210308696363,6347191529733788.0,7670750588463540.0,541318331336292.06,603756749440847.8,275755700647.02264,533273962523.89996,7810299592650.339,169864648696787.47
3.879223451487029,6491342133977103.0,7853769062004667.0,553612172509094.5,617468624981354.5,295627433150.88727,571703671776.5273,8373139557601.701,182105659874574.34
4.0568079205167695,6634776487550358.0,8036490617389806.0,565844928457822.8,631112369416716.5,316346646698.88385,611772372314.6647,8959984190522.438,194868728755379.53
4.237944078927105,6777574046355508.0,8219023910028192.0,578023375555317.9,644695540741197.4,337936306145.7026,653524481668.2999,9571484035646.252,208168002552713.62
4.422702960505647,6919807741414640.0,8401470392865087.0,590153733701984.9,658225076290255.1,360420148045.2522,697005910123.7452,10208311500482.922,222018103899553.72
4.61115701971576,7061544648948707.0,8583925164876614.0,602241723476349.9,671707356492149.0,383822686192.46606,742264072488.1135,10871161350883.816,236434187849847.03
4.803380160110075,7202846776096256.0,8766477695356071.0,614292633132442.0,685148279556846.6,408169229706.7061,789347918998.4819,11560749877985.43,251431739543837.1
4.9994477633122765,7343771333318090.0,8949212464697998.0,626311341850469.9,698553287463376.0,433485880200.46576,838307935973.8413,12277816828878.201,267026891421000.94
5.199436718578522,7484371369908155.0,9132209514551316.0,638302373923601.4,711927426359961.4,459799552180.1832,889196181239.677,13023124649643.96,283236223976527.5
5.403425452950093,7624696133101119.0,9315544931565026.0,650269929387519.4,725275380735838.2,487137983473.6696,942066305329.2292,13797459113656.31,300076824938097.4
5.611493962009095,7764791420877134.0,9499291272635038.0,662217914109270.9,738601506980687.1,515529748806.4488,996973577766.1138,14601629706547.057,317566297634833.1
5.823723841249277,7904699891993184.0,9683517940229352.0,674149966228184.9,751909862875401.1,545004274259.48926,1053974915052.7461,15436470036155.203,335722769907097.9
6.040198318074262,8044461339317276.0,9868291514927464.0,686069479467105.5,765204233592137.5,575591852548.1991,1113128910248.4175,16302838265759.889,354564903522394.3
6.261002284435747,8184112931548874.0,1.0053676051141926e+16,697979623747465.6,778488154687247.5,607323659071.9517,1174495864038.8982,17201617569159.203,374111904066075.3
6.486222330124463,8323689427600419.0,1.0239733341039366e+16,709883363472712.6,791764932493603.4,640231768690.9456,1238137817214.1885,18133716606375.04,394383531280324.7
6.715946776726952,8463223367246591.0,1.0426523150895338e+16,721783473787796.9,805037662255542.2,674349173193.7438,1304118584483.57,19100070018945.168,415400109828791.25
6.950265712261491,8602745241102306.0,1.0614103433475978e+16,733682555075703.0,818309244297495.6,709709799424.1035,1372503789567.288,20101638943914.777,437182540467567.4
7.18927102650672,8742283642534201.0,1.0802530519502716e+16,745583045913153.8,831582398474075.1,746348528040.2037,1443360901513.013,21139411545768.633,459752311605967.1
7.433056447036854,8881865403732554.0,1.0991859290815164e+16,757487234675476.0,844859677113503.1,784301212883.2017,1516759272192.55,22214403565649.816,483131511242885.9
7.681717575977592,9021515717854052.0,1.118214333747327e+16,769397269953501.2,858143476636052.2,823604700935.2395,1592770174940.3115,23327658887304.133,507342839266504.56
7.935351927497144,9161258248880244.0,1.1373435100730222e+16,781315169922829.0,871436048003996.6,864296852849.6323,1671466844300.4697,24480250119263.82,532409620106746.6
8.194058966047088,9301115230613088.0,1.1565786003542972e+16,793242830786611.5,884739506138245.0,906416564038.3917,1752924516853.9648,25673279192848.83,558355815731306.44
8.45794014536803,9441107556038772.0,1.1759246570066776e+16,805182034396925.5,898055838418799.2,950003786304.0555,1837220473100.372,26907877975620.41,585206038977263.6
8.72709894827539,9581254858130828.0,1.195386653538943e+16,817134455146056.4,911386912370899.5,995099550004.4705,1924434080372.7751,28185208899966.21,612985567211302.4
9.0016409272409,9721575583026736.0,1.2149694946602222e+16,829101666207323.5,924734482625711.4,1041745986740.5712,2014646836766.458,29506465606536.812,641720356312407.0
9.281673745785717,9862087056394204.0,1.2346780256165106e+16,841085145195122.8,938100197233227.1,1089986352558.3567,2107942416064.5427,30872873602285.8,671437054971636.5
9.567307220701432,1.0002805543704226e+16,1.254517040840741e+16,853086279305283.0,951485603395531.0,1139865051657.2468,2204406713645.559,32285690932893.85,702163019304150.4
9.85865336511546,1.014374630504036e+16,1.2744912919902806e+16,865106369989469.2,964892152680372.5,1191427660597.859,2304127893359.577,33746208869382.25,733926327769262.4
10.155826432417769,1.0284923645000122e+16,1.2946054954370716e+16,877146637211009.0,978321205767888.2,1244720953002.8838,2407196435360.873,35255752608738.03,766755796394600.4
10.458942961066125,1.0426350958179622e+16,1.3148643392679758e+16,889208223324031.1,991774036777170.0,1299792924745.414,2513705184886.233,36815681988392.445,800680994300912.9
10.768121820287448,1.0568040770676848e+16,1.3352724898464364e+16,901292196613059.2,1005251837214146.1,1356692819619.403,2623749401968.9297,38427392214406.46,835732259524312.6
11.083484256693197,1.0710004778000088e+16,1.3558345979807362e+16,913399554526022.9,1018755719577480.8,1415471155487.5261,2737426812079.0356,40092314603227.3,871940715132958.6
11.405153941827061,1.08522538797261e+16,1.3765553047392484e+16,925531226630071.0,1032286720655362.6,1476179750901.7961,2854837657681.6562,41811917336892.55,909338285635477.6
11.733257020663602,1.099479821121556e+16,1.3974392469487156e+16,937688077316415.1,1045845804542303.5,1538871752192.7295,2976084750704.684,43587706231558.08,947957713678377.6
12.067922161076874,1.1137647172660856e+16,1.4184910624077018e+16,949870908277649.1,1059433865402228.8,1603601661022.914,3101273525908.5938,45421225519242.17,987832577030104.9
12.409280604298411,1.128080945571256e+16,1.43971539484418e+16,962080460778603.5,1073051730001246.4,1670425362401.0354,3230512095150.475,47314058642670.61,1028997305849165.2
12.75746621638438,1.142429306790685e+16,1.4611168986430556e+16,974317417739608.9,1086700160031216.6,1739400153152.456,3363911302535.1987,49267829063118.41,1071487200234044.9
13.112615540712067,1.1568105355093326e+16,1.4827002433670742e+16,986582405649255.8,1100379854243127.9,1810584770842.5684,3501584780446.3516,51284201081142.88,1115338448052568.0
13.474867851526309,1.171225302204314e+16,1.504470118092055e+16,998875996321950.6,1114091450407398.2,1884039423149.035,3643649006449.892,53364880670100.61,1160588143048344.0
13.844365208556836,1.1856742151401322e+16,1.5264312355755318e+16,1011198708514262.0,1127835527116641.0,1959825817679.2266,3790223361063.2134,55511616322346.5,1207274303222006.5
14.221252512727972,1.2001578221130426e+16,1.5485883362759476e+16,1023551009412592.0,1141612605444934.2,2038007192228.8254,3941430186382.4165,57726199908006.68,1255435889484888.8
14.605677562982532,1.21467661205803e+16,1.5709461922380346e+16,1035933316003684.0,1155423150476404.2,2118648345477.88,4097394845560.4595,60010467546217.695,1305112824582725.8
14.997791114242183,1.229231016530589e+16,1.5935096108585974e+16,1048345996338359.4,1169267572714757.8,2201815668120.1436,4258245783128.7,62366300488724.94,1356346012287002.8
15.397746936527026,1.243821411074564e+16,1.6162834385455738e+16,1060789370698062.4,1183146229384348.5,2287577174421.801,4424114586154.071,64795626015724.44,1409177356851400.8
15.805701875257567,1.2584481164861128e+16,1.6392725642821646e+16,1073263712672848.0,1197059425632514.0,2376002534205.2036,4595136046224.182,67300418343838.18,1463649782730892.2
16.221815912762718,1.2731113999833096e+16,1.6624819231068432e+16,1085769250158853.5,1211007415642112.2,2467163105253.537,4771448222252.368,69882699546101.01,1519807254560743.8
16.64625223101797,1.2878114762898484e+16,1.6859164995190334e+16,1098306166282541.1,1224990403662364.8,2561131966131.88,4953192504093.932,72544540483841.14,1577694797392872.5
17.079177275638333,1.3025485176685246e+16,1.709581330521596e+16,1110874607955971.2,1239008553545778.5,2657983967651.239,5140513709917.546,75288061506708.67,1637358407844697.5
17.5207608211511,1.3173226187017766e+16,1.7334815098212304e+16,1123474655847029.1,1253061955275232.5,2757795693966.0293,5333560020303.855,78115434377738.19,1698845509980258.0
17.97117603757412,1.3321338514767088e+16,1.757622190117146e+16,1136106371433215.8,1267150677414193.0,2860645604897.507,5532483239955.719,81028881793378.16,1762204326918741.8
18.430599558325603,1.346982230121947e+16,1.7820085866224848e+16,1148769766764096.5,1281274733402095.5,2966613998514.0557,5737438734586.837,84030679320308.69,1827484332785803.0
18.899211549492115,1.3618677206599862e+16,1.806645980219104e+16,1161464812862065.8,1295434090918923.2,3075783063856.087,5948585530806.092,87123156146871.44,1894736167068655.0
19.37719578048196,1.3767902417223044e+16,1.8315397205838156e+16,1174191440332220.8,1309628672565427.0,3188236916156.149,6166086384416.9795,90308696083578.55,1964011656333301.8
19.864739696091597,1.3917496652230766e+16,1.8566952292908628e+16,1186949539936956.0,1323858356503999.8,3304061632441.3423,6390107849464.522,93589738574583.95,2035363836180470.5
20.36203449001343,1.406745816996281e+16,1.8821180028957236e+16,1199738963139313.5,1338122977064684.8,3423345287512.8267,6620820348020.322,96968779719967.34,2108846973434955.8
20.869275179813698,1.4217784774004776e+16,1.9078136160048548e+16,1212559522618746.0,1352422325320443.0,3546177990297.0225,6858398240695.194,100448373308689.64,2184516588564899.8
21.38666068340997,1.4368473818953966e+16,1.9337877243360828e+16,1225410992762882.2,1366756149635634.0,3672651920562.986,7103019897869.5625,104031131862066.97,2262429478327814.5
21.91439389707817,1.4519522215941688e+16,1.9600460677736604e+16,1238293110138486.5,1381124156191309.8,3802861366000.415,7354867771630.88,107719727687610.67,2342643738639896.5
22.452681775019734,1.467092643794891e+16,1.9865944734220936e+16,1251205573944798.0,1395526009490826.0,3936902759652.9165,7614128468408.304,111516893943089.22,2425218787665272.5
23.00173541052013,1.482268252494863e+16,2.0134388586622216e+16,1264148046452107.5,1409961332849023.0,4074874717700.714,7880992822293.927,115425425710656.42,2510215389121859.0
23.561770118730532,1.4974786088908184e+16,2.0405852342132536e+16,1277120153428363.2,1424429708868032.5,4216878077587.6265,8155655969040.468,119448181080897.7,2597695675800442.0
24.133005521105144,1.5127232318681354e+16,2.0680397072037756e+16,1290121484556406.0,1438930679902629.5,4363015936486.4644,8438317420725.277,123588082246645.0,2687723173293540.0
24.715665631527248,1.52800159848194e+16,2.0958084842550076e+16,1303151593844266.0,1453463748517882.0,4513393690097.679,8729181141070.415,127848116606416.44,2780362823930891.5
25.309978944157795,1.54331314443284e+16,2.12389787457896e+16,1316210000030904.8,1468028377941645.0,4668119071775.669,9028455621409.15,132231337877329.7,2875681010918122.5
25.91617852304095,1.558657264539847e+16,2.152314293094464e+16,1329296186989526.2,1482623992514450.0,4827302191977.61,9336353957288.773,136740867217352.02,2973745582675539.5
26.53450209350177,1.5740333132129522e+16,2.181064263563333e+16,1342409604130631.2,1497249978139001.2,4991055578029.598,9653093925700.69,141379894356747.06,3074625877373715.5
27.165192135371807,1.5894406049276682e+16,2.2101544217493692e+16,1355549666806706.2,1511905682731587.0,5159494214204.909,9978898062928.139,146151678738584.3,3178392747663008.0
27.808495978079243,1.6048784147036966e+16,2.2395915186021984e+16,1368715756720487.0,1526590416677380.2,5332735582109.877,10313993743003.111,151059550668178.56,3285118585593828.0
28.464665897640828,1.6203459785898358e+16,2.2693824234683028e+16,1381907222338474.0,1541303453291694.8,5510899701372.229,10658613256763.658,156106912471342.1,3394877347725081.0
29.133959215593645,1.635842494156993e+16,2.299534127331143e+16,1395123379311421.2,1556044029288968.8,5694109170627.705,11012993891503.422,161297239661324.4,3507744580417666.5
29.816638399905518,1.6513671210012182e+16,2.330053746082187e+16,1408363510903333.2,1570811345261227.2,5882489208800.502,11377378011205.887,166634082114325.72,3623797445310816.0
30.51297116790363,1.6669189812583752e+16,2.360948523824783e+16,1421626868430415.5,1585604566167673.8,6076167696673.461,11752013137356.066,172121065253490.22,3743114744978475.0
31.223230591261704,1.6824971601321224e+16,2.3922258362123404e+16,1434912671711345.8,1600422821836907.0,6275275218744.111,12137152030322.412,177761891241261.16,3865776948763584.5
31.947695203086937,1.6981007064365966e+16,2.4238931938223784e+16,1448220109530099.5,1615265207483110.2,6479945105362.912,12533052771303.143,183560340180019.06,3991866218787922.5
32.686649107148675,1.7137286331551872e+16,2.4559582455678424e+16,1461548340112527.5,1630130784237605.0,6690313475150.2,12939978844830.213,189520271320910.38,4121466436135481.5
33.44038208929165,1.7293799180166518e+16,2.4884287821468692e+16,1474896491617644.5,1645018579696835.0,6906519277688.59,13358199221826.234,195645624280781.22,4254663227207404.0
34.20918973107749,1.7450535040895738e+16,2.521312739532165e+16,1488263662644663.8,1659927588487845.0,7128704336487.643,13787988443208.268,201940420267147.88,4391543990246548.0
34.993373525699035,1.7607483003962476e+16,2.5546182025008628e+16,1501648922756509.5,1674856772852197.8,7357013392217.895,14229626704033.916,208408763311127.0,4532197922030085.0
35.793240996213015,1.7764631825467288e+16,2.5883534082057836e+16,1515051313020580.8,1689805063249113.0,7591594146211.329,14683399938185.191,215054841508254.22,4676716044728160.0
36.60910581613728,1.792196993393773e+16,2.6225267497885584e+16,1528469846567303.0,1704771358978448.8,7832597304225.41,15149599903584.766,221882928267130.97,4825191232927122.0
37.44128793246003,1.8079485437092184e+16,2.657146780035317e+16,1541903509166997.0,1719754528824079.5,8080176620467.7705,15628524267940.76,228897383565825.03,4977718240815636.0
38.29011369110923,1.8237166128821664e+16,2.6922222150749596e+16,1555351259825311.0,1734753411718045.8,8334488941878.848,16120476695014.854,236102655215958.56,5134393729531757.0
39.15591596493141,1.8394999496392856e+16,2.7277619381203904e+16,1568812031397510.5,1749766817425691.8,8595694252668.93,16625766931408.41,243503280134410.72,5295316294669410.0
40.03903428423004,1.8552972727872316e+16,2.763775003252347e+16,1582284731221693.2,1764793527251901.2,8863955719106.629,17144710893862.072,251103885622554.03,5460586493942006.0
40.93981496991464,1.871107271977224e+16,2.8002706392457276e+16,1595768241770803.2,1779832294768320.0,9139439734554.84,17677630757061.207,258909190652933.9,5630306875001312.0
41.85861126931294,1.8869286084914492e+16,2.8372582534378252e+16,1609261421323351.8,1794881846561464.5,9422315964750.072,18224855041941.555,266924007163294.44,5804582003408893.0
42.7957834946992,1.9027599160510228e+16,2.874747435637696e+16,1622763104652469.2,1809940883001225.8,9712757393320.582,18786718704486.28,275153241357825.44,5983518490757395.0
43.751699164593184,1.918599801644911e+16,2.9127479620757956e+16,1636272103732858.0,1825008079029379.5,10010940367537.531,19363563225005.508,283601895015510.9,6167225022938571.0
44.72673314788505,1.9344468463791936e+16,2.951269799392642e+16,1649787208465069.2,1840082084967397.8,10317044644293.742,19955736697887.445,292275066805405.4,6355812388554428.0
