t(s),Total solute volume 1,Total retention volume 1,Total 1 volume 1,Total 2 volume 1,Total 3 volume 1,Total 4 volume 1,Total 5 volume 1,Total 6 volume 1
0.1,1301436301972856.8,2401541677724917.5,422763850992510.6,677341524759550.8,0.0,0.0,0.0,-2.162416271574588e-76
0.202,1956334081984805.0,3610079909157721.0,635503520794337.4,1018187742857109.6,13101298.29502313,44226733.32880383,1486068033.8043728,53020125404.17415
0.30604000000000003,2456217706449185.5,4532600126426625.0,797887752722834.1,1278355685051970.2,33226588.526776038,112165595.65495558,3770286471.0894027,135066523977.85063
0.41216080000000005,2879231428606959.5,5313296088483529.0,935301251839123.0,1498516140534372.0,59008999.46364889,199201925.5139147,6696891606.29339,240312400542.95883
0.5204040160000001,3254964332990856.0,6006765976010756.0,1057355857458658.0,1694068961268460.8,89840512.70012027,303283118.77251965,10196777271.110357,366234391880.83514
0.6308120963200001,3598193431493761.5,6640276442247788.0,1168851794419274.2,1872704947912039.8,125394982.8673725,423308153.5215627,14232890127.555626,511486829447.22754
0.7434283382464002,3917515728809132.5,7229690760009682.0,1272581748762450.5,2038898472193381.5,165486049.45183483,558647903.9055208,18784060414.47723,675302050346.1824
0.8582969050113283,4218441554325393.0,7785176701272827.0,1370335718330761.8,2195517423797880.8,210008702.46381345,708947871.5422938,23838359425.619358,857247502790.2129
0.9754628431115548,4504748190536184.0,8313704266864549.0,1463340730949524.0,2344527715922981.0,258910480.96864584,874030955.4209201,29389826880.507828,1057106687535.9194
1.094972099973786,4779156154433886.0,8820293561660079.0,1552480530433451.5,2487345260721395.5,312175520.4461656,1053843598.0501585,35436658661.72453,1274813393556.695
1.2168715419732616,5043700694113811.0,9308700277102752.0,1638416255057967.8,2625029317331838.5,369814966.66953754,1248423424.1581624,41980117945.07064,1510412242804.2402
1.3412089728127268,5299950988056061.0,9781820154017718.0,1721657643147015.5,2758396575689486.0,431860860.0654708,1457878595.2495434,49023840593.11282,1764033545098.9753
1.4680331522689813,5549146925675576.0,1.0241941366656784e+16,1802607465424072.0,2888092344925351.0,498362053.1518167,1682374027.5298254,56573371489.70949,2035876524217.4705
1.597393815314361,5792288390422418.0,1.0690909264978704e+16,1881590528098054.2,3014637021383144.5,569381388.2126324,1922121864.1975157,64635844015.70626,2326197727820.487
1.729341691620648,6030195739725249.0,1.1130237969889206e+16,1958873319414360.2,3138457565830469.5,644993692.6522425,2177374708.0910907,73219752393.2866,2635302798327.2495
1.863928525453061,6263552066137936.0,1.1561188351643742e+16,2034677737937828.2,3259909498569064.0,725284325.3364109,2448420714.379676,82334786606.32811,2963540507254.761
2.001207095962122,6492933518209161.0,1.198482397646321e+16,2109190942107403.2,3379292680144046.0,810348106.2838032,2735579977.381355,91991710856.5358,3311298363657.4717
2.1412312378813647,6718831555073035.0,1.2402052169594046e+16,2182572579507966.0,3496862893901589.5,900288520.5300694,3039201842.9428883,102202273155.49182,3678999347950.9727
2.284055862638992,6941669607206987.0,1.281365475691066e+16,2254960199018730.0,3612840517197149.0,995217122.8773082,3359662898.974715,112979137729.3138,4067099470046.693
2.4297369798917723,7161815768197536.0,1.3220311483166946e+16,2326473373658068.0,3727417126913847.5,1095253093.03482,3697365473.681567,124335834501.43123,4476085944437.801
2.578331719489608,7379592613061253.0,1.3622618128361764e+16,2397216890006882.0,3840760609476450.5,1200522905.563933,4052736521.351946,136286721612.0232,4906475836137.925
2.7298983538794,7595284898714381.0,1.4021100716406934e+16,2467283249660471.5,3953019168614652.5,1311160089.0428114,4426226809.339158,148846958068.7306,5358815072468.386
2.884496320956988,7809145678330494.0,1.441622679723891e+16,2536754655441365.0,4064324507623360.5,1427305055.734313,4818310343.048314,162032484403.13757,5833677743890.866
3.0421862473761276,8021401210609923.0,1.4808414505418228e+16,2605704606146375.0,4174794384426376.0,1549104987.8506045,5229483981.984176,175860009753.84784,6331665636833.56
3.2030299723236504,8232254941466562.0,1.5198039907254318e+16,2674199189973938.0,4284534683873113.5,1676713769.9401522,5660267211.500152,190347004186.70938,6853407955545.744
3.3670905717701234,8441890763245167.0,1.558544301491741e+16,2742298143261553.0,4393641114021118.0,1810291959.4115965,6111202043.290693,205511695345.3989,7399561200229.48
3.5344323832055258,8650475705122806.0,1.5970932751048502e+16,2810055724446676.0,4502200606374262.5,1950006789.0411572,6582853023.854514,221373068733.61368,7970809176214.55
3.7051210308696363,8858162171219150.0,1.6354791078870966e+16,2877521441103649.5,4610292480722995.0,2096032196.6773775,7075807334.771127,237950871085.39185,8567863114551.519
3.879223451487029,9065089815784286.0,1.6737276462699358e+16,2944740659087281.0,4717989421098896.0,2248548878.390131,7590674972.121166,255265616397.38275,9191461888635.268
4.0568079205167695,9271387124718928.0,1.7118626786629578e+16,3011755116280326.0,4825358298887981.0,2407744362.1006346,8128088995.046842,273338594286.58362,9842372314710.533
4.237944078927105,9477172757612640.0,1.7499061831389094e+16,3078603358546652.5,4932460871303850.0,2573813099.339517,8688705835.509443,292191880406.36536,10521389526613.76
4.422702960505647,9682556693072914.0,1.7878785388267796e+16,3145321111784596.0,5039354377482268.0,2746956573.256333,9273205662.909105,311848348707.6994,11229337417059.062
4.61115701971576,9887641211389332.0,1.8257987072945376e+16,3211941601139559.5,5146092049915579.0,2927383421.379538,9882292798.498951,332331685375.1353,11967069139315.012
4.803380160110075,1.0092521741838552e+16,1.863684388959747e+16,3278495826246055.0,5252723555438491.0,3115309571.9242415,10516696175.534628,353666404300.98474,12735467664343.4
4.9994477633122765,1.0297287596689762e+16,1.9015521585982804e+16,3345012799664991.5,5359295377246405.0,3310958392.6847086,11177169841.907335,375877863988.33185,13535446389451.87
5.199436718578522,1.0502022609851612e+16,1.939417583261508e+16,3411519754344360.0,5465851147283652.0,3514560851.742018,11864493502.662851,398992285795.5176,14367949795306.61
5.403425452950093,1.0706805694845336e+16,1.9772953253114256e+16,3478042324873447.0,5572431936644446.0,3726355689.3753777,12579473100.341959,423036773452.62714,15233954148797.98
5.611493962009095,1.0911711334193852e+16,2.0151992328045588e+16,3544604706458081.5,5679076510279037.0,3946589600.694986,13322941431.514961,448039333795.265,16134468249783.266
5.823723841249277,1.111681001023795e+16,2.0531424190716452e+16,3611229794868593.0,5785821551214815.0,4175517428.622022,14095758798.246279,474028898673.07697,17070534220170.998
6.040198318074262,1.1322168585710816e+16,2.0911373330305424e+16,3677939310067287.5,5892701858629085.0,4413402366.930709,14898813693.526415,501035348000.6699,18043228334178.48
6.261002284435747,1.1527850641041374e+16,2.1291958215184296e+16,3744753905779391.5,5999750523400992.0,4660516173.142736,15733023519.964252,529089533927.1101,19053661888902.184
6.486222330124463,1.173391677424408e+16,2.1673291847241084e+16,3811693266910459.5,6106999084191095.0,4917139391.128329,16599335341.246777,558223306107.4374,20102982114603.086
6.715946776726952,1.1940424868340326e+16,2.205548225633069e+16,3878776196416700.0,6214477666622949.0,5183561583.322556,17498726666.058178,588469538065.8408,21192373124331.05
6.950265712261491,1.2147430330505336e+16,2.2438632942589404e+16,3946020692990322.5,6322215107748553.0,5460081572.512285,18432206264.307842,619862154645.4058,22323056902705.55
7.18927102650672,1.2354986306508602e+16,2.2822843273200612e+16,4013444020719358.5,6430239067655529.0,5747007693.190307,19400815015.655323,652436160544.0482,23496294333836.21
7.433056447036854,1.2563143873499248e+16,2.3208208839238736e+16,4081062771712709.5,6538576129803521.0,6044658052.508157,20405626790.438736,686227669940.2169,24713386268512.53
7.681717575977592,1.277195221375122e+16,2.3594821777421116e+16,4148892922540408.5,6647251891451178.0,6353360800.891218,21447749363.22102,721273937215.5665,25975674630920.723
7.935351927497144,1.2981458771621098e+16,2.3982771060921024e+16,4216949885220252.0,6756291045345825.0,6673454412.407082,22528325359.26187,757613388784.9333,27284543565260.47
8.194058966047088,1.3191709395661646e+16,2.4372142762831924e+16,4285248553382668.5,6865717453687628.0,7005287975.00358,23648533234.307556,795285656046.8577,28641420622737.15
8.45794014536803,1.3402748467576698e+16,2.4763020295391292e+16,4353803344160940.5,6975554215244915.0,7349221490.755688,24809588288.16885,834331609470.3906,30047777989497.51
8.72709894827539,1.3614619019480546e+16,2.515548462766516e+16,4422628236282132.0,7085823726382635.0,7705626186.280918,26012743712.626385,874793393836.3887,31505133756163.09
9.0016409272409,1.3827362840737516e+16,2.5549614484049656e+16,4491736804773398.5,7196547736667924.0,8074884833.502492,27259291674.267117,916714464653.5697,33015053229692.91
9.281673745785717,1.4041020575496938e+16,2.5945486525645956e+16,4561142252645592.0,7307747399632766.0,8457392080.956752,28550564432.917866,960139625771.7124,34579150288380.74
9.567307220701432,1.4255631811900474e+16,2.634317551631406e+16,4630857439871735.0,7419443319202471.0,8853554795.858725,29887935496.394833,1005115068216.2123,36199088780859.78
9.85865336511546,1.447123516381981e+16,2.674275447498916e+16,4700894909938993.0,7531655592236806.0,9263792417.154839,31272820812.34456,1051688410270.047,37876583970053.6
10.155826432417769,1.4687868345881308e+16,2.7144294815657604e+16,4771266914220080.0,7644403847577010.0,9688537319.807266,32706679998.0009,1099908738830.8708,39613404023071.95
10.458942961066125,1.4905568242444796e+16,2.7547866476224604e+16,4841985434380498.0,7757707281946292.0,10128235190.568487,34191017608.730476,1149826652072.6323,41411371548110.74
10.768121820287448,1.5124370971127104e+16,2.795353803736482e+16,4913062203013881.0,7871584693011055.0,10583345415.519215,35727384446.289185,1201494303442.6787,43272365179470.58
11.083484256693197,1.5344311941394398e+16,2.8361376832324824e+16,4984508722675273.0,7986054509875849.0,11054341479.655111,37317378907.75357,1254965447026.827,45198321211867.07
11.405153941827061,1.5565425908688732e+16,2.8771449048535696e+16,5056336283463924.0,8101134821253709.0,11541711378.823008,38962648376.14125,1310295484316.4143,47191235285256.9
11.733257020663602,1.578774702450334e+16,2.9183819821804068e+16,5128555979289833.0,8216843401528318.0,12045958044.317663,40664890653.772095,1367541512412.8123,49253164121457.51
12.067922161076874,1.6011308882776932e+16,2.9598553323764684e+16,5201178722944737.0,8333197734900202.0,12567599780.466066,42425855439.47131,1426762373706.3823,51386227313894.66
12.409280604298411,1.6236144562937324e+16,3.0015712843206492e+16,5274215260084572.0,8450215037789081.0,13107170715.536173,44247345850.75527,1488018707068.1904,53592609171859.01
12.75746621638438,1.6462286669891054e+16,3.043536086182029e+16,5347676182219880.0,8567912279646804.0,13665221266.32172,46131219992.18394,1551373000594.4011,55874560620708.79
13.112615540712067,1.6689767371224678e+16,3.0857559124860612e+16,5421571938800340.0,8686306202318947.0,14242318616.766598,48079392571.10909,1616889645944.6218,58234401159506.66
13.474867851526309,1.691861843185657e+16,3.128236870716321e+16,5495912848471291.0,8805413338079628.0,14839047211.005198,50093836562.08741,1684634994316.8772,60674520877630.73
13.844365208556836,1.7148871246354532e+16,3.1709850074918104e+16,5570709109571894.0,8925250026451417.0,15456009261.207787,52176584921.27382,1754677414103.4827,63197382531951.836
14.221252512727972,1.7380556869113114e+16,3.214006314355655e+16,5645970809938011.0,9045832429911300.0,16093825270.633425,54329732352.15178,1827087350273.4358,65805523686224.22
14.605677562982532,1.7613706042565652e+16,3.2573067332078076e+16,5721707936066844.0,9167176548573996.0,16753134572.305227,56555437124.0024,1901937385528.4597,68501558914387.71
14.997791114242183,1.7848349223590066e+16,3.3008921614110964e+16,5797930381694493.0,9289298233934702.0,17434595883.736897,58855922944.55874,1979302303281.3313,71288182069534.52
15.397746936527026,1.808451660825113e+16,3.3447684565973104e+16,5874647955833524.0,9412213201746816.0,18138887878.15173,61233480888.33765,2059259152506.7605,74168168620349.16
15.805701875257567,1.8322238155010264e+16,3.38894144119766e+16,5951870390312466.0,9535937044101302.0,18866709772.649956,63690471382.1841,2141887314516.329,77144378056885.33
16.221815912762718,1.856154360652045e+16,3.4334169067193736e+16,6029607346855719.0,9660485240770106.0,19618781933.79352,66229326249.61485,2227268571710.942,80219756367597.86
16.64625223101797,1.880246251011431e+16,3.4782006177888056e+16,6107868423739091.0,9785873169869362.0,20395846501.09139,68852550815.59007,2315487178365.556,83397338589612.36
17.079177275638333,1.904502423708302e+16,3.5232983159790384e+16,6186663162052300.0,9912116117893162.0,21198668028.8827,71562726073.39487,2406629933502.696,86680251434259.6
17.5207608211511,1.9289258000835652e+16,3.568715723438945e+16,6266001051597985.0,1.0039229289164836e+16,22028034147.130585,74362510915.35663,2500786255912.898,90071715989982.78
17.97117603757412,1.953519287401978e+16,3.614458546338731e+16,6345891536453353.0,1.0167227814747342e+16,22884756241.652363,77254644429.17911,2598048261381.862,93575050504760.73
18.430599558325603,1.978285780467919e+16,3.660532478146155e+16,6426344020218716.0,1.029612676085277e+16,23769670154.329147,80241948261.72206,2698510842185.9263,97193673250275.34
18.899211549492115,2.0032281631515412e+16,3.70694320274609e+16,6507367870975250.0,1.042594113678526e+16,24683636903.851685,83327329052.10693,2802271748919.116,100931105470099.8
19.37719578048196,2.028349309831634e+16,3.753696397415217e+16,6588972425971965.0,1.0556685902450502e+16,25627543427.575985,86513780936.08664,2909431674716.714,104790974414255.81
19.864739696091597,2.053652086760907e+16,3.8007977356627176e+16,6671166996060803.0,1.0688375975461386e+16,26602303345.077335,89804388123.66467,3020094341942.5405,108777016462549.05
20.36203449001343,2.079139353358917e+16,3.84825288994689e+16,6753960869896631.0,1.0821026237867246e+16,27608857744.009583,93202327552.01266,3134366591408.443,112893080339164.19
20.869275179813698,2.104813963437507e+16,3.896067534276774e+16,6837363317917985.0,1.0954651542531704e+16,28648175988.89029,96710871615.78253,3252358474196.76,117143130421068.7
21.38666068340997,2.1306787663631812e+16,3.9442473467073384e+16,6921383596122893.0,1.1089266719182172e+16,29721256553.45374,100333390976.97705,3374183346158.457,121531250142838.69
21.91439389707817,2.1567366081603896e+16,3.99279801173605e+16,7006030949653115.0,1.1224886580152338e+16,30829127877.226707,104073357456.59503,3499957965161.362,126061645500600.06
22.452681775019734,2.182990332559751e+16,4.0417252226078776e+16,7091314616198795.0,1.136152592583721e+16,31972849247.002754,107934347010.32918,3629802591165.3745,130738648657849.19
23.00173541052013,2.2094427819942956e+16,4.091034683535653e+16,7177243829235175.0,1.1499199549878734e+16,33153511703.909412,111920042790.65851,3763841089203.0933,135566721655987.42
23.561770118730532,2.2360967985473176e+16,4.1407321118417784e+16,7263827821101199.0,1.1637922244098306e+16,34372238976.77847,116034238297.73727,3902201035346.9634,140550460232486.53
24.133005521105144,2.262955224854426e+16,4.1908232400271096e+16,7351075825930123.0,1.177770880319221e+16,35630188442.55167,120280840621.55098,4045013825745.741,145694597749678.5
24.715665631527248,2.2900209049628412e+16,4.241313817772441e+16,7438997082440660.0,1.1918574029203278e+16,36928552114.47175,124663873777.8706,4192414788815.6587,151004009237240.7
25.309978944157795,2.3172966851501636e+16,4.292209613877322e+16,7527600836596751.0,1.2060532735782702e+16,38268557658.83034,129187482140.60817,4344543300673.6685,156483715551533.12
25.91617852304095,2.34478541470514e+16,4.343516418141111e+16,7616896344144007.0,1.2203599752253322e+16,39651469441.06294,133855933973.24355,4501542903902.608,162138887655023.6
26.53450209350177,2.3724899466724972e+16,4.395240043190384e+16,7706892873028981.0,1.2347789927486316e+16,41078589602.00194,138673625062.06244,4663561429740.56,167974851019126.94
27.165192135371807,2.4004131385638652e+16,4.447386326256778e+16,7797599705708741.0,1.2493118133601104e+16,42551259165.12341,143645082454.01987,4830751123788.711,173997090153871.97
27.808495978079243,2.428557853036549e+16,4.499961130909017e+16,7889026141355802.0,1.2639599269498202e+16,44070859175.64,148774968302.1115,5003268775335.276,180211253267884.4
28.464665897640828,2.456926958542007e+16,4.552970348742711e+16,7981181497964588.0,1.2787248264234094e+16,45638811872.317924,154068083821.21762,5181275850394.432,186623157062295.28
29.133959215593645,2.4855233299454564e+16,4.6064199010311256e+16,8074075114364303.0,1.2936080080246322e+16,47256581892.918724,159529373357.45526,5364938628563.092,193238791662240.47
29.816638399905518,2.514349849118176e+16,4.660315740340011e+16,8167716352142902.0,1.3086109716435824e+16,48925677514.18651,165163928574.15482,5554428343799.65,200064325689748.66
30.51297116790363,2.5434094055038536e+16,4.714663852109587e+16,8262114597486811.0,1.3237352211114708e+16,50647651927.330696,170976992757.65692,5749921329232.8125,207106111481875.28
31.223230591261704,2.5727048966601508e+16,4.7694702562060584e+16,8357279262940298.0,1.3389822644824826e+16,52424104549.971344,176973965246.2076,5951599166110.298,214370690458078.28
31.947695203086937,2.6022392287767588e+16,4.824741008445626e+16,8453219789088257.0,1.354353614303411e+16,54256682375.54608,183160405985.30753,6159648837000.618,221864798640892.38
32.686649107148675,2.632015317171006e+16,4.880482202093104e+16,8549945646166112.0,1.3698507878715804e+16,56147081361.19622,189542040212.97482,6374262883363.843,229595372334098.03
33.44038208929165,2.662036086761904e+16,4.9366999693376184e+16,8647466335599834.0,1.3854753074815966e+16,58097047855.18067,196124763278.4303,6595639567610.037,237569553962659.66
34.20918973107749,2.692304472523739e+16,4.993400482747493e+16,8745791391479362.0,1.4012287006613874e+16,60108380064.88973,202914645597.8539,6823983039767.439,245794698078834.72
34.993373525699035,2.7228234199199308e+16,5.050589956706274e+16,8844930381967942.0,1.4171125003980344e+16,62182929566.557076,209917937750.90195,7059503508884.658,254278377538944.34
35.793240996213015,2.753595885318e+16,5.108274648832064e+16,8944892910650152.0,1.433128245353731e+16,64322602857.79786,217141075721.79477,7302417419295.581,263028389855434.88
36.60910581613728,2.7846248363864016e+16,5.16646086138183e+16,9045688617820974.0,1.449277480072325e+16,66529362954.12632,224590686288.87863,7552947631877.224,272052763728943.25
37.44128793246003,2.815913252473839e+16,5.2251549426423096e+16,9147327181718074.0,1.4655617551767326e+16,68805231030.63676,232273592566.64417,7811323610435.577,281359765765222.12
38.29011369110923,2.847464124971795e+16,5.284363288309637e+16,9249818319699224.0,1.4819826275576206e+16,71152288110.05768,240196819704.3012,8077781613356.455,290957907381882.75
39.15591596493141,2.8792804576607092e+16,5.344092342858813e+16,9353171789367080.0,1.498541660553569e+16,73572676798.4222,248367600745.0882,8352564890662.474,300855951910040.56
40.03903428423004,2.911365267040489e+16,5.4043486009047016e+16,9457397389642734.0,1.5152404241230988e+16,76068603069.62419,256793382650.618,8635923886620.61,311062921896065.75
40.93981496991464,2.9437215826457304e+16,5.465138608556175e+16,9562504961789668.0,1.5320804950087354e+16,78642338100.16203,265481832494.64633,8928116448047.926,321588106608778.6
41.85861126931294,2.9763524473461536e+16,5.526468964764491e+16,9668504390389796.0,1.5490634568933546e+16,81296220155.40239,274440843830.76477,9229408038466.518,332441069757537.94
