t(s),Total solute volume 1,Total retention volume 1,Total 1 volume 1,Total 2 volume 1,Total 3 volume 1,Total 4 volume 1,Total 5 volume 1,Total 6 volume 1
0.1,1225891390677807.5,1918426285810987.5,281662698191601.44,410872196941578.9,0.0,0.0,0.0,0.0
0.202,1843162081515588.2,2888416987984658.5,423487770757754.94,617757909815218.9,1512991270.1169565,4421531756.092663,120113140066.20992,3883178233008.834
0.30604000000000003,2312710939045207.5,3629389766140257.0,531372043259533.1,775132854152045.5,3834782290.4273715,11206715073.324224,304470298740.6412,9854417887364.928
0.41216080000000005,2708987781730571.5,4257422629746256.0,622421223922444.0,907949800052266.5,6805313660.622359,19887779963.020115,540346969420.21783,17496783977930.572
0.5204040160000001,3060053175231194.0,4816236500987352.0,703082551977645.0,1025613584947674.1,10352693512.291294,30254628485.962215,822032407307.6633,26624549101535.742
0.6308120963200001,3379908998597099.5,5327638809846963.0,776573120878737.1,1132817107232473.8,14437700326.046398,42192639600.875786,1146411467132.8406,37136541331598.29
0.7434283382464002,3676698089240758.5,5804311120819612.0,844763841568001.4,1232289536831297.0,19037281129.431156,55634443498.90106,1511653276338.2288,48973328178586.82
0.8582969050113283,3955637527956261.5,6254381382444488.0,908853398608593.2,1325779441106408.5,24137761626.8187,70540078721.10316,1916671848766.7034,62099665084104.54
0.9754628431115548,4220301540916635.0,6683422643882422.0,969663011739776.0,1414484764926471.0,29731496020.64024,86887201546.58514,2360859981006.3457,76495847620961.95
1.094972099973786,4473262337648383.5,7095450968448107.0,1027783675803949.9,1499267615230027.0,35815008448.44533,104665654510.54016,2843941637070.6196,92152917465713.52
1.2168715419732616,4716442134630543.0,7493473344256943.0,1083657042234404.1,1580772245970714.8,42387873608.782936,123874195138.66158,3365883046276.975,109069776306254.16
1.3412089728127268,4951320879554698.0,7879810850527950.0,1137623146103104.2,1659494679401604.0,49452000355.60562,144518402321.16104,3926835806917.597,127251339258943.05
1.4680331522689813,5179065886406064.0,8256300248643566.0,1189950191277709.2,1735826154831447.0,57011151339.005005,166609272510.5686,4527098737271.223,146707296967230.56
1.597393815314361,5400616466127082.0,8624425534005386.0,1240853995293867.0,1810081493609078.8,65070608915.9047,190162243379.83408,5167091343428.617,167451254779626.25
1.729341691620648,5616741263615958.0,8985407027745219.0,1290511163192781.2,1882518316307698.8,73636935902.44302,215196494646.3147,5847334819345.857,189500116378891.06
1.863928525453061,5828078328811619.0,9340263618435090.0,1339068294315712.8,1953350473030628.8,82717800163.45961,241734435453.62772,6568438116705.445,212873631924802.03
2.001207095962122,6035163870552415.0,9689857411148504.0,1386648588835055.0,2022757680612639.2,92321843540.39713,269801321328.29108,7331087536003.612,237594060447526.94
2.1412312378813647,6238453363985192.0,1.0034926494549274e+16,1433356697425321.0,2090892597021727.5,102458582410.76967,299424963576.6115,8136038829703.473,263685913741345.2
2.284055862638992,6438337354496271.0,1.0376109469868986e+16,1479282352398778.2,2157886118236544.8,113138331342.9665,330635506175.49493,8984111139525.041,291175759760340.2
2.4297369798917723,6635153498083354.0,1.0713964135968422e+16,1524503134119925.8,2223851413721697.5,124372143959.28922,363465252952.71576,9876182300336.32,320092070346215.8
2.578331719489608,6829195876578636.0,1.104898194446576e+16,1569086611285576.2,2288887048536699.5,136171766852.9215,397948532916.0995,10813185180726.078,350465102584352.8
2.7298983538794,7020722303998087.0,1.1381599337890232e+16,1613092019642983.8,2353079432146739.0,148549603567.45728,434121594989.6225,11796104822695.133,382326806081167.94
2.884496320956988,7209960128152217.0,1.1712206753962888e+16,1656571594976886.5,2416504762902208.0,161518686445.96533,472022525747.5629,12825976206307.592,415710750513070.06
3.0421862473761276,7397110888810202.0,1.2041155857053198e+16,1699571643376523.2,2479230589278433.0,175092654715.85544,511691185372.255,13903882509558.05,450652069238381.06
3.2030299723236504,7582354095588754.0,1.2368765405371022e+16,1742133409249218.2,2541317076080439.5,189285737574.7367,553169158226.8527,15030953765393.709,487187415791419.7
3.3670905717701234,7765850320111671.0,1.2695326055829412e+16,1784293785779746.0,2602818040817446.5,204112741331.68454,596499715279.7546,16208365840798.562,525354930823112.56
3.5344323832055258,7947743748198878.0,1.3021104332730378e+16,1826085901325235.0,2663781809099651.5,219589039871.17004,641727786239.2784,17437339679749.225,565194217600757.6
3.7051210308696363,8128164302639498.0,1.3346345931757848e+16,1867539607146781.2,2724251926111113.5,235730567865.59366,688899939720.9945,18719140764454.918,606746324588412.0
3.879223451487029,8307229421351464.0,1.3671278490778228e+16,1908681885962173.0,2784267752581366.0,252553816282.1883,738064370120.2615,20055078758809.023,650053733938020.8
4.0568079205167695,8485045556655417.0,1.399611392934405e+16,1949537196421365.2,2843864967285020.0,270075829821.5431,789270890129.8707,21446507305246.15,695160354957057.0
4.237944078927105,8661709447096417.0,1.432105043661278e+16,1990127765322207.0,2903075993308130.5,288314205995.5629,842570928048.9136,22894823951800.266,742111521800186.5
4.422702960505647,8837309202421878.0,1.4646274170599506e+16,2030473836896652.5,2961930361691532.5,307287095607.6472,898017529189.6694,24401470190527.758,790953994774115.0
4.61115701971576,9011925234042254.0,1.4971960718836202e+16,2070593886594849.8,3020455023285998.0,327013204441.06885,955665360815.4718,25967931591886.754,841735964755947.8
4.803380160110075,9185631056908446.0,1.529827636059727e+16,2110504805325724.0,3078674617510990.0,347511795995.7438,1015570720142.5988,27595738022383.297,894507060313596.1
4.9994477633122765,9358493983760478.0,1.5625379163131852e+16,2150222058968641.5,3136611705040533.0,368802695140.93396,1077791545019.0099,29286463934964.156,949318357187090.2
5.199436718578522,9530575728794604.0,1.5953419938286162e+16,2189759827072896.2,3194286970129438.0,390906292573.35376,1142387426957.0273,31041728723381.473,1006222389846300.1
5.403425452950093,9701932934704292.0,1.6282543081108844e+16,2229131123951435.0,3251719397257418.5,413843549987.9802,1209419626248.989,32863197133166.414,1065273164886306.4
5.611493962009095,9872617634587920.0,1.6612887308217382e+16,2268347904809535.5,3308926425943070.0,437636005883.3483,1278951088937.333,34752579723000.56,1126526176059058.0
5.823723841249277,1.0042677658242602e+16,1.6944586310645182e+16,2307421159095457.0,3365924086918021.0,462305781934.9709,1351046465445.154,36711633371216.93,1190038420770502.0
6.040198318074262,1.0212156990768254e+16,1.7277769333420768e+16,2346360992893881.0,3422727122317519.0,487875589880.3436,1425772130702.076,38742161822939.74,1255868417897583.0
6.261002284435747,1.03810960901144e+16,1.761256169212924e+16,2385176701885971.0,3479349092109922.5,514368738867.094,1503196205623.7969,40846016274016.58,1324076226800435.5
6.486222330124463,1.0549532169144992e+16,1.7949085235070108e+16,2423876836157005.5,3535802468634211.0,541809143222.5863,1583388579823.5667,43025095988433.83,1394723467422422.8
6.715946776726952,1.0717499446930674e+16,1.8287458758285696e+16,2462469257933666.5,3592098720823587.5,570221330608.9609,1666420935450.3071,45281348946354.27,1467873341385366.5
6.950265712261491,1.0885029373262792e+16,1.8627798379627908e+16,2500961193168770.0,3648248389454021.0,599630450532.3569,1752366772061.9949,47616772520294.98,1543590653999417.5
7.18927102650672,1.1052150829791242e+16,1.8970217877114532e+16,2539359277754953.0,3704261154558014.0,630062283179.0409,1841301432454.7783,50033414177281.89,1621941837117450.0
7.433056447036854,1.1218890310694782e+16,1.9314828996064776e+16,2577669599035803.0,3760145895978453.5,661543248554.6603,1933302129378.0898,52533372205089.984,1702994972772704.5
7.681717575977592,1.1385272085380478e+16,1.966174172886325e+16,2615897733187918.0,3815910747899271.5,694100415905.6539,2028447973074.7385,55118796460907.03,1786819817545745.0
7.935351927497144,1.1551318345361818e+16,2.0011064570670416e+16,2654048778967860.5,3871563148073393.0,727761513404.4451,2126819999592.0952,57791889140960.055,1873487827613377.0
8.194058966047088,1.1717049337174224e+16,2.0362904753941508e+16,2692127388251007.5,3927109882370989.0,762554938082.1082,2228501199816.868,60554905569811.47,1963072184437623.8
8.45794014536803,1.1882483482938354e+16,2.071736846423946e+16,2730137793732401.0,3982557125187695.5,798509765994.1129,2333576549191.3403,63410155008180.4,2055647821057624.5
8.72709894827539,1.2047637489972898e+16,2.1074561039497612e+16,2768083834111506.5,4037910476182681.5,835655762606.3536,2442133038073.6934,66360001478276.016,2151291448951561.8
9.0016409272409,1.2212526450678926e+16,2.1434587154617932e+16,2805968977041839.0,4093174993756074.0,874023393390.0851,2554259702709.1753,69406864605735.73,2250081585439281.0
9.281673745785717,1.237716393376556e+16,2.1797550993049136e+16,2843796340091068.0,4148355225624319.0,913643834615.5996,2670047656782.51,72553220477366.69,2352098581599490.0
9.567307220701432,1.2541562067754924e+16,2.2163556406790284e+16,2881568709927304.5,4203455236807943.5,954548984335.6548,2789590123525.133,75801602513972.22,2457424650678254.0
9.85865336511546,1.2705731617592354e+16,2.253270706608939e+16,2919288559921126.0,4258478635308247.5,996771473550.5482,2912982468353.7812,79154602357623.2,2566143896968112.5
10.155826432417769,1.2869682055089182e+16,2.2905106599958516e+16,2956958066330619.5,4313428595717171.5,1040344677547.7158,3040322232019.3267,82614870772806.14,2678342345139152.5
10.458942961066125,1.303342162384212e+16,2.3280858728493756e+16,2994579123217436.0,4368307880975792.0,1085302727409.4119,3171709164247.5103,86185118560942.33,2794107970005760.5
10.768121820287448,1.3196957399199992e+16,2.3660067387879256e+16,3032153356224725.5,4423118862472829.0,1131680521682.869,3307245257854.7715,89868117487824.86,2913530726714331.5
11.083484256693197,1.3360295343783768e+16,2.4042836848854604e+16,3069682135333617.5,4477863538652945.0,1179513738207.9119,3447034783324.6924,93666701223583.7,3036702581339143.0
11.405153941827061,1.3523440359011964e+16,2.442927182933925e+16,3107166586701663.0,4532543552285963.0,1228838846097.6484,3591184323832.408,97583766294826.8,3163717541874918.0
11.733257020663602,1.3686396333032704e+16,2.4819477601834324e+16,3144607603675889.0,4587160206532005.0,1279693117868.4868,3739802810705.757,101622273048658.88,3294671689616501.5
12.067922161076874,1.384916618542344e+16,2.5213560096155852e+16,3182005857063010.5,4641714479923122.0,1332114641716.105,3893001559313.6294,105785246628316.34,3429663210916949.5
12.409280604298411,1.4011751908979642e+16,2.5611625997996256e+16,3219361804730886.0,4696207040369177.0,1386142333934.7947,4050894305373.7305,110075777960204.9,3568792429317032.0
12.75746621638438,1.4174154608881904e+16,2.6013782843760388e+16,3256675700607575.0,4750638258285251.0,1441815951477.7737,4213597241672.971,114497024752157.53,3712161838040360.5
13.112615540712067,1.4336374539501224e+16,2.6420139112078404e+16,3293947603137839.5,4805008218927434.0,1499176104656.787,4381229055195.5034,119052212502777.31,3859876132849296.5
13.474867851526309,1.4498411139076824e+16,2.6830804312357756e+16,3331177383250725.0,4859316734015317.0,1558264269979.6829,4553910964654.498,123744635521757.02,4012042245258505.0
13.844365208556836,1.466026306247669e+16,2.724588907070191e+16,3368364731886701.0,4913563352712273.0,1619122803125.0815,4731766758425.28,128577657961113.1,4168769376103571.5
14.221252512727972,1.4821928212232052e+16,2.7665505213493284e+16,3405509167128174.0,4967747372026962.0,1681794952053.7744,4914922832878.749,133554714857299.52,4330169029463884.5
14.605677562982532,1.4983403768017692e+16,2.8089765848909664e+16,3442610040972907.0,5021867846693972.0,1746324870256.9043,5103508231115.06,138679313184208.81,4496355046939492.5
14.997791114242183,1.5144686214733768e+16,2.851878544661888e+16,3479666545786222.0,5075923598585904.0,1812757630141.4124,5297654682099.313,143955032917100.88,4667443642283549.0
15.397746936527026,1.5305771369330978e+16,2.895267991587568e+16,3516677720464289.0,5129913225703920.0,1881139236553.6821,5497496640201.8955,149385528107530.4,4843553436392206.0
15.805701875257567,1.5466654406506332e+16,2.9391566682225444e+16,3553642456338094.5,5183835110790254.0,1951516640442.8838,5703171325147.522,154974527969393.8,5024805492655783.0
16.221815912762718,1.5627329883386578e+16,2.9835564762999372e+16,3590559502844726.0,5237687429600969.0,2023937752665.7087,5914818762378.85,160725837976231.62,5211323352675883.0
16.64625223101797,1.5787791763304054e+16,3.0284794841774776e+16,3627427472990141.5,5291468158874802.0,2098451457934.9797,6132581823840.836,166643340969987.47,5403233072353993.0
17.079177275638333,1.594803343876173e+16,3.073937934195613e+16,3664244848625648.5,5345175084030127.0,2175107628914.8213,6356606269194.47,172730998281424.0,5600663258359109.0
17.5207608211511,1.6108047753673254e+16,3.1199442499622616e+16,3701009985557856.0,5398805806619055.0,2253957140465.6553,6587040787469.528,178992850862478.56,5803745104981994.0
17.97117603757412,1.6267827024958482e+16,3.1665110435774624e+16,3737721118510420.5,5452357751565330.0,2335051884042.8535,6824037039166.8125,185433020430836.84,6012612431386349.0
18.430599558325603,1.6427363063565214e+16,3.2136511228104404e+16,3774376365954093.0,5505828174210094.0,2418444782253.154,7067749698822.774,192055710627072.66,6227401719266857.0
18.899211549492115,1.6586647194982776e+16,3.261377498240312e+16,3810973734819920.0,5559214167187178.0,2504189803573.626,7318336498050.162,198865208184728.0,6448252150926877.0
19.37719578048196,1.6745670279306354e+16,3.3097033903712188e+16,3847511125109296.5,5612512667148038.0,2592341977238.5063,7575958269070.077,205865884113746.44,6675305647788429.0
19.864739696091597,1.6904422730905834e+16,3.3586422367317172e+16,3883986334413033.0,5665720461353828.0,2682957408299.498,7840778988752.1875,213062194897719.72,6908706909349696.0
20.36203449001343,1.7062894537746648e+16,3.408207698967565e+16,3920397062350652.5,5718834194151183.0,2776093292865.888,8112965823181.729,220458683705447.97,7148603452605661.0
20.869275179813698,1.722107528040727e+16,3.4584136699366092e+16,3956740914939731.5,5771850373346029.0,2871807933531.3354,8392689172772.921,228059981617351.94,7395145651949370.0
21.38666068340997,1.7378954150831364e+16,3.509274280813755e+16,3993015408904603.0,5824765376488668.0,2970160754994.5176,8680122717950.41,235870808867318.97,7648486779572661.0
21.91439389707817,1.7536519970850678e+16,3.560803908213675e+16,4029217975932038.0,5877575457081926.0,3071212319881.74,8975443465421.854,243895976100616.97,7908783046386170.0
22.452681775019734,1.769376121050903e+16,3.613017181338199e+16,4065345966881488.5,5930276750722627.0,3175024344779.6475,9278831795066.258,252140385648536.62,8176193643480490.0
23.00173541052013,1.78506660062156e+16,3.6659289891553176e+16,4101396655956010.5,5982865281185944.0,3281659716487.2886,9590471507464.484,260609032820481.78,8450880784151218.0
23.561770118730532,1.8007222178752036e+16,3.7195544876159544e+16,4137367244839558.5,6035336966460658.0,3391182508496.94,9910549872099.613,269307007214267.94,8733009746512422.0
24.133005521105144,1.8163417251154356e+16,3.773909106914609e+16,4173254866805612.0,6087687624742467.0,3503657997713.746,10239257676256.998,278239494045428.2,9022748916724342.0
24.715665631527248,1.831923846648838e+16,3.829008558799603e+16,4209056590801217.5,6139912980391679.0,3619152681425.0063,10576789274655.088,287411775496375.8,9320269832862312.0
25.309978944157795,1.8474672805534244e+16,3.884868843938208e+16,4244769425510306.0,6192008669860411.0,3737734294530.1064,10923342639839.805,296829232086316.3,9625747229456380.0
25.91617852304095,1.862970700439358e+16,3.9415062593420616e+16,4280390323399064.0,6243970247593774.0,3859471827043.086,11279119413377.465,306497344062846.25,9939359082730984.0
26.53450209350177,1.8784327572029612e+16,3.998937405857703e+16,4315916184746008.0,6295793191908678.0,3984435541880.123,11644324957881.38,316421692816224.6,1.0261286656576746e+16
27.165192135371807,1.8938520807749484e+16,4.057179195726919e+16,4351343861658722.5,6347472910853272.0,4112696992944.7476,12019168409911.36,326607962317331.75,1.0591714549287542e+16
27.808495978079243,1.90922728186345e+16,4.116248860221708e+16,4386670162078733.5,6399004748048884.0,4244329043524.43,12403862733784.143,337061940580405.4,1.0930830741097288e+16
28.464665897640828,1.9245569536923452e+16,4.176163957358027e+16,4421891853775422.0,6450383988516202.0,4379405885012.3555,12798624776336.623,347789521151651.94,1.1278826642552148e+16
29.133959215593645,1.939839673735135e+16,4.23694237969272e+16,4457005668329872.0,6501605864486583.0,4518003055969.214,13203675322684.555,358796704624890.5,1.1635897143755852e+16
29.816638399905518,1.9550740054443988e+16,4.298602362207798e+16,4492008305108497.5,6552665561198662.0,4660197461539.756,13619239153019.918,370089600185457.4,1.200224066452681e+16
30.51297116790363,1.970258499976874e+16,4.361162490285909e+16,4526896435226559.0,6603558222679914.0,4806067393239.958,14045545100494.28,381674427183561.4,1.237805920550658e+16
31.223230591261704,1.9853916979137696e+16,4.42464170778113e+16,4561666705500820.0,6654278957512673.0,4955692549130.961,14482826110233.662,393557516738432.75,1.2763558400262256e+16
31.947695203086937,2.000472130976045e+16,4.489059325188635e+16,4596315742390608.0,6704822844583113.0,5109154054396.235,14931319299534.885,405745313374534.3,1.3158947568423868e+16
32.686649107148675,2.0154983237340844e+16,4.554435027917338e+16,4630840155925990.0,6755184938811286.0,5266534482339.109,15391266019292.727,418244376691237.06,1.3564439769902432e+16
33.44038208929165,2.03046879531116e+16,4.620788884668629e+16,4665236543621577.0,6805360276860538.0,5427917875818.447,15862911916709.832,431061383067332.5,1.398025186023263e+16
34.20918973107749,2.0453820610798276e+16,4.6881413559253144e+16,4699501494374378.0,6855343882823286.0,5593389769140.257,16346506999341.826,444203127401834.06,1.4406604547086868e+16
34.993373525699035,2.060236634350504e+16,4.756513302554082e+16,4733631592343321.0,6905130773880360.0,5763037210423.841,16842305700531.887,457676524892519.7,1.484372244800855e+16
35.793240996213015,2.0750310280511612e+16,4.825925994524798e+16,4767623420808643.0,6954715965930740.0,5936948784461.291,17350566946290.217,471488612853730.8,1.529183414941251e+16
36.60910581613728,2.089763756397067e+16,4.896401119750425e+16,4801473566008321.0,7004094479187932.0,6115214636089.714,17871554223674.277,485646552574962.8,1.5751172266902572e+16
37.44128793246003,2.1044333365495124e+16,4.967960793050703e+16,4835178620949041.0,7053261343739302.0,6297926494095.678,18405535650728.152,500157631221794.94,1.6221973506956898e+16
38.29011369110923,2.1190382902621064e+16,5.040627565243054e+16,4868735189189019.0,7102211605063942.0,6485177695671.95,18952784048038.508,515029263780764.75,1.670447873003214e+16
39.15591596493141,2.133577145513554e+16,5.114424432364204e+16,4902139888589227.0,7150940329505025.0,6677063211446.867,19513577011967.906,530268995049797.3,1.7198933015139038e+16
40.03903428423004,2.1480484381253864e+16,5.189374845025522e+16,4935389355030509.0,7199442609691894.0,6873679671106.829,20088196989624.457,545884501675825.9,1.7705585725942424e+16
40.93981496991464,2.162450713363297e+16,5.2655027179058696e+16,4968480246092661.0,7247713569907108.0,7075125389632.89,20676931355629.805,561883594241274.7,1.8224690578439436e+16
41.85861126931294,2.1767825275206228e+16,5.342832439384879e+16,5001409244692880.0,7295748371393620.0,7281500394172.381,21280072490747.11,578274219401068.6,1.875650571027015e+16
42.7957834946992,2.191042449482447e+16,5.421388881320244e+16,5034173062679228.0,7343542217597076.0,7492906451567.139,21897917862431.125,595064462071878.1,1.9301293751715828e+16
