t(s),Total solute volume 1,Total retention volume 1,Total 1 volume 1,Total 2 volume 1,Total 3 volume 1,Total 4 volume 1,Total 5 volume 1,Total 6 volume 1
0.1,878184692305091.0,1002349173156223.1,60489917771387.09,63674563079745.664,0.0,0.0,0.0,0.0
0.202,1290305024330185.8,1537824300654171.8,88877027388221.03,93556184530793.33,136549302103.4875,241603723963.10278,3096342423872.766,61611568955033.81
0.30604000000000003,1581532129184668.8,1966277363436601.2,108936934866429.83,114672196919345.77,338047735800.1222,598161954030.9386,7665964683108.16,152533928093216.4
0.41216080000000005,1810505484675307.2,2345939513545137.0,124708764647556.8,131274374835020.66,586242440672.2966,1037397344522.825,13295216202985.793,264532033399071.9
0.5204040160000001,1999834014033704.8,2698257451801069.5,137749833690782.22,145002024164022.3,871985854084.9321,1543138724467.6082,19776861735267.348,393479593598744.75
0.6308120963200001,2161100497216907.8,3033762154017933.5,148857971217596.47,156694977879380.78,1189632957070.874,2105410183462.7507,26983062220098.707,536830602343413.8
0.7434283382464002,2301210465703071.0,3358499019581271.5,158508834610667.28,166853935557178.16,1535328427282.2385,2717401339852.871,34826546662065.098,692846507281150.4
0.8582969050113283,2424689081086798.5,3676303014893288.5,167014119867055.5,175807003223145.34,1906279655416.576,3374181509819.329,43244133460999.13,860268216090050.2
0.9754628431115548,2534699129081616.5,3989784233492285.5,174591681670100.0,183783505074484.94,2300386686782.7744,4072045217783.5625,52188342800716.5,1038149142960796.6
1.094972099973786,2633556783600189.0,4300815708339218.0,181401059546012.88,190951380001468.88,2716030554915.269,4808137864875.021,61622599429922.164,1225759717341832.8
1.2168715419732616,2723019096344328.0,4610798972058459.0,187563280328955.3,197438026603689.38,3151941971469.785,5580223523286.471,71518256863517.98,1422528146423201.2
1.3412089728127268,2804456169928592.5,4920819367496514.0,193172717554858.84,203342786951848.72,3607114857979.7393,6386532039517.09,81852637967002.69,1628001408196719.0
1.4680331522689813,2878960206488267.5,5231742116697403.0,198304602798618.2,208744853378401.56,4080746752320.145,7225653667692.684,92607684660924.48,1841818368951179.0
1.597393815314361,2947417745430946.5,5544274487869076.0,203020001456175.84,213708506222341.25,4572196239703.955,8096463811349.041,103768993478436.02,2063690581230127.8
1.729341691620648,3010559307856576.0,5859007546621236.0,207369232283623.7,218286713398635.1,5080951655962.983,8998067700228.78,115325106598305.39,2293388167127909.0
1.863928525453061,3068994575082108.5,6176445083434181.0,211394290516259.5,222523681088544.97,5606607528327.079,9929758750649.297,127266978238379.05,2530729192229910.5
2.001207095962122,3123237970236661.0,6497024195201993.0,215130609945067.1,226456708585100.47,6148846488480.333,10890986603412.7,139587565070561.03,2775571508272709.5
2.1412312378813647,3173727677632436.0,6821130268110446.0,218608372983030.97,230117567331188.16,6707425154387.469,11881332180398.996,152281506583022.0,3027806386245977.0
2.284055862638992,3220840056597358.5,7149108105246403.0,221853503499059.34,233533546023738.7,7282162952803.629,12900487941790.133,165344872090665.38,3287353476140983.5
2.4297369798917723,3264900748970299.0,7481270338153141.0,224888431909291.16,236728255985209.44,7872933161287.146,13948242068645.621,178774958050731.22,3554156768007666.0
2.578331719489608,3306193365328217.5,7817903886070210.0,227732693489919.72,239722260976111.28,8479655652513.213,15024465656278.379,192570123963299.7,3828181321003874.0
2.7298983538794,3344966366685018.5,8159274986594788.0,230403402392972.97,242533576166549.9,9102290962735.824,16129102249782.16,206729658287802.38,4109410589849924.0
2.884496320956988,3381438580138532.0,8505633164224098.0,232915631567567.44,245178068059405.16,9740835403172.434,17262159224468.365,221253668003263.94,4397844221827688.0
3.0421862473761276,3415803665845519.5,8857214397859499.0,235282720447979.75,247669778377417.72,10395317001992.477,18423700635822.125,236142987001596.6,4693496228549151.0
3.2030299723236504,3448233768782628.0,9214243676322654.0,237516526489250.03,250021188841525.38,11065792114446.73,19613841251751.11,251399099633098.66,4996393459209963.0
3.3670905717701234,3478882529535489.5,9576937080808684.0,239627632552246.97,252243439474246.6,11752342575314.965,20832741544692.688,267024076553644.7,5306574318573048.0
3.5344323832055258,3507887585889310.5,9945503497742048.0,241625519214805.75,254346509982569.7,12455073295162.947,22080603469443.67,283020520642026.5,5624087685248733.0
3.7051210308696363,3535372666079606.5,1.0320146040043788e+16,243518708956171.5,256339371533355.66,13174110222520.19,23357666889039.977,299391521223170.56,5948991995139933.0
3.879223451487029,3561449351753085.0,1.0701063236289056e+16,245314887590856.06,258230114580391.75,13909598609839.871,24664206538864.984,316140615189901.2,6281354462026086.0
4.0568079205167695,3586218571648561.5,1.1088450033579208e+16,247021007154327.9,260026057166753.62,14661701533259.926,26000529440662.824,333271753891404.4,6621250412744233.0
4.237944078927105,3609771874132326.0,1.1482498649772338e+16,248643373556054.94,261733837192573.97,15430598625659.861,27366972694889.426,350789274871294.56,6968762718699541.0
4.422702960505647,3632192516890618.0,1.188339930304424e+16,250187721638210.6,263359491425395.5,16216484989959.512,28763901593010.633,368697877707039.06,7323981308799995.0
4.61115701971576,3653556404500118.5,1.2291340840914422e+16,251659279756125.0,264908523480632.03,17019570265512.357,30191708001803.062,387002603336384.8,7687002751573859.0
4.803380160110075,3673932898698963.5,1.2706511286388178e+16,253062825590263.34,266385962571907.53,17840077825166.402,31650808980060.3,405708816363376.06,8057929896358426.0
4.9994477633122765,3693385521551846.0,1.3129098315390392e+16,254402734580685.0,267796414495468.78,18678244084361.418,33141645594819.188,424822189922604.44,8436871565160621.0
5.199436718578522,3711972568042658.0,1.3559289676956468e+16,255683022122813.72,269144106047463.0,19534317906704.78,34664681909660.773,444348692750017.8,8823942288177191.0
5.403425452950093,3729747641712394.0,1.399727356550855e+16,256907380462513.88,270432923861444.66,20408560092973.82,36220404122067.81,464294578165360.9,9219262077091788.0
5.611493962009095,3746760124621082.5,1.444323895285572e+16,258079211067366.34,271666448483921.88,21301242942542.258,37809319830451.36,484666374717867.75,9622956231192470.0
5.823723841249277,3763055591024801.5,1.4897375886206736e+16,259201653121004.78,272847984368852.16,22212649877920.516,39431957414449.43,505470878285132.06,1.0035155172114548e+16
6.040198318074262,3778676172625644.5,1.535987575740061e+16,260277608681761.34,273980586360823.8,23143075124496.652,41088865514575.62,526715145446798.94,1.0455994303646516e+16
6.261002284435747,3793660881999999.5,1.5830931547686078e+16,261309764960615.4,275067083145888.28,24092823438728.61,42780612599356.26,548406487981138.2,1.0885613893560356e+16
6.486222330124463,3808045899782579.0,1.6310738051669976e+16,262300614102610.34,276110098074415.5,25062209879011.16,44507786609812.01,570552468354596.1,1.1324158974866944e+16
6.715946776726952,3821864830334884.0,1.6799492083475762e+16,263252470797456.97,277112067698857.75,26051559614255.25,46270994672589.52,593160896092930.0,1.1771779264264756e+16
6.950265712261491,3835148929923034.5,1.7297392667676986e+16,264167487996569.0,278075258318245.8,27061207765903.125,48070862874259.26,616239824938166.1,1.2228629095860796e+16
7.18927102650672,3847927310843899.5,1.7804641217178214e+16,265047670973400.94,279001780778765.75,28091499279685.74,49908036090329.19,639797550708695.4,1.2694867368503438e+16
7.433056447036854,3860227124447904.0,1.8321441699891204e+16,265894889930172.75,279893603744202.47,29142788823917.445,51783177863393.74,663842609791180.8,1.3170657505290364e+16
7.681717575977592,3872073725595123.0,1.884800079578404e+16,266710891325712.16,280752565620163.44,30215440711545.348,53696970325584.55,688383778202340.8,1.365616742400358e+16
7.935351927497144,3883490820733738.0,1.938452804565601e+16,267497308075189.62,281580385290801.3,31309828843526.3,55650114161122.27,713430071166900.0,1.4151569517384718e+16
8.194058966047088,3894500601496104.5,1.993123599279876e+16,268255668752303.06,282378671805475.44,32426336671411.355,57643328605315.76,738990743164963.4,1.4657040642303148e+16
8.45794014536803,3905123865457800.0,2.0488340318549676e+16,268987405907237.1,283148933134628.7,33565357177280.617,59677351476822.83,765075288408085.4,1.5172762116987812e+16
8.72709894827539,3915380125492358.0,2.105605997260451e+16,269693863599082.53,283892584098770.8,34727292869398.83,61752939240389.88,791693441708474.2,1.5698919725596036e+16
9.0016409272409,3925287708972200.0,2.163461729884435e+16,270376304228867.38,284610953561250.44,35912555792155.34,63870867097639.84,818855179710275.0,1.6235703729481972e+16
9.281673745785717,3934863847910561.5,2.2224238157334852e+16,271035914748579.72,285305290964175.06,37121567549024.59,66031929103778.15,846570722455762.9,1.6783308884602966e+16
9.567307220701432,3944124761004620.0,2.2825152043072404e+16,271673812312359.72,285976772277111.06,38354759337426.88,68236938308352.55,874850535262629.9,1.7341934464569932e+16
9.85865336511546,3953085728424538.0,2.3437592201980692e+16,272291049428008.94,286626505419820.8,39612571994498.8,70486726918430.67,903705330891541.2,1.7911784288903868e+16
10.155826432417769,3961761160092815.5,2.4061795744601092e+16,272888618660121.56,287255535212993.4,40895456052893.64,72782146482760.31,933146071985690.8,1.8493066756113784e+16
10.458942961066125,3970164658111632.0,2.4698003757867172e+16,273467456930113.28,287864847904662.5,42203871805827.98,75124068095655.55,963183973766360.2,1.9085994881252956e+16
10.768121820287448,3978309073920253.0,2.534646141530909e+16,274028449453264.8,288455375314527.75,43538289380677.47,77513382619503.22,993830506970435.6,1.9690786337650452e+16
11.083484256693197,3986206560698892.5,2.6007418085992784e+16,274572433348331.28,289027998633595.56,44899188820495.67,79951000924921.83,1025097401017662.5,2.0307663502548844e+16
11.405153941827061,3993868621477933.0,2.6681127442467e+16,275100200951331.78,289583551912439.06,46287060172900.48,82437854147728.88,1056996647396862.4,2.0936853506407796e+16
11.733257020663602,4001306153361013.5,2.736784756796037e+16,275612502861672.56,290122825267687.44,47702403585823.19,84974893961968.1,1089540503261794.4,2.157858828566042e+16
12.067922161076874,4008529488226581.5,2.806784106304431e+16,276110050745689.34,290646567833161.94,49145729409670.0,87563092868355.58,1122741495228506.8,2.2233104638732388e+16
12.409280604298411,4015548430233513.0,2.8781375151956204e+16,276593519920054.97,291155490479308.56,50617558305489.336,90203444497582.44,1156612423367109.0,2.290064428515315e+16
12.75746621638438,4022372290422197.5,2.9508721788755948e+16,277063551735132.97,291650268322019.3,52118421358775.266,92896963927975.06,1191166365381840.8,2.358145392760799e+16
13.112615540712067,4029009918672700.5,3.025015776347332e+16,277520755776270.47,292131543039816.3,53648860198574.52,95644688017104.25,1226416680974279.8,2.427578531679455e+16
13.474867851526309,4035469733254428.0,3.1005964808386e+16,277965711899200.12,292599925016418.7,55209427121591.21,98447675746969.81,1262377016385093.2,2.498389531896232e+16
13.844365208556836,4041759748178568.0,3.177642970455636e+16,278398972114088.84,293055995323977.4,56800685221013.695,101307008582456.16,1299061309110631.5,2.570604598602568e+16
14.221252512727972,4047887598543169.5,3.256184438874107e+16,278821062331329.84,293500307560780.7,58423208519808.63,104223790842795.61,1336483792791197.5,2.6442504628152028e+16
14.605677562982532,4053860564042603.0,3.3362506060779544e+16,279232483980883.72,293933389555850.94,60077582108248.59,107199150085823.47,1374659002268358.0,2.719354388873784e+16
14.997791114242183,4059685590796080.5,3.417871729155383e+16,279633715515843.84,294355744951663.9,61764402285459.586,110234237504843.02,1413601778809265.5,2.7959441821690724e+16
15.397746936527026,4065369311635399.5,3.5010786131608136e+16,280025213809868.28,294767854675161.3,63484276704787.164,113330228337958.11,1453327275496270.8,2.8740481970948664e+16
15.805701875257567,4070918064978859.0,3.585902622050437e+16,280407415457225.7,295170178306229.75,65237824522796.43,116488322289761.88,1493850962780728.5,2.9536953452168812e+16
16.221815912762718,4076337912406251.5,3.672375689698736e+16,280780737983372.94,295563155352022.6,67025676551732.914,119709743965299.47,1535188634200106.5,3.0349151036528636e+16
16.64625223101797,4081634655039514.5,3.760530331002253e+16,281145580973266.6,295947206434664.1,68848475415281.484,122995743316248.08,1577356412257910.0,3.1177375236585628e+16
17.079177275638333,4086813848824032.0,3.850399653076661e+16,281502327123944.8,296322734399257.75,70706875707467.2,126347596099283.58,1620370754466336.0,3.2021932394146344e+16
17.5207608211511,4091880818796962.0,3.942017366552653e+16,281851343227341.44,296690125348434.25,72601544154557.81,129766604346626.17,1664248459551739.0,3.2883134770100852e+16
17.97117603757412,4096840672421343.5,4.03541779697533e+16,282192981088748.8,297049749609172.75,74533159779818.3,133254096848773.72,1709006673823364.8,3.3761300636182068e+16
18.430599558325603,4101698312057997.0,4.130635896311858e+16,282527578385884.6,297401962637099.94,76502414070997.5,136811429649456.97,1754662897706018.2,3.4656754368611228e+16
18.899211549492115,4106458446640636.5,4.227707254571388e+16,282855459473088.9,297747105863016.9,78510011150404.39,140439986552862.92,1801234992437574.5,3.5569826543596244e+16
19.37719578048196,4111125602614324.5,4.32666811154081e+16,283176936134765.25,298085507486014.1,80556667947455.34,144141179643192.06,1848741186932456.5,3.650085403464984e+16
19.864739696091597,4115704134192134.5,4.4275553686401064e+16,283492308291870.2,298417483217152.4,82643114373570.25,147916449816627.53,1897200084812448.5,3.745018011169728e+16
20.36203449001343,4120198232980346.0,4.53040660089991e+16,283801864664900.9,298743336977357.44,84770093499291.25,151767267325815.06,1946630671606342.5,3.841815454194503e+16
20.869275179813698,4124611937018301.0,4.635260069064307e+16,284105883396565.3,299063361552871.1,86938361733511.23,155695132336954.75,1997052322120127.5,3.940513369248479e+16
21.38666068340997,4128949139275182.5,4.7421547318212216e+16,284404632637047.8,299377839211329.2,89148689004690.69,159701575499626.3,2048484807979693.5,4.0411480634604744e+16
21.91439389707817,4133213595642785.5,4.851130258162559e+16,284698371094557.4,299687042281293.56,91401858943942.9,163788158529488.9,2100948305347967.5,4.143756524978557e+16
22.452681775019734,4137408932459940.0,4.962227039875981e+16,284987348553608.5,299991233697824.9,93698669069871.11,167956474803979.44,2154463402818833.5,4.248376433735583e+16
23.00173541052013,4141538653601506.0,5.0754862041700584e+16,285271806363322.2,300290667516484.25,96039930975040.97,172208149971181.53,2209051109490086.0,4.355046172378298e+16
23.561770118730532,4145606147162423.0,5.190949626434024e+16,285551977897826.8,300585589397976.3,98426470513957.69,176544842572017.44,2264732863217993.5,4.463804837357811e+16
24.133005521105144,4149614691764644.5,5.308659943133455e+16,285828088990678.94,300876237065443.44,100859127992436.69,180968244675941.62,2321530539056108.0,4.5746922501789256e+16
24.715665631527248,4153567462512943.5,5.428660564842601e+16,286100358345108.44,301162840736306.6,103338758358233.72,185480082530312.53,2379466457881020.0,4.687748968806206e+16
25.309978944157795,4157467536623273.5,5.550995689414283e+16,286368997921698.5,301445623530353.4,105866231392809.75,190082117223639.7,2438563395208126.5,4.803016299224292e+16
25.91617852304095,4161317898745895.0,5.675710315287467e+16,286634213305053.44,301724801855715.75,108442431904099.72,194776145362900.34,2498844590200263.5,4.920536307150071e+16
26.53450209350177,4165121446003611.5,5.802850254933019e+16,286896204050826.0,302000585774161.56,111068259920148.19,199563999765138.28,2560333754872490.0,5.040351829894378e+16
27.165192135371807,4168880992764017.5,5.932462148437406e+16,287155164014438.7,302273179347132.1,113744630883473.95,204447550163555.1,2623055083496277.0,5.162506488370506e+16
27.808495978079243,4172599275163297.5,6.064593477224205e+16,287411281662688.0,302542780963735.25,116472475846022.39,209428703928321.03,2687033262206423.5,5.287044699247153e+16
28.464665897640828,4176278955397737.0,6.199292577912892e+16,287664740369341.8,302809583651921.9,119252741664550.5,214509406802334.3,2752293478814311.0,5.41401168724287e+16
29.133959215593645,4179922625798323.0,6.336608656313958e+16,287915718695798.06,303073775373910.44,122086391196301.64,219691643652165.38,2818861432831094.5,5.543453497559207e+16
29.816638399905518,4183532812701872.5,6.476591801559876e+16,288164390657739.75,303335539306882.75,124974403494800.31,224977439234434.0,2886763345704467.0,5.675417008449851e+16
30.51297116790363,4187111980132329.0,6.619293000369977e+16,288410925978698.3,303595054109899.7,127917774005609.31,230368858977869.28,2956025971273046.5,5.809949943922218e+16
31.223230591261704,4190662533304005.0,6.764764151448483e+16,288655490331358.8,303852494177909.4,130917514761879.39,235868009781306.88,3026676606442143.5,5.947100886568622e+16
31.947695203086937,4194186821958039.0,6.913058080013388e+16,288898245567379.9,304108029883663.44,133974654579504.52,241477040827899.66,3098743102085060.5,6.08691929052323e+16
32.686649107148675,4197687143542757.0,7.064228552454475e+16,289139349936458.8,304361827808318.2,137090239251711.62,247198144415796.66,3172253874174195.0,6.22945549454155e+16
33.44038208929165,4201165746247520.5,7.218330291118109e+16,289378958295302.7,304614050961407.8,140265331742882.55,253033556805586.1,3247237915146014.5,6.374760735198231e+16
34.20918973107749,4204624831899411.5,7.375418989216214e+16,289617222307157.8,304864858990877.4,143501012381415.34,258985559084770.5,3323724805504530.5,6.5228871601994056e+16
34.993373525699035,4208066558731140.5,7.535551325856771e+16,289854290632458.8,305114408383771.9,146798379051414.1,265056478049573.8,3401744725667527.5,6.673887841805175e+16
35.793240996213015,4211493044028196.0,7.698784981192368e+16,290090309111174.3,305362852658174.9,150158547382997.1,271248687104373.66,3481328468060441.0,6.8278167903578296e+16
36.60910581613728,4214906366662718.0,7.8651786516837e+16,290325420937331.75,305610342546931.56,153582650940993.25,277564607179061.84,3562507449462313.5,6.984728967910759e+16
37.44128793246003,4218308569521041.5,8.034792065474064e+16,290559766826239.0,305857026173663.56,157071841411798.2,284006707664635.06,3645313723608821.5,7.144680301953438e+16
38.29011369110923,4221701661831448.5,8.2076859978708e+16,290793485174812.44,306103049221549.0,160627288788151.53,290577507367340.44,3729779994057248.5,7.30772769922675e+16
39.15591596493141,4225087621398288.0,8.383922286929333e+16,291026712215468.6,306348555095305.5,164250181551573.47,297279575481681.4,3815939627318416.5,7.473929059623262e+16
40.03903428423004,4228468396748105.0,8.563563849134947e+16,291259582163952.1,306593685076809.9,167941726852210.8,304115532582620.4,3903826666260803.5,7.643343290166486e+16
40.93981496991464,4231845909193301.5,8.746674695177197e+16,291492227361477.06,306838578474716.5,171703150685817.62,311088051637303.3,3993475843791877.0,7.816030319062763e+16
41.85861126931294,4235222054818275.0,8.933319945811749e+16,291724778411538.5,307083372768475.7,175535698067580.78,318199859036640.5,4084922596822302.5,7.992051109819259e+16
42.7957834946992,4238598706392829.0,9.123565847802958e+16,291957364311708.5,307328203747065.7,179440633202512.16,325453735647081.2,4178203080518215.5,8.171467675421011e+16
43.751699164593184,4241977715217310.5,9.317479789942088e+16,292190112580726.9,307573205642775.5,183419239652092.06,332852517882940.94,4273354182847226.0,8.354343092559795e+16
