t(s),Total solute volume 1,Total retention volume 1,Total 1 volume 1,Total 2 volume 1,Total 3 volume 1,Total 4 volume 1,Total 5 volume 1,Total 6 volume 1
0.1,1353752009823941.5,1362517551390804.0,8765541566860.562,0.0,0.0,0.0,0.0,0.0
0.21000000000000002,2080089404424778.2,2093558009758918.5,13468605334142.918,0.0,0.0,0.0,0.0,0.0
0.33100000000000007,2664952014607683.5,2682207618448252.5,17255603840570.328,0.0,0.0,0.0,0.0,0.0
0.46410000000000007,3187931952865294.0,3208573862012805.5,20641909147511.48,0.0,0.0,0.0,0.0,0.0
0.6105100000000001,3678761583174627.0,3702581623240757.5,23820040066135.445,0.0,0.0,0.0,0.0,0.0
0.7715610000000002,4152397063487289.5,4179283901790394.5,26886838303102.035,0.0,0.0,0.0,0.0,0.0
0.9487171000000002,4617728712964536.0,4647628581914548.0,29899868949997.51,0.0,0.0,0.0,0.0,0.0
1.1435888100000002,5080666283311969.0,5113563681118465.0,32897397806501.984,0.0,0.0,0.0,0.0,0.0
1.3579476910000003,5545478096007607.0,5581385158364198.0,35907062356574.34,0.0,0.0,0.0,0.0,0.0
1.5937424601000005,6015455803530840.0,6054405979653972.0,38950176123126.164,0.0,0.0,0.0,0.0,0.0
1.8531167061100007,6493277791225384.0,6535321872932744.0,42044081707353.24,0.0,0.0,0.0,0.0,0.0
2.138428376721001,6981222958936808.0,7026426493968159.0,45203535031355.234,0.0,0.0,0.0,0.0,0.0
2.452271214393101,7481304041067249.0,7529745609656489.0,48441568589241.86,0.0,0.0,0.0,0.0,0.0
2.7974983358324113,7995354853960064.0,8047124910336315.0,51770056376253.67,0.0,0.0,0.0,0.0,0.0
3.1772481694156527,8525089793891944.0,8580289893031696.0,55200099139751.8,0.0,0.0,0.0,0.0,0.0
3.594972986357218,9072145914474882.0,9130888211306288.0,58742296831403.85,0.0,0.0,0.0,0.0,0.0
4.05447028499294,9638113685370720.0,9700520633141286.0,62406947770570.24,0.0,0.0,0.0,0.0,0.0
4.5599173134922335,1.0224560183297398e+16,1.0290764382103992e+16,66204198806584.96,0.0,0.0,0.0,0.0,0.0
5.115909044841457,1.0833047101404284e+16,1.0903191263334156e+16,70144161929851.31,0.0,0.0,0.0,0.0,0.0
5.727499949325603,1.1465145140877744e+16,1.1539382148335536e+16,74237007457788.31,0.0,0.0,0.0,0.0,0.0
6.400249944258164,1.2122445837200396e+16,1.2200938877810532e+16,78493040610101.77,0.0,0.0,0.0,0.0,0.0
7.140274938683981,1.2806571546300926e+16,1.2889494312470242e+16,82922766169302.52,0.0,0.0,0.0,0.0,0.0
7.95430243255238,1.3519184101260034e+16,1.3606721045793074e+16,87536944533045.78,0.0,0.0,0.0,0.0,0.0
8.84973267580762,1.4261992506388802e+16,1.4354339147922274e+16,92346641533436.31,0.0,0.0,0.0,0.0,0.0
9.834705943388382,1.503675993714756e+16,1.5134123210909182e+16,97363273761633.12,0.0,0.0,0.0,0.0,0.0
10.918176537727222,1.5845310245944396e+16,1.594790889663738e+16,102598650693013.77,0.0,0.0,0.0,0.0,0.0
12.109994191499945,1.6689534125493278e+16,1.6797599140088338e+16,108065014595031.27,0.0,0.0,0.0,0.0,0.0
13.42099361064994,1.7571395046753024e+16,1.7685170125728474e+16,113775078975472.86,0.0,0.0,0.0,0.0,0.0
14.863092971714936,1.8492935063325988e+16,1.86126771294921e+16,119742066166048.06,0.0,0.0,0.0,0.0,0.0
16.44940226888643,1.9456280555762404e+16,1.958226030027932e+16,125979744516854.44,0.0,0.0,0.0,0.0,0.0
18.194342495775075,2.046364797557188e+16,2.059615044116082e+16,132502465588957.94,0.0,0.0,0.0,0.0,0.0
20.113776745352585,2.151734963858487e+16,2.165667484025141e+16,139325201666498.95,0.0,0.0,0.0,0.0,0.0
22.225154419887843,2.2619799609676892e+16,2.2766263193537228e+16,146463583860378.1,0.0,0.0,0.0,0.0,0.0
24.54766986187663,2.3773519715098344e+16,2.392745365613658e+16,153933941038152.7,0.0,0.0,0.0,0.0,0.0
27.102436848064297,2.4981145714120216e+16,2.5142899053905616e+16,161753339785435.1,0.0,0.0,0.0,0.0,0.0
29.91268053287073,2.624543365756289e+16,2.641537328313999e+16,169939625577166.97,0.0,0.0,0.0,0.0,0.0
33.003948586157804,2.7569266455165324e+16,2.7747777920466016e+16,178511465300675.34,0.0,0.0,0.0,0.0,0.0
36.40434344477359,2.8955660661872972e+16,2.914314905306828e+16,187488391195288.06,0.0,0.0,0.0,0.0,0.0
40.14477778925095,3.0407773463267268e+16,3.060466430934688e+16,196890846079589.88,0.0,0.0,0.0,0.0,0.0
44.25925556817605,3.192890976658123e+16,3.213564999584054e+16,206740229259273.4,0.0,0.0,0.0,0.0,0.0
48.78518112499366,3.3522529135310016e+16,3.3739588076727476e+16,217058941417447.38,0.0,0.0,0.0,0.0,0.0
53.763699237493036,3.5192251955773816e+16,3.5420122380298744e+16,227870424525021.44,0.0,0.0,0.0,0.0,0.0
59.240069161242346,3.694186356735577e+16,3.718106275591304e+16,239199188557148.4,0.0,0.0,0.0,0.0,0.0
65.26407607736658,3.877531397674012e+16,3.902638478634622e+16,251070809606057.8,0.0,0.0,0.0,0.0,0.0
71.89048368510325,4.069670909128587e+16,4.096022096435625e+16,263511873070312.7,0.0,0.0,0.0,0.0,0.0
79.17953205361358,4.271028714422542e+16,4.2986836965178504e+16,276549820953048.62,0.0,0.0,0.0,0.0,0.0
87.19748525897495,4.482037135976784e+16,4.511058400507733e+16,290212645309596.7,0.0,0.0,0.0,0.0,0.0
96.01723378487245,4.7031287427004696e+16,4.733581578083895e+16,304528353834269.5,0.0,0.0,0.0,0.0,0.0
105.7189571633597,4.9347232804329976e+16,4.9666756927889496e+16,319524123559581.7,0.0,0.0,0.0,0.0,0.0
116.39085287969569,5.1772085184391304e+16,5.210731024502936e+16,335225060637995.1,0.0,0.0,0.0,0.0,0.0
128.12993816766527,5.4309140411026536e+16,5.466079291437777e+16,351652503350998.0,0.0,0.0,0.0,0.0,0.0
141.04293198443182,5.696077611462033e+16,5.7329597958796776e+16,368821844176558.56,0.0,0.0,0.0,0.0,0.0
155.247225182875,5.972804600170578e+16,6.0114785904583496e+16,386739902877786.2,0.0,0.0,0.0,0.0,0.0
170.87194770116253,6.261022004188066e+16,6.3015621991192744e+16,405401949312114.94,0.0,0.0,0.0,0.0,0.0
188.0591424712788,6.560429613062078e+16,6.602908467220074e+16,424788541580061.4,0.0,0.0,0.0,0.0,0.0
206.9650567184067,6.870451739979712e+16,6.914937980056849e+16,444862400771344.25,0.0,0.0,0.0,0.0,0.0
227.76156239024738,7.1901934745322776e+16,7.236750032383667e+16,465565578514034.1,0.0,0.0,0.0,0.0,0.0
250.63771862927214,7.518405560481128e+16,7.567087278781787e+16,486817183006791.94,0.0,0.0,0.0,0.0,0.0
275.8014904921994,7.853461769091178e+16,7.904312960505595e+16,508511914144152.5,0.0,0.0,0.0,0.0,0.0
303.4816395414193,8.193352115597349e+16,8.246404078045218e+16,530519624478749.94,0.0,0.0,0.0,0.0,0.0
333.92980349556126,8.535694575535346e+16,8.590963183338405e+16,552686078030845.0,0.0,0.0,0.0,0.0,0.0
367.4227838451174,8.87776720147346e+16,8.93525070447241e+16,574835029989477.1,0.0,0.0,0.0,0.0,0.0
404.26506222962917,9.216561755685022e+16,9.276238925636955e+16,596771699519238.9,0.0,0.0,0.0,0.0,0.0
444.7915684525921,9.54885911243091e+16,9.610687877638888e+16,618287652079804.8,0.0,0.0,0.0,0.0,0.0
489.3707252978514,9.871325630939438e+16,9.935242334890664e+16,639167039512333.8,0.0,0.0,0.0,0.0,0.0
538.4077978276366,1.0180628330132523e+17,1.0246547735876691e+17,659194057441672.6,0.0,0.0,0.0,0.0,0.0
592.3485776104003,1.0473564938983461e+17,1.0541381075560994e+17,678161365775236.5,0.0,0.0,0.0,0.0,0.0
651.6834353714404,1.0747202803218771e+17,1.0816790711474597e+17,695879082558142.1,0.0,0.0,0.0,0.0,0.0
716.9517789085845,1.0999018407976163e+17,1.1070236789740293e+17,712183817641359.5,0.0,0.0,0.0,0.0,0.0
788.7469567994431,1.122702728803156e+17,1.1299721996422576e+17,726947083910149.8,0.0,0.0,0.0,0.0,0.0
867.7216524793874,1.1429892809421861e+17,1.1503901043466429e+17,740082340446000.6,0.0,0.0,0.0,0.0,0.0
954.5938177273263,1.160700220716553e+17,1.1682157198723685e+17,751549915581583.2,0.0,0.0,0.0,0.0,0.0
1050.153199500059,1.1758499750990589e+17,1.1834635666400728e+17,761359154101435.6,0.0,0.0,0.0,0.0,0.0
1155.2685194500648,1.1885270168019485e+17,1.1962226902391752e+17,769567343722599.5,0.0,0.0,0.0,0.0,0.0
1270.8953713950714,1.1988870337590869e+17,1.2066497866826274e+17,776275292353957.2,0.0,0.0,0.0,0.0,0.0
1398.0849085345785,1.2071413260806741e+17,1.2149575242336248e+17,781619815295157.4,0.0,0.0,0.0,0.0,0.0
1537.9933993880366,1.2135414500853038e+17,1.2213990880107123e+17,785763792540716.2,0.0,0.0,0.0,0.0,0.0
1691.8927393268402,1.2183616557138725e+17,1.2262505036876379e+17,788884797376465.0,0.0,0.0,0.0,0.0,0.0
1861.1820132595244,1.221880984388482e+17,1.22979261943987e+17,791163505138981.5,0.0,0.0,0.0,0.0,0.0
2047.400214585477,1.2243669258369858e+17,1.2322946569515786e+17,792773111459245.5,0.0,0.0,0.0,0.0,0.0
2252.2402360440246,1.2260622488726749e+17,1.2340009569240131e+17,793870805133884.6,0.0,0.0,0.0,0.0,0.0
2477.564259648427,1.2271760696489938e+17,1.2351219895056246e+17,794591985663092.4,0.0,0.0,0.0,0.0,0.0
2725.42068561327,1.2278795157205019e+17,1.2358299902739626e+17,795047455346018.2,0.0,0.0,0.0,0.0,0.0
2998.062754174597,1.2283056384392782e+17,1.2362588720667358e+17,795323362745818.9,0.0,0.0,0.0,0.0,0.0
3297.9690295920573,1.2283056384392782e+17,1.2362588720667358e+17,795323362745818.9,0.0,0.0,0.0,0.0,0.0
3627.8659325512635,1.2283056384392782e+17,1.2362588720667358e+17,795323362745818.9,0.0,0.0,0.0,0.0,0.0
3990.75252580639,1.2283056384392782e+17,1.2362588720667358e+17,795323362745818.9,0.0,0.0,0.0,0.0,0.0
4389.927778387029,1.2283056384392782e+17,1.2362588720667358e+17,795323362745818.9,0.0,0.0,0.0,0.0,0.0
4829.020556225732,1.2283056384392782e+17,1.2362588720667358e+17,795323362745818.9,0.0,0.0,0.0,0.0,0.0
5312.022611848306,1.2283056384392782e+17,1.2362588720667358e+17,795323362745818.9,0.0,0.0,0.0,0.0,0.0
5843.324873033137,1.2283056384392782e+17,1.2362588720667358e+17,795323362745818.9,0.0,0.0,0.0,0.0,0.0
6427.757360336452,1.2283056384392782e+17,1.2362588720667358e+17,795323362745818.9,0.0,0.0,0.0,0.0,0.0
7070.6330963700975,1.2283056384392782e+17,1.2362588720667358e+17,795323362745818.9,0.0,0.0,0.0,0.0,0.0
7777.796406007108,1.2283056384392782e+17,1.2362588720667358e+17,795323362745818.9,0.0,0.0,0.0,0.0,0.0
8555.67604660782,1.2283056384392782e+17,1.2362588720667358e+17,795323362745818.9,0.0,0.0,0.0,0.0,0.0
9411.343651268602,1.2283056384392782e+17,1.2362588720667358e+17,795323362745818.9,0.0,0.0,0.0,0.0,0.0
10352.578016395462,1.2283056384392782e+17,1.2362588720667358e+17,795323362745818.9,0.0,0.0,0.0,0.0,0.0
11387.93581803501,1.2283056384392782e+17,1.2362588720667358e+17,795323362745818.9,0.0,0.0,0.0,0.0,0.0
12526.829399838512,1.2283056384392782e+17,1.2362588720667358e+17,795323362745818.9,0.0,0.0,0.0,0.0,0.0
13779.612339822364,1.2283056384392782e+17,1.2362588720667358e+17,795323362745818.9,0.0,0.0,0.0,0.0,0.0
15157.673573804603,1.2283056384392782e+17,1.2362588720667358e+17,795323362745818.9,0.0,0.0,0.0,0.0,0.0
16673.540931185064,1.2283056384392782e+17,1.2362588720667358e+17,795323362745818.9,0.0,0.0,0.0,0.0,0.0
18340.99502430357,1.2283056384392782e+17,1.2362588720667358e+17,795323362745818.9,0.0,0.0,0.0,0.0,0.0
20175.19452673393,1.2283056384392782e+17,1.2362588720667358e+17,795323362745818.9,0.0,0.0,0.0,0.0,0.0
22192.813979407325,1.2283056384392782e+17,1.2362588720667358e+17,795323362745818.9,0.0,0.0,0.0,0.0,0.0
24412.19537734806,1.2283056384392782e+17,1.2362588720667358e+17,795323362745818.9,0.0,0.0,0.0,0.0,0.0
26853.51491508287,1.2283056384392782e+17,1.2362588720667358e+17,795323362745818.9,0.0,0.0,0.0,0.0,0.0
29538.966406591157,1.2283056384392782e+17,1.2362588720667358e+17,795323362745818.9,0.0,0.0,0.0,0.0,0.0
32492.963047250276,1.2283056384392782e+17,1.2362588720667358e+17,795323362745818.9,0.0,0.0,0.0,0.0,0.0
35742.359351975305,1.2283056384392782e+17,1.2362588720667358e+17,795323362745818.9,0.0,0.0,0.0,0.0,0.0
39316.695287172835,1.2283056384392782e+17,1.2362588720667358e+17,795323362745818.9,0.0,0.0,0.0,0.0,0.0
43248.464815890125,1.2283056384392782e+17,1.2362588720667358e+17,795323362745818.9,0.0,0.0,0.0,0.0,0.0
47573.41129747914,1.2283056384392782e+17,1.2362588720667358e+17,795323362745818.9,0.0,0.0,0.0,0.0,0.0
52330.85242722706,1.2283056384392782e+17,1.2362588720667358e+17,795323362745818.9,0.0,0.0,0.0,0.0,0.0
57564.03766994977,1.2283056384392782e+17,1.2362588720667358e+17,795323362745818.9,0.0,0.0,0.0,0.0,0.0
63320.54143694475,1.2283056384392782e+17,1.2362588720667358e+17,795323362745818.9,0.0,0.0,0.0,0.0,0.0
69652.69558063924,1.2283056384392782e+17,1.2362588720667358e+17,795323362745818.9,0.0,0.0,0.0,0.0,0.0
76618.06513870317,1.2283056384392782e+17,1.2362588720667358e+17,795323362745818.9,0.0,0.0,0.0,0.0,0.0
84279.97165257348,1.2283056384392782e+17,1.2362588720667358e+17,795323362745818.9,0.0,0.0,0.0,0.0,0.0
92708.06881783083,1.2283056384392782e+17,1.2362588720667358e+17,795323362745818.9,0.0,0.0,0.0,0.0,0.0
101978.97569961392,1.2283056384392782e+17,1.2362588720667358e+17,795323362745818.9,0.0,0.0,0.0,0.0,0.0
112176.97326957532,1.2283056384392782e+17,1.2362588720667358e+17,795323362745818.9,0.0,0.0,0.0,0.0,0.0
123394.77059653286,1.2283056384392782e+17,1.2362588720667358e+17,795323362745818.9,0.0,0.0,0.0,0.0,0.0
135734.34765618618,1.2283056384392782e+17,1.2362588720667358e+17,795323362745818.9,0.0,0.0,0.0,0.0,0.0
149307.8824218048,1.2283056384392782e+17,1.2362588720667358e+17,795323362745818.9,0.0,0.0,0.0,0.0,0.0
164238.77066398528,1.2283056384392782e+17,1.2362588720667358e+17,795323362745818.9,0.0,0.0,0.0,0.0,0.0
180662.74773038382,1.2283056384392782e+17,1.2362588720667358e+17,795323362745818.9,0.0,0.0,0.0,0.0,0.0
198729.12250342223,1.2283056384392782e+17,1.2362588720667358e+17,795323362745818.9,0.0,0.0,0.0,0.0,0.0
218602.13475376446,1.2283056384392782e+17,1.2362588720667358e+17,795323362745818.9,0.0,0.0,0.0,0.0,0.0
240462.44822914092,1.2283056384392782e+17,1.2362588720667358e+17,795323362745818.9,0.0,0.0,0.0,0.0,0.0
264508.79305205506,1.2283056384392782e+17,1.2362588720667358e+17,795323362745818.9,0.0,0.0,0.0,0.0,0.0
290959.7723572606,1.2283056384392782e+17,1.2362588720667358e+17,795323362745818.9,0.0,0.0,0.0,0.0,0.0
320055.84959298663,1.2283056384392782e+17,1.2362588720667358e+17,795323362745818.9,0.0,0.0,0.0,0.0,0.0
352061.53455228533,1.2283056384392782e+17,1.2362588720667358e+17,795323362745818.9,0.0,0.0,0.0,0.0,0.0
387267.7880075139,1.2283056384392782e+17,1.2362588720667358e+17,795323362745818.9,0.0,0.0,0.0,0.0,0.0
425994.6668082653,1.2283056384392782e+17,1.2362588720667358e+17,795323362745818.9,0.0,0.0,0.0,0.0,0.0
468594.23348909186,1.2283056384392782e+17,1.2362588720667358e+17,795323362745818.9,0.0,0.0,0.0,0.0,0.0
515453.7568380011,1.2283056384392782e+17,1.2362588720667358e+17,795323362745818.9,0.0,0.0,0.0,0.0,0.0
566999.2325218013,1.2283056384392782e+17,1.2362588720667358e+17,795323362745818.9,0.0,0.0,0.0,0.0,0.0
623699.2557739815,1.2283056384392782e+17,1.2362588720667358e+17,795323362745818.9,0.0,0.0,0.0,0.0,0.0
686069.2813513797,1.2283056384392782e+17,1.2362588720667358e+17,795323362745818.9,0.0,0.0,0.0,0.0,0.0
754676.3094865177,1.2283056384392782e+17,1.2362588720667358e+17,795323362745818.9,0.0,0.0,0.0,0.0,0.0
830144.0404351695,1.2283056384392782e+17,1.2362588720667358e+17,795323362745818.9,0.0,0.0,0.0,0.0,0.0
913158.5444786865,1.2283056384392782e+17,1.2362588720667358e+17,795323362745818.9,0.0,0.0,0.0,0.0,0.0
1004474.4989265553,1.2283056384392782e+17,1.2362588720667358e+17,795323362745818.9,0.0,0.0,0.0,0.0,0.0
1104922.0488192108,1.2283056384392782e+17,1.2362588720667358e+17,795323362745818.9,0.0,0.0,0.0,0.0,0.0
1215414.3537011321,1.2283056384392782e+17,1.2362588720667358e+17,795323362745818.9,0.0,0.0,0.0,0.0,0.0
1336955.8890712454,1.2283056384392782e+17,1.2362588720667358e+17,795323362745818.9,0.0,0.0,0.0,0.0,0.0
1470651.57797837,1.2283056384392782e+17,1.2362588720667358e+17,795323362745818.9,0.0,0.0,0.0,0.0,0.0
1617716.835776207,1.2283056384392782e+17,1.2362588720667358e+17,795323362745818.9,0.0,0.0,0.0,0.0,0.0
1779488.619353828,1.2283056384392782e+17,1.2362588720667358e+17,795323362745818.9,0.0,0.0,0.0,0.0,0.0
1957437.581289211,1.2283056384392782e+17,1.2362588720667358e+17,795323362745818.9,0.0,0.0,0.0,0.0,0.0
2153181.4394181324,1.2283056384392782e+17,1.2362588720667358e+17,795323362745818.9,0.0,0.0,0.0,0.0,0.0
2368499.6833599457,1.2283056384392782e+17,1.2362588720667358e+17,795323362745818.9,0.0,0.0,0.0,0.0,0.0
2605349.7516959403,1.2283056384392782e+17,1.2362588720667358e+17,795323362745818.9,0.0,0.0,0.0,0.0,0.0
2865884.8268655348,1.2283056384392782e+17,1.2362588720667358e+17,795323362745818.9,0.0,0.0,0.0,0.0,0.0
3152473.4095520885,1.2283056384392782e+17,1.2362588720667358e+17,795323362745818.9,0.0,0.0,0.0,0.0,0.0
3467720.8505072976,1.2283056384392782e+17,1.2362588720667358e+17,795323362745818.9,0.0,0.0,0.0,0.0,0.0
3814493.0355580277,1.2283056384392782e+17,1.2362588720667358e+17,795323362745818.9,0.0,0.0,0.0,0.0,0.0
4195942.439113831,1.2283056384392782e+17,1.2362588720667358e+17,795323362745818.9,0.0,0.0,0.0,0.0,0.0
4615536.783025214,1.2283056384392782e+17,1.2362588720667358e+17,795323362745818.9,0.0,0.0,0.0,0.0,0.0
5077090.561327737,1.2283056384392782e+17,1.2362588720667358e+17,795323362745818.9,0.0,0.0,0.0,0.0,0.0
5584799.717460511,1.2283056384392782e+17,1.2362588720667358e+17,795323362745818.9,0.0,0.0,0.0,0.0,0.0
6143279.789206563,1.2283056384392782e+17,1.2362588720667358e+17,795323362745818.9,0.0,0.0,0.0,0.0,0.0
6757607.868127219,1.2283056384392782e+17,1.2362588720667358e+17,795323362745818.9,0.0,0.0,0.0,0.0,0.0
7433368.754939942,1.2283056384392782e+17,1.2362588720667358e+17,795323362745818.9,0.0,0.0,0.0,0.0,0.0
8176705.730433936,1.2283056384392782e+17,1.2362588720667358e+17,795323362745818.9,0.0,0.0,0.0,0.0,0.0
8994376.40347733,1.2283056384392782e+17,1.2362588720667358e+17,795323362745818.9,0.0,0.0,0.0,0.0,0.0
9893814.143825063,1.2283056384392782e+17,1.2362588720667358e+17,795323362745818.9,0.0,0.0,0.0,0.0,0.0
10883195.658207571,1.2283056384392782e+17,1.2362588720667358e+17,795323362745818.9,0.0,0.0,0.0,0.0,0.0
11971515.32402833,1.2283056384392782e+17,1.2362588720667358e+17,795323362745818.9,0.0,0.0,0.0,0.0,0.0
13168666.956431163,1.2283056384392782e+17,1.2362588720667358e+17,795323362745818.9,0.0,0.0,0.0,0.0,0.0
14485533.75207428,1.2283056384392782e+17,1.2362588720667358e+17,795323362745818.9,0.0,0.0,0.0,0.0,0.0
15934087.22728171,1.2283056384392782e+17,1.2362588720667358e+17,795323362745818.9,0.0,0.0,0.0,0.0,0.0
17527496.050009884,1.2283056384392782e+17,1.2362588720667358e+17,795323362745818.9,0.0,0.0,0.0,0.0,0.0
19280245.755010873,1.2283056384392782e+17,1.2362588720667358e+17,795323362745818.9,0.0,0.0,0.0,0.0,0.0
21208270.430511963,1.2283056384392782e+17,1.2362588720667358e+17,795323362745818.9,0.0,0.0,0.0,0.0,0.0
23329097.573563162,1.2283056384392782e+17,1.2362588720667358e+17,795323362745818.9,0.0,0.0,0.0,0.0,0.0
25662007.43091948,1.2283056384392782e+17,1.2362588720667358e+17,795323362745818.9,0.0,0.0,0.0,0.0,0.0
28228208.27401143,1.2283056384392782e+17,1.2362588720667358e+17,795323362745818.9,0.0,0.0,0.0,0.0,0.0
31051029.201412573,1.2283056384392782e+17,1.2362588720667358e+17,795323362745818.9,0.0,0.0,0.0,0.0,0.0
31536000.0,1.2283056384392782e+17,1.2362588720667358e+17,795323362745818.9,0.0,0.0,0.0,0.0,0.0
