t(s),Total solute volume 1,Total retention volume 1,Total 1 volume 1,Total 2 volume 1,Total 3 volume 1,Total 4 volume 1,Total 5 volume 1,Total 6 volume 1
0.1,1301436301972856.8,2401541677724917.5,422763850992510.6,677341524759550.8,0.0,0.0,0.0,-2.162416271574588e-76
0.202,1683069248967620.2,4013358024806669.0,546735067913044.4,875965209561158.2,217610507539.06305,734610102370.5502,24686717460287.64,881949560294650.2
0.30604000000000003,1872727906514498.0,5508242812010183.0,608344562651615.9,974674424532483.6,489098389988.2558,1651128318410.796,55515510542056.86,1994840181061137.8
0.41216080000000005,1986210962554507.0,6972136059240063.0,645208863011833.9,1033737497633471.4,785897051946.8364,2653109375767.656,89225087372344.4,3214314642240192.0
0.5204040160000001,2061433600682195.5,8433433243721937.0,669644492716200.8,1072887661605892.4,1098474034666.6104,3708372598660.419,124730123415860.97,4499930518668455.5
0.6308120963200001,2114736628967804.0,9904757235799232.0,686959666708555.0,1100629607380577.1,1422794420722.9788,4803297069740.515,161571338584624.56,5834633902667208.0
0.7434283382464002,2154345465354322.8,1.1392847943903534e+16,699826363384512.8,1121244312646268.5,1756919490352.557,5931338610807.113,199528034113049.38,7210215510304229.0
0.8582969050113283,2184849251837587.8,1.2901804869582406e+16,709735338392701.9,1137120229221106.2,2099849541361.024,7089123180772.408,238486383718140.16,8622424693690737.0
0.9754628431115548,2209006378792156.0,1.4434387633056908e+16,717582638541733.6,1149692981144381.5,2451054715754.096,8274862967611.636,278386041776289.84,1.0068993675118974e+16
1.094972099973786,2228571887775648.5,1.5992614112271806e+16,723938378709305.5,1159875992385955.5,2810260518213.233,9487632308769.162,319195734762213.3,1.154873422581169e+16
1.2168715419732616,2244713918249164.0,1.7578064390532208e+16,729182022096817.9,1168277229518682.5,3177340649967.3633,10727005903405.545,360901064260274.3,1.3061085809853904e+16
1.3412089728127268,2258239031321809.5,1.9192047467887108e+16,733575575315414.9,1175316473071877.5,3552259633740.068,11992865117307.135,403497976044587.44,1.4605873287382366e+16
1.4680331522689813,2269721378463553.0,2.083569842079403e+16,737305548078609.5,1181292544311638.2,3935040345924.2993,13285288373838.762,446989063790679.7,1.618316955742977e+16
1.597393815314361,2279580345522348.0,2.2510037907596468e+16,740508175402197.0,1186423715625184.5,4325744788916.1675,14604486243445.89,491381379794602.3,1.7793214060219772e+16
1.729341691620648,2288129116167324.0,2.4216010158949324e+16,743285193151709.4,1190872985712719.8,4724462264667.225,15950761519667.04,536685088214966.2,1.943636255191827e+16
1.863928525453061,2295606090844008.0,2.59545081094523e+16,745714044304289.6,1194764431807858.2,5131301864765.933,17324483867839.129,582912609757271.2,2.111305514700626e+16
2.001207095962122,2302195815068385.0,2.7726390545616164e+16,747854677381349.4,1198194101958444.2,5546387571130.04,18726073287353.035,630078063621563.5,2.282379542672789e+16
2.1412312378813647,2308043278713670.0,2.9532494132245936e+16,749754191487369.9,1201237457193022.5,5969854986122.213,20155989074984.035,678196895015138.6,2.4569136465775604e+16
2.284055862638992,2313263907050331.5,3.1373642058778096e+16,751450081840225.9,1203954571429424.5,6401849108174.336,21614722318005.824,727285621749646.0,2.63496713052823e+16
2.4297369798917723,2317950681539932.5,3.3250650398879252e+16,752972552918997.4,1206393837543162.8,6842522794879.297,23102790708341.305,777361659153550.6,2.816602635422039e+16
2.578331719489608,2322179305793515.0,3.516433288878817e+16,754346196595026.6,1208594656027615.0,7292035688123.028,24620734916708.754,828443197628228.6,3.0018856762138948e+16
2.7298983538794,2326012013618311.0,3.711550459086899e+16,755591229153414.2,1210589416919421.2,7750553455938.34,26169116036167.34,880549116296815.2,3.1908843145388924e+16
2.884496320956988,2329500416883938.5,3.9104984757602936e+16,756724416405522.0,1212404981990940.2,8218247255400.286,27748513772048.01,933698921847221.0,3.383668925944789e+16
3.0421862473761276,2332687663424035.5,4.11335991132634e+16,757759774670584.0,1214063807845742.2,8695293352352.572,29359525161495.645,987912705254458.1,3.58031203435547e+16
3.2030299723236504,2335610091825837.0,4.320218170567517e+16,758709108324324.6,1215584807165778.2,9181872854121.81,31002763674611.56,1043211111387172.8,3.7808881950443336e+16
3.3670905717701234,2338298514409741.0,4.531157643671224e+16,759582426567296.6,1216984016447372.8,9678171524809.06,32678858594533.08,1099615318033312.9,3.985473913113515e+16
3.5344323832055258,2340779222034464.5,4.7462638350153096e+16,760388269829907.6,1218275118959327.0,10184379661759.918,34388454604212.777,1157147021906466.5,4.194147588315697e+16
3.7051210308696363,2343074778411447.5,4.965623473456001e+16,761133967800759.5,1219469858149596.0,10700692017956.566,36132211528395.88,1215828429894188.0,4.406989479675768e+16
3.879223451487029,2345204653467640.5,5.189324608401384e+16,761825845170823.4,1220578367283539.5,11227307759322.684,37910804193633.28,1275682254293608.5,4.624081685184529e+16
4.0568079205167695,2347185732436395.5,5.417456694889156e+16,762469387008589.1,1221609434403948.2,11764430448907.754,39724922379216.41,1336731711118705.2,4.845508133109579e+16
4.237944078927105,2349032728127141.0,5.650110670113915e+16,763069372683464.4,1222570716899808.8,12312268052030.0,41575270839051.27,1399000520804421.2,5.0713545823733256e+16
4.422702960505647,2350758517123999.0,5.887379023280586e+16,763629985077884.9,1223468916483278.8,12871032957972.553,43462569379604.57,1462512910805472.5,5.301708630097766e+16
4.61115701971576,2352374415744325.5,6.1293558602382984e+16,764154900230837.2,1224309922814341.0,13440942014926.598,45387552982768.625,1527293619713145.5,5.536659724888262e+16
4.803380160110075,2353890407941560.5,6.376136964031848e+16,764647361370744.9,1225098932114471.0,14022216575682.168,47350971965213.36,1593367902605138.0,5.77629918477457e+16
4.9994477633122765,2355315334606206.5,6.627819852267889e+16,765110240408774.5,1225840545689719.0,14615082552161.924,49353592167804.86,1660761537411610.0,6.020720218984258e+16
5.199436718578522,2356657051656897.0,6.884503832009178e+16,765546089293797.1,1226538852210359.8,15219770477339.303,51396195170171.9,1729500832131176.0,6.270017952915198e+16
5.403425452950093,2357922562743175.0,7.146290052769244e+16,765957183120086.9,1227197496776997.0,15836515573416.193,53479578526633.83,1799612632768924.0,6.524289455818323e+16
5.611493962009095,2359118131175776.0,7.413281558069674e+16,766345556487225.4,1227819739175510.5,16465557825389.605,55604556020559.04,1871124331897330.5,6.783633770811493e+16
5.823723841249277,2360249374768170.5,7.685583335936606e+16,766713034308812.5,1228408503238024.5,17107142059330.691,57771957934878.52,1944063877763253.2,7.048151946929346e+16
6.040198318074262,2361321346546825.0,7.963302368645434e+16,767061258030719.8,1228966418849140.8,17761518024848.406,59982631336984.18,2018459783881051.8,7.317947072978469e+16
6.261002284435747,2362338603718387.0,8.246547681969208e+16,767391708034672.0,1229495857840421.2,18428940481326.473,62237440376631.664,2094341139065233.2,7.593124313017534e+16
6.486222330124463,2363305266832859.0,8.535430394143392e+16,767705722857061.6,1229998964782288.0,19109669287611.395,64537266595772.16,2171737617866250.5,7.873790943321202e+16
6.715946776726952,2364225070725365.5,8.830063764725733e+16,768004515737069.9,1230477683497039.2,19803969494900.883,66883009249476.99,2250679491381152.2,8.16005639071724e+16
6.950265712261491,2365101408534396.5,9.130563243502472e+16,768289188915746.8,1230933779968466.8,20512111442637.777,69275585637308.64,2331197638417235.5,8.452032272210904e+16
7.18927102650672,2365937369866240.0,9.437046519569395e+16,768560746033492.0,1231368862204798.0,21234370857257.965,71715931444640.45,2413323556991881.5,8.749832435829565e+16
7.433056447036854,2366735773990846.0,9.749633570698613e+16,768820102913537.1,1231784397515749.2,21971028953678.09,74205001093548.08,2497089376155777.0,9.053573002636315e+16
7.681717575977592,2367499198805193.5,1.0068446713087258e+17,769068096970532.6,1232181727586707.2,22722372539434.75,76743768102993.36,2582527868130143.5,9.363372409873749e+16
7.935351927497144,2368230006178412.5,1.0393610651571211e+17,769305495443750.6,1232562081669781.0,23488694121412.45,79333225458095.69,2669672460751002.0,9.679351455208962e+16
8.194058966047088,2368930364193488.0,1.0725252530378608e+17,769533002622175.4,1232926588159660.0,24270292015113.883,81974385988356.16,2758557250215868.0,1.0001633342059158e+17
8.45794014536803,2369602266718439.0,1.1063501984488021e+17,769751266202092.4,1233276284779591.0,25067470456443.52,84668282754741.56,2849217014129867.5,1.033034372598389e+17
8.72709894827539,2370247550672613.5,1.1408491191650378e+17,769960882895927.9,1233612127567723.2,25880539715985.727,87415969445591.16,2941687224849885.5,1.0665610762135594e+17
9.0016409272409,2370867911297496.0,1.1760354925128112e+17,770162403392892.2,1233934998824931.0,26709816215771.2,90218520781330.94,3036004063126295.5,1.1007565153764246e+17
9.281673745785717,2371464915695263.5,1.211923060719963e+17,770356336756900.9,1234245714161045.2,27555622648532.34,93077032928021.45,3132204432043174.0,1.1356340201776334e+17
9.567307220701432,2372040014859345.0,1.2485258363473942e+17,770543154334620.4,1234545028756253.8,28418288099456.414,95992623919781.55,3230325971258422.5,1.1712071855351147e+17
9.85865336511546,2372594554388774.5,1.2858581078056997e+17,770723293235974.6,1234833642937452.0,29298148170450.812,98966434090158.23,3330407071546129.5,1.2074898763620109e+17
10.155826432417769,2373129784050871.0,1.323934444960818e+17,770897159440513.8,1235112207155219.2,30195545106940.61,101999626512525.16,3432486889644076.5,1.2444962328417162e+17
10.458942961066125,2373646866333731.5,1.3627697048323562e+17,771065130575649.0,1235381326435022.2,31110827927221.734,105093387449612.14,3536605363409751.0,1.2822406758110475e+17
10.768121820287448,2374146884110545.5,1.4023790373880717e+17,771227558406363.2,1235641564366174.5,32044352554398.22,108248926812279.05,3642803227288820.5,1.3207379122526867e+17
11.083484256693197,2374630847521341.0,1.4427778914377786e+17,771384771070688.6,1235893446683466.8,32996481950934.645,111467478627660.02,3751122028100253.5,1.3600029408982371e+17
11.405153941827061,2375099700163483.5,1.483982020629909e+17,771537075090678.1,1236137464489083.5,33967586255857.113,114750301516816.55,3861604141142810.0,1.4000510579433222e+17
11.733257020663602,2375554324670594.5,1.5260074895537693e+17,771684757184661.8,1236374077156180.2,34958042924640.285,118098679182040.86,3974292786627816.5,1.440897862876309e+17
12.067922161076874,2375995547749030.0,1.568870679950501e+17,771828085903333.8,1236603714950153.2,35968236871818.29,121513920903970.44,4089232046443429.0,1.4825592644222835e+17
12.409280604298411,2376424144732418.0,1.6125882970357027e+17,771967313109253.1,1236826781399083.0,36998560616360.97,124997362048669.48,4206466881256002.5,1.525051486604086e+17
12.75746621638438,2376840843707168.5,1.657177375936516e+17,772102675317007.8,1237043655440902.8,38049414429857.555,128550364584851.39,4326043147954198.0,1.568391074922174e+17
13.112615540712067,2377246329255380.0,1.7026552882460806e+17,772234394909055.9,1237254693371382.8,39121206487552.33,132174317611415.33,4448007617441864.0,1.6125949026553155e+17
13.474867851526309,2377641245855808.0,1.749039748698134e+17,772362681240527.4,1237460230614235.2,40214353022278.22,135870637895481.4,4572407992785937.0,1.6576801772839926e+17
13.844365208556836,2378026200978935.0,1.7963488219645085e+17,772487731644632.8,1237660583331936.2,41329278481335.13,139640770421110.08,4699292927725617.0,1.7036644470386736e+17
14.221252512727972,2378401767907723.0,1.8446009295783434e+17,772609732348964.8,1237856049893815.2,42466415686361.945,143486188948901.97,4828712045549536.0,1.7505656075749936e+17
14.605677562982532,2378768488312054.0,1.893814856985737e+17,772728859311793.5,1238046912215943.0,43626205996251.91,147408396586676.16,4960715958347636.0,1.7984019087780323e+17
14.997791114242183,2379126874601667.0,1.944009760728593e+17,772845278986408.0,1238233436985731.8,44809099473162.016,151408926371430.5,5095356286644732.0,1.847191961697962e+17
15.397746936527026,2379477412079588.0,1.9952051757614733e+17,772959149020634.1,1238415876782709.0,46015555051670.016,155489341862796.94,5232685679422822.0,1.8969547456192714e+17
15.805701875257567,2379820560915557.5,2.0474210229051562e+17,773070618897905.0,1238594471105593.0,47246040711129.87,159651237748201.53,5372757834539579.0,1.9477096152659782e+17
16.221815912762718,2380156757956895.5,2.1006776164397594e+17,773179830525498.1,1238769447314780.5,48501033651282.38,163896240459954.28,5515627519550383.0,1.9994763081451696e+17
16.64625223101797,2380486418392283.0,2.1549956718401578e+17,773286918775012.4,1238941021498274.0,49781020471175.055,168226008804488.56,5661350592941600.0,2.052274952031328e+17
17.079177275638333,2380809937282336.5,2.2103963136565952e+17,773392011979561.6,1239109399268268.2,51086497351447.54,172642234603983.78,5809984025782843.0,2.1061260725939098e+17
17.5207608211511,2381127690969334.5,2.2669010835432768e+17,773495232391717.6,1239274776494865.2,52417970240040.87,177146643350600.94,5961585923806335.0,2.1610506011707453e+17
17.97117603757412,2381440038377220.0,2.3245319484378154e+17,773596696605809.5,1239437339982665.0,53775955041387.88,181740994873575.5,6116215549921391.0,2.2170698826897933e+17
18.430599558325603,2381747322211803.5,2.3833113088944822e+17,773696515947802.0,1239597268095422.0,55160977809144.12,186427084019407.12,6273933347172338.0,2.274205683741923e+17
18.899211549492115,2382049870070163.5,2.4432620075741162e+17,773794796835674.5,1239754731333438.5,56573574942520.42,191206741345398.7,6434800962148505.0,2.33248020080736e+17
19.37719578048196,2382347995467206.5,2.5044073378937104e+17,773891641112899.6,1239909892867848.5,58014293386276.89,196081833826794.9,6598881268854689.0,2.3919160686385546e+17
19.864739696091597,2382641998786736.5,2.5667710528386253e+17,773987146357386.9,1240062909035605.8,59483690834441.42,201054265577782.9,6766238393051198.0,2.4525363688021923e+17
20.36203449001343,2382932168163478.5,2.6303773739404797e+17,774081406168000.9,1240213929798532.2,60982335937814.65,206125978586616.34,6936937737072261.0,2.5143646383832115e+17
20.869275179813698,2383218780302005.5,2.6952510004237968e+17,774174510430595.1,1240363099169559.8,62510808515326.055,211298953465133.3,7111046005131989.0,2.5774248788536493e+17
21.38666068340997,2383502101237917.0,2.761417118524429e+17,774266545565264.8,1240510555608860.2,64069699769305.51,216575210212937.66,7288631229127444.0,2.641741565109213e+17
21.91439389707817,2383782387046096.0,2.8289014109830154e+17,774357594756427.5,1240656432392478.2,65659612504735.47,221956808996532.2,7469762794948048.0,2.707339654676571e+17
22.452681775019734,2384059884500402.5,2.897730066716529e+17,774447738167117.6,1240800857955681.2,67281161352550.734,227445850943676.56,7654511469301229.0,2.7742445970943216e+17
23.00173541052013,2384334831688824.5,2.967929790671239e+17,774537053138811.9,1240943956213097.2,68934972997052.836,233044478953267.94,7842949427064183.0,2.842482343470684e+17
23.561770118730532,2384607458587657.0,3.039527813860241e+17,774625614377959.6,1241085846857577.5,70621686407507.27,238754878521034.53,8035150279171724.0,2.9120793562210035e+17
24.133005521105144,2384877987598077.0,3.1125519035889555e+17,774713494130268.5,1241226645639429.8,72341953073992.02,244579278581345.47,8231189101050586.0,2.9830626189882176e+17
24.715665631527248,2385146634047970.0,3.187030373871864e+17,774800762343735.2,1241366464627636.8,74096437247568.39,250519952365439.3,8431142461610556.0,3.055459646749437e+17
25.309978944157795,2385413606661933.5,3.262992096043906e+17,774887486821313.0,1241505412454429.2,75885816184843.1,256579218276386.72,8635088452803191.0,3.129298496111885e+17
25.91617852304095,2385679108001733.5,3.340466509569927e+17,774973733363997.8,1241643594544559.2,77710780396994.19,262759440781097.72,8843106719758778.0,3.204607775801456e+17
26.53450209350177,2385943334879705.0,3.419483633055724e+17,775059565905116.2,1241781113330444.2,79572033903333.39,269063031319705.66,9055278491512828.0,3.281416657347214e+17
27.165192135371807,2386206478746987.5,3.5000740754641286e+17,775145046636442.6,1241918068454218.2,81470294489475.97,275492449232646.1,9271686612332978.0,3.3597548859652026e+17
27.808495978079243,2386468726058653.0,3.582269047539725e+17,775230236126807.1,1242054556957789.8,83406293970194.62,282050202705770.5,9492415573658322.0,3.43965279164494e+17
28.464665897640828,2386730258617400.0,3.666100373445782e+17,775315193433744.6,1242190673461688.2,85380778457029.2,288738849733835.2,9717551546662114.0,3.5211413004421274e+17
29.133959215593645,2386991253897414.0,3.751600502617187e+17,775399976208694.9,1242326510333648.0,87394508630730.4,295560999102709.2,9947182415450264.0,3.604251945980952e+17
29.816638399905518,2387251885349894.0,3.838802521832801e+17,775484640796262.0,1242462157847605.2,89448260018610.5,302519311390652.25,1.01813978109075e+16,3.689016881169699e+17
30.51297116790363,2387512322691614.5,3.9277401675113197e+17,775569242327933.8,1242597704333887.0,91542823276881.38,309616499989028.1,1.0420289145203546e+16,3.775468890133092e+17
31.223230591261704,2387772732177690.0,4.0184478382341274e+17,775653834810703.9,1242733236321174.0,93679004478052.89,316855332142808.7,1.0663949646971532e+16,3.8636414003651066e+17
31.947695203086937,2388033276859789.5,4.110960607499249e+17,775738471210948.9,1242868838670891.5,95857625403475.16,324238630011245.6,1.0912474397172044e+16,3.9535684951059674e+17
32.686649107148675,2388294116830796.5,4.205314236710035e+17,775823203533893.8,1243004594704541.8,98079523841098.9,331769271749084.75,1.1165960365654962e+16,4.0452849259468864e+17
33.44038208929165,2388555409456900.0,4.3015451884026963e+17,775908082899015.5,1243140586324491.8,100345553888535.38,339450192608713.4,1.1424506448432994e+16,4.138826125666587e+17
34.20918973107749,2388817309598004.0,4.399690639716587e+17,775993159611644.4,1243276894128705.2,102656586261497.06,347284386063616.3,1.1688213505679782e+16,4.234228221303153e+17
34.993373525699035,2389079969817348.0,4.499788496111257e+17,776078483231041.2,1243413597519815.2,105013508607697.66,355274904953555.2,1.1957184400466722e+16,4.3315280474652954e+17
35.793240996213015,2389343540580994.5,4.601877405334353e+17,776164102635226.8,1243550774808982.0,107417225826293.47,363424862651864.9,1.2231524038251892e+16,4.4307631598868006e+17
36.60910581613728,2389608170448070.5,4.705996771644468e+17,776250066082746.5,1243688503314866.0,109868660392949.08,371737434255278.8,1.2511339407135866e+16,4.5319718492281754e+17
37.44128793246003,2389874006252194.5,4.812186770293129e+17,776336421271642.0,1243826859458083.0,112368752690608.3,380215857796704.94,1.2796739618898048e+16,4.6351931551294554e+17
38.29011369110923,2390141193274928.5,4.920488362270089e+17,776423215395765.2,1243965918851473.0,114918461346053.64,388863435481370.9,1.3087835950828914e+16,4.740466880518297e+17
39.15591596493141,2390409875411646.0,5.030943309316165e+17,776510495198682.8,1244105756386420.8,117518763572337.52,397683534946781.8,1.3384741888372526e+16,4.847833606177281e+17
40.03903428423004,2390680195330494.5,5.143594189207987e+17,776598307025296.5,1244246446315586.8,120170655517169.7,406679590546914.0,1.368757316859483e+16,4.9573347055746784e+17
40.93981496991464,2390952294624794.0,5.258484411318847e+17,776686696871362.2,1244388062332234.2,122875152617343.53,415855104661104.1,1.3996447824492772e+16,5.069012359962854e+17
41.85861126931294,2391226313959457.5,5.37565823246019e+17,776775710431042.1,1244530677646423.8,125633289959285.95,425213649028083.7,1.4311486230160348e+16,5.1829095737483437e+17
