t(s),Total solute volume 1,Total retention volume 1,Total 1 volume 1,Total 2 volume 1,Total 3 volume 1,Total 4 volume 1,Total 5 volume 1,Total 6 volume 1
0.1,1144268928618327.0,1596229672649425.0,193012778181123.2,258947965849975.12,0.0,0.0,0.0,0.0
0.202,1722585649862856.2,2403450682709568.0,290561979094259.2,389821006210367.56,280635666.2408707,721049914.390619,16164798007.547821,464881058497.19073
0.30604000000000003,2163192026717531.5,3018827959151416.5,364882499148173.25,489530198585887.0,711873060.6827056,1829049888.2262151,41005982014.96933,1179687794863.1892
0.41216080000000005,2535800395881346.5,3539557884018618.5,427733263869454.75,573851445945089.8,1264280075.6603146,3248377595.513724,72827421140.73254,2095438243919.4712
0.5204040160000001,2866604463410595.5,4002157567300200.5,483532570397270.1,648712382649022.2,1924767508.018299,4945402162.958057,110875010582.10474,3190405663058.6553
0.6308120963200001,3168663962022806.0,4424832940048590.5,534483305902601.25,717068425403666.6,2686298705.019097,6902043930.621072,154743367805.35535,4452915009074.2295
0.7434283382464002,3449571463087493.5,4818168525292706.0,581866168723727.2,780637772606614.9,3544836145.877952,9107929086.684639,204199894074.1616,5876268215564.63
0.8582969050113283,3714191425332309.0,5188946189815383.0,626501685121412.0,840521250934861.8,4498086444.872131,11557165125.61939,259112469430.8528,7456660705793.95
0.9754628431115548,3965857311673014.5,5541814031307911.0,668952136330081.0,897473222813884.2,5544881857.971562,14246751716.737942,319413820573.02814,9192155036785.23
1.094972099973786,4206969281230395.5,5880119556066816.0,709622375940832.8,952036844083590.5,6684837678.613996,17175700431.62362,385081783471.95026,11082112490422.268
1.2168715419732616,4439322381741529.5,6206367145895933.0,748815188679847.1,1004618333919488.8,7918146307.950703,20344505637.32458,456127439948.44885,13126851463180.025
1.3412089728127268,4664300145031243.0,6522487893421922.0,786763945669207.9,1055530785474877.9,9245445817.97718,23754806788.398006,532587545782.9066,15327429448199.72
1.4680331522689813,4882995367665823.0,6830007937413845.0,823652977443447.9,1105021498534505.5,10667732148.46196,27409162829.74079,614519472537.7263,17685497402548.996
1.597393815314361,5096288939044456.0,7130158321725262.0,859630870499634.4,1153289818306216.5,12186298346.92565,31310896082.64157,701997707297.8762,20203198973228.293
1.729341691620648,5304903233383972.0,7423949401604702.0,894819473340585.2,1200499218023365.5,13802691351.380934,35463981204.42385,795111363022.8639,22883098821194.363
1.863928525453061,5509439414827782.0,7712222829496353.0,929320189019042.4,1246785741088335.0,15518680590.770365,39872964511.95325,893962369694.8611,25728130546389.812
2.001207095962122,5710404200589880.0,7995688849168740.0,963218489486284.9,1292264057570148.2,17336234804.294155,44542904422.3925,998664138940.4183,28741558244248.48
2.1412312378813647,5908229503021711.0,8274953666202038.0,996587228772994.4,1337031909202797.8,19257504735.625336,49479326988.62956,1109340567091.5793,31926947805732.67
2.284055862638992,6103287133633884.0,8550539937409159.0,1029489123231483.8,1381173436904312.2,21284810128.362316,54688192486.11316,1226125286031.2158,35288145350823.03
2.4297369798917723,6295900003593695.0,8822902378449764.0,1061978640811119.8,1424761715448548.5,23420629938.288822,60175870264.81127,1349161099350.81,38829260996861.78
2.578331719489608,6486350787854992.0,9092439837485448.0,1094103462504794.4,1467860714157154.2,25667594997.952316,65949119902.049355,1478599559780.103,42554656693827.91
2.7298983538794,6674888719925459.0,9359504764386556.0,1125905628475412.0,1510526834554929.0,28028482583.75943,72015077243.59435,1614600656215.767,46468937214703.836
2.884496320956988,6861734986645247.0,9624410729565858.0,1157422448035338.8,1552810131207822.8,30506212483.15652,78381244298.99557,1757332587166.0984,50576943633520.88
3.0421862473761276,7047087059298658.0,9887438461085508.0,1188687230208869.0,1594755291853226.2,33103844262.695084,85055482222.42859,1906971603375.3928,54883748794878.17
3.2030299723236504,7231122205999509.0,1.0148840741335484e+16,1219729876193680.8,1636402432252492.8,35824575511.41532,92046006799.48697,2063701906633.8464,59394654400857.016
3.3670905717701234,7414000366388166.0,1.0408846415532844e+16,1250577364258463.2,1677787746734700.5,38671740887.3728,99361385997.53639,2227715594854.311,64115189429796.33
3.5344323832055258,7595866524255629.0,1.0667663700992262e+16,1281254149951942.5,1718944045121295.8,41648811834.424965,107010539238.21631,2399212645761.0107,69051109666562.12
3.7051210308696363,7776852680938200.0,1.0925482940454934e+16,1311782498970795.0,1759901199305159.5,44759396865.70577,115002738125.96895,2578400933223.6553,74208398172555.56
3.879223451487029,7957079508356495.0,1.1182478909363064e+16,1342182765990624.8,1800686517333227.8,48007242332.35609,123347608423.37242,2765496271545.869,79593266560409.72
4.0568079205167695,8136657742820691.0,1.1438812762232332e+16,1372473629770017.8,1841325058824521.2,51396233612.98676,132055133107.49608,2960722483991.0796,85212156966392.02
4.237944078927105,8315689367423147.0,1.169463368474335e+16,1402672292593915.8,1881839902545491.2,54930396672.41761,141135656375.06378,3164311492581.408,91071744635161.83
4.422702960505647,8494268620766665.0,1.1950080304139226e+16,1432794650423709.5,1922252374685177.5,58613899948.40991,150599888490.36157,3376503426791.6865,97178941048443.75
4.61115701971576,8672482862073520.0,1.2205281899784318e+16,1462855438821922.8,1962582244629293.5,62451056533.129456,160458911390.42416,3597546749222.1523,103540897542450.1
4.803380160110075,8850413316772726.0,1.2460359447453334e+16,1492868358716257.8,2002847893686593.2,66446326622.43506,170724184978.36856,3827698396700.1343,110165009369433.55
4.9994477633122765,9028135722033086.0,1.271542652446973e+16,1522846185286679.8,2043066461172941.0,70604320211.17424,181407554048.82428,4067223935553.788,117058920167202.19
5.199436718578522,9205720888074824.0,1.2970590097750258e+16,1552800862646255.8,2083253971436086.0,74929800016.77568,192521255799.94864,4316397730037.644,124230526807221.06
5.403425452950093,9383235188218456.0,1.3225951212806762e+16,1582743586501517.5,2123425444753726.0,79427684616.7591,204077927895.08566,4575503123081.594,131687984597456.48
5.611493962009095,9560740988340136.0,1.3481605598569466e+16,1612684876592025.5,2163594994519144.8,84103051788.50475,216090617044.1211,4844832628691.998,139439712820643.47
5.823723841249277,9738297024566380.0,1.3737644200337094e+16,1642634640399150.2,2203775912713598.8,88961142041.87785,228572788080.35736,5124688135462.78,147494400592369.84
6.040198318074262,9915958736561642.0,1.3994153651098082e+16,1672602229364212.8,2243980745329179.8,94007362337.15315,241538333513.51355,5415381120761.768,155861013026461.28
6.261002284435747,1.009377856255724e+16,1.425121668979103e+16,1702596488653387.5,2284221359133903.5,99247289982.24301,255001583543.43408,5717232875246.446,164548797697719.4
6.486222330124463,1.0271806201291866e+16,1.4508912533706786e+16,1732625801341209.0,2324509000948794.5,104686676704.52458,268977316522.42175,6030574737438.431,173567291394218.8
6.715946776726952,1.0450088845226176e+16,1.4767317211113328e+16,1762698127748721.8,2364854350424352.0,110331452893.66734,283480769856.9489,6355748338149.256,182926327153193.28
6.950265712261491,1.0628671388731084e+16,1.502650385925883e+16,1792821040560211.2,2405267567153516.0,116187732012.78548,298527651341.87756,6693105854603.384,192636041576080.72
7.18927102650672,1.08075966143989e+16,1.5286542992142462e+16,1823001756249797.5,2445758332833906.5,122261815176.03625,314134150922.3598,7043010274150.356,202706882419612.84
7.433056447036854,1.0986905360167756e+16,1.5547502741804548e+16,1853247163271544.0,2486335889088017.0,128560195891.46986,330316952880.34216,7405835667497.084,213149616460967.66
7.681717575977592,1.1166636669566896e+16,1.580944907635403e+16,1883563847402574.5,2527009071463775.0,135089564968.51904,347093248444.122,7781967471425.203,223975337635983.06
7.935351927497144,1.134682792706902e+16,1.6072445997503414e+16,1913958114573991.8,2567786340064718.5,141856815590.02737,364480748820.67786,8171802780987.825,235195475450252.88
8.194058966047088,1.1527514980264742e+16,1.6336555720003882e+16,1944436011478965.8,2608675807198068.5,148869048549.16443,382497698651.677,8575750651205.503,246821803663698.06
8.45794014536803,1.1708732250343638e+16,1.6601838835054384e+16,1975003344208478.2,2649685262376614.5,156133577651.9574,401162889895.0458,8994232408303.756,258866449249822.3
8.72709894827539,1.1890512832173782e+16,1.6868354459486418e+16,2005665695132503.8,2690822194966699.5,163657935286.5189,420495676134.8611,9427681970554.164,271341901631441.25
9.0016409272409,1.207288858510373e+16,1.7136160372296166e+16,2036428438216272.8,2732093814736675.5,171449878160.34943,440515987323.11804,9876546178798.79,284261022195181.3
9.281673745785717,1.2255890215469704e+16,1.740531313989777e+16,2067296752937417.2,2773507070528261.0,179517393207.368,461244344957.61566,10341285136752.76,297637054087491.6
9.567307220701432,1.2439547351669134e+16,1.7675868231301976e+16,2098275636949230.2,2815068667245764.0,187868703666.55893,482701877700.8274,10822372561194.242,311483632295293.8
9.85865336511546,1.2623888612557496e+16,1.7947880124279092e+16,2129369917617678.2,2856785081334182.0,196512275334.34726,504910337445.1642,11320296142163.576,325814794014804.9
10.155826432417769,1.2808941669833456e+16,1.8221402403439344e+16,2160584262544361.0,2898662574897035.5,205456822993.00638,527892115830.5701,11835557913303.777,340644989312317.3
10.458942961066125,1.2994733305001338e+16,1.8496487851054892e+16,2191923189174859.2,2940707208586883.5,214711317017.58002,551670261220.8181,12368674632486.05,355989092081090.0
10.768121820287448,1.3181289461429916e+16,1.8773188531354016e+16,2223391073579895.2,2982924853386292.0,224284990163.95926,576268496145.2992,12920178172872.477,371862411298715.75
11.083484256693197,1.3368635291969932e+16,1.9051555868934824e+16,2254992158487321.0,3025321201383677.0,234187344540.90973,601711235213.4819,13490615924576.08,388280702589616.6
11.405153941827061,1.3556795202539028e+16,1.9331640721876416e+16,2286730560633964.5,3067901775636539.5,244428158768.96686,628023603509.545,14080551207087.97,405260180097491.4
11.733257020663602,1.3745792892039444e+16,1.961349345005931e+16,2318610277498825.0,3110671939204828.5,255017495329.25388,655231455475.048,14690563692646.06,422817528672817.9
12.067922161076874,1.3935651388933716e+16,1.9897163979158124e+16,2350635193472615.5,3153636903428073.5,265965708105.37967,683361394287.7015,15321249840728.14,440969916380608.7
12.409280604298411,1.41263930847694e+16,2.0182701860713556e+16,2382809085512604.0,3196801735511952.0,277283450121.6844,712440791744.7328,15973223343857.717,459735007333893.8
12.75746621638438,1.4318039764912918e+16,2.0470156328656664e+16,2415135628326778.0,3240171365483448.5,288981681481.20435,742497808659.3948,16647115584916.08,479130974858470.1
13.112615540712067,1.451061263672663e+16,2.0759576352614628e+16,2447618399126640.0,3283750592567231.5,301071677506.7907,773561415779.5399,17343576106159.943,499176514994683.25
13.474867851526309,1.4704132355398514e+16,2.1051010688298256e+16,2480260881984156.5,3327544091030973.5,313565037088.9435,805661415237.37,18063273090148.246,519890860342093.4
13.844365208556836,1.4898619047613814e+16,2.134450792524023e+16,2513066471824564.0,3371556415542184.0,326473691243.9584,838828462539.5891,18806893852786.48,541293794253033.7
14.221252512727972,1.5094092333238634e+16,2.1640116532128816e+16,2546038478083983.0,3415792006075299.0,339809911886.0665,873094089107.4865,19575145348701.25,563405665381173.1
14.605677562982532,1.5290571345169506e+16,2.1937884899957284e+16,2579180128057590.5,3460255192403532.5,353586320817.33923,908490725376.5587,20368754689159.953,586247402591311.8
14.997791114242183,1.5488074747488002e+16,2.2237861383190056e+16,2612494569961848.5,3504950198207329.0,367815898939.13696,945051724465.4622,21188469672757.008,609840530236723.2
15.397746936527026,1.568662075204618e+16,2.2540094339127604e+16,2645984875732140.0,3549881144827621.5,382511995689.0004,982811386424.2367,22035059329087.523,634207183810487.1
15.805701875257567,1.5886227133597218e+16,2.2844632165636816e+16,2679654043575002.0,3595052054689905.0,397688338706.8689,1021804983071.8765,22909314475635.76,659370125977283.6
16.221815912762718,1.6086911243575102e+16,2.3151523337397604e+16,2713505000292363.0,3640466854422582.0,413359043734.6099,1062068783433.3999,23812048288105.12,685352762992247.5
16.64625223101797,1.6288690022617662e+16,2.346081644080496e+16,2747540603393981.0,3686129377690904.0,429538624752.85333,1103640079786.7422,24744096884421.54,712179161513506.4
17.079177275638333,1.6491580011918938e+16,2.3772560207653836e+16,2781763643012322.5,3732043367766049.5,446242004359.1641,1146557214329.8113,25706319922642.86,739874065815144.8
17.5207608211511,1.6695597363489728e+16,2.4086803547721216e+16,2816176843633255.5,3778212479847017.0,463484524391.6345,1190859606478.206,26699601213007.914,768462915407306.1
17.97117603757412,1.6900757849397024e+16,2.4403595580355452e+16,2850782865654569.0,3824640283151611.0,481281956801.9829,1236587780804.1055,27724849344362.617,797971863070280.8
18.430599558325603,1.7107076870049378e+16,2.4722985665169176e+16,2885584306783513.0,3871330262791317.0,499650514782.28564,1283783395626.9355,28782998325199.895,828427793309393.1
18.899211549492115,1.7314569461586718e+16,2.5045023431927228e+16,2920583703283315.5,3918285821443672.0,518606864149.48175,1332489272266.4138,29875008239552.117,859858341237564.1
19.37719578048196,1.7523250302431008e+16,2.536975880971422e+16,2955783531078106.5,3965510280834685.0,538168134991.78595,1382749424968.7083,31001865917975.465,892291911892462.1
19.864739696091597,1.773313371904751e+16,2.5697242055458892e+16,2991186206724745.5,4013006883042567.0,558351933581.1976,1434609091516.3152,32164585623865.406,925757699995129.0
20.36203449001343,1.7944233690963698e+16,2.602752378188804e+16,3026794088259364.0,4060778791633553.5,579176354556.2323,1488114764532.4622,33364209755344.367,960285710156991.5
20.869275179813698,1.815656385508871e+16,2.636065498497617e+16,3062609475926017.5,4108829092639383.5,600659993379.0713,1543314223490.6045,34601809562959.83,995906777542213.9
21.38666068340997,1.837013750937307e+16,2.669668707095464e+16,3098634612793926.5,4157160795385462.5,622821959071.2582,1600256567439.8064,35878485883434.01,1032652588992214.9
21.91439389707817,1.858496761584471e+16,2.7035671882936996e+16,3134871685269641.5,4205776833177968.0,645681887232.0898,1658992248456.6196,37195369889703.11,1070555704619310.4
22.452681775019734,1.880106680305626e+16,2.737766172721667e+16,3171322823509833.5,4254680063857630.5,669259953343.8466,1719573105834.01,38553623857483.05,1109649579876285.6
23.00173541052013,1.9018447367974348e+16,2.772270939928632e+16,3207990101739959.5,4303873270227324.5,693576886367.9209,1782052401017.9421,39954441948600.02,1149968588108717.8
23.561770118730532,1.9237121277340436e+16,2.807086820962831e+16,3244875538483856.0,4353359160359963.5,718653982635.9653,1846484853302.0986,41399051011319.83,1191548043596841.8
24.133005521105144,1.9457100168530576e+16,2.842219200932023e+16,3281981096708664.0,4403140367793131.5,744513120040.0504,1912926676291.0327,42888711397907.234,1234424225093627.5
24.715665631527248,1.967839534993942e+16,2.877673521549801e+16,3319308683889692.0,4453219451615888.5,771176772525.8855,1981435615142.1318,44424717799649.195,1278634399865753.0
25.309978944157795,1.9901017800911924e+16,2.9134552836717356e+16,3356860151998895.5,4503598896453448.5,798668024892.9822,2052070984596.4773,46008400099566.3,1324216848244018.5
25.91617852304095,2.012497817124633e+16,2.9495700498250308e+16,3394637297420961.0,4554281112354586.0,827010587905.7189,2124893707808.6638,47641124243039.984,1371210888689657.8
26.53450209350177,2.035028678028791e+16,2.986023446735429e+16,3432641860800507.0,4605268434586622.0,856228813719.1241,2199966355985.425,49324293126574.414,1419656903383009.0
27.165192135371807,2.0576953615634004e+16,3.0228211678546016e+16,3470875526823661.0,4656563123342338.0,886347711623.1366,2277353188842.7983,51059347504912.445,1469596364340688.5
27.808495978079243,2.08049883314694e+16,3.059968975891424e+16,3509339923937246.5,4708167363363300.0,917392964109.0463,2357120195891.235,52847766916718.58,1521071860067538.8
28.464665897640828,2.103440024654945e+16,3.0974727053501412e+16,3548036624008532.0,4760083263483336.0,949390943261.7544,2439335138558.155,54691070629036.65,1574127122749291.0
29.133959215593645,2.1265198341846704e+16,3.1353382650784456e+16,3586967141928394.5,4812312856096202.0,982368727481.3547,2524067593156.846,56590818600726.76,1628807055991823.8
29.816638399905518,2.149739125787972e+16,3.173571640828234e+16,3626132935160650.0,4864858096550862.0,1016354118537.4987,2611388994710.592,58548612465079.875,1685157763112782.5
30.51297116790363,2.1730987291736984e+16,3.212178897831852e+16,3665535403240057.5,4917720862478053.0,1051375658959.8453,2701372681640.705,60566096531802.266,1743226575991036.0
31.223230591261704,2.196599439381154e+16,3.251166183396355e+16,3705175887221582.5,4970902953051442.0,1087462649767.8776,2794093941326.677,62644958808555.59,1803062084479381.2
31.947695203086937,2.220242016426123e+16,3.290539729518395e+16,3745055669083270.5,5024406088186450.0,1124645168543.11,2889630056546.3613,64786932042232.84,1864714166385623.5
32.686649107148675,2.2440271849207684e+16,3.330305855522078e+16,3785175971085091.5,5078231907680106.0,1162954087846.7751,2988060352804.165,66993794780141.04,1928234018027068.8
33.44038208929165,2.267955633668666e+16,3.3704709707222184e+16,3825537955085924.5,5132381970294717.0,1202421093985.7422,3089466246554.169,69267372451257.125,1993674185363055.2
34.20918973107749,2.292028015236495e+16,3.411041577115271e+16,3866142721820999.5,5186857752788454.0,1243078706129.4424,3193931294325.5425,71609538467711.75,2061088595710101.5
34.993373525699035,2.3162449455034052e+16,3.452024272100078e+16,3906991310141857.5,5241660648895699.0,1284960295780.3418,3301541242756.6147,74022215346650.14,2130532590043946.8
35.793240996213015,2.3406070031894972e+16,3.49342575123069e+16,3948084696220939.0,5296791968259885.0,1328100106600.355,3412384079543.8477,76507375852607.55,2202062955892325.0
36.60910581613728,2.36511472936453e+16,3.5352528110032852e+16,3989423792722927.5,5352252935321781.0,1372533274595.4563,3526550085311.575,79067044160531.42,2275737960822391.5
37.44128793246003,2.3897686269381228e+16,3.577512351679254e+16,4031009447944836.0,5408044688165779.0,1418295848660.5864,3644131886407.7017,81703297039566.33,2351617386526032.5
38.29011369110923,2.4145691601326664e+16,3.620211380146473e+16,4072842444926869.5,5464168277327124.0,1465424811486.6511,3765224508630.2695,84418265057711.56,2429762563506256.5
39.15591596493141,2.4395167539400784e+16,3.663357012820705e+16,4114923500536156.5,5520624664562528.0,1513958100831.3933,3889925431889.412,87214133807452.72,2510236406367395.5
40.03903428423004,2.464611793563664e+16,3.706956478588995e+16,4157253264525254.5,5577414721587068.0,1563934631155.6375,4018334645808.2666,90093145152449.62,2593103449711640.0
40.93981496991464,2.489854623846218e+16,3.7510171217970984e+16,4199832318567520.5,5634539228780097.0,1615394315626.1123,4150554706266.5293,93057598495355.88,2678429884643910.0
41.85861126931294,2.515245548685636e+16,3.795546405282524e+16,4242661175271316.5,5691998873862632.0,1668378088486.0715,4286690792889.2207,96109852066837.84,2766283595886744.0
42.7957834946992,2.540784830439145e+16,3.840551913455355e+16,4285740277175126.5,5749794250549182.0,1722927927794.4277,4426850767482.924,99252324235833.1,2856734199506705.5
43.751699164593184,2.5664726893174172e+16,3.886041355428254e+16,4329069995725561.5,5807925857176721.0,1779086878534.1296,4571145233421.268,102487494841094.77,2949853081253061.5
