t(s),Total solute volume 1,Total retention volume 1,Total 1 volume 1,Total 2 volume 1,Total 3 volume 1,Total 4 volume 1,Total 5 volume 1,Total 6 volume 1
0.1,1681534949069947.2,1715902157171346.8,34367208101399.746,0.0,0.0,0.0,0.0,0.0
0.21000000000000002,2583384877285742.5,2636184685123502.0,52799807837761.81,0.0,0.0,0.0,0.0,0.0
0.33100000000000007,3309669104423616.5,3377312984326369.0,67643879902758.016,0.0,0.0,0.0,0.0,0.0
0.46410000000000007,3959124279678827.0,4040041941137379.5,80917661458552.78,0.0,0.0,0.0,0.0,0.0
0.6105100000000001,4568660871490891.0,4662036435170100.0,93375563679200.7,0.0,0.0,0.0,0.0,0.0
0.7715610000000002,5156848548754085.0,5262245674060406.0,105397125306312.36,0.0,0.0,0.0,0.0,0.0
0.9487171000000002,5734726309372130.0,5851934276399828.0,117207967027694.7,0.0,0.0,0.0,0.0,0.0
1.1435888100000002,6309632494735392.0,6438590567862820.0,128958073127421.69,0.0,0.0,0.0,0.0,0.0
1.3579476910000003,6886867360471651.0,7027623132839758.0,140755772368096.06,0.0,0.0,0.0,0.0,0.0
1.5937424601000005,7470518444058898.0,7623203051435147.0,152684607376237.7,0.0,0.0,0.0,0.0,0.0
1.8531167061100007,8063911782337530.0,8228724339214097.0,164812556876578.3,0.0,0.0,0.0,0.0,0.0
2.138428376721001,8669877360517820.0,8847074821590649.0,177197461072837.62,0.0,0.0,0.0,0.0,0.0
2.452271214393101,9290914656793532.0,9480805061919594.0,189890405126056.66,0.0,0.0,0.0,0.0,0.0
2.7974983358324113,9929300979871350.0,1.0132238913276182e+16,202937933404829.25,0.0,0.0,0.0,0.0,0.0
3.1772481694156527,1.0587165350264324e+16,1.0803548909766532e+16,216383559502212.47,0.0,0.0,0.0,0.0,0.0
3.594972986357218,1.1266540750246024e+16,1.149680958438735e+16,230268834141351.94,0.0,0.0,0.0,0.0,0.0
4.05447028499294,1.1969402319105122e+16,1.221403644493005e+16,244634125824942.72,0.0,0.0,0.0,0.0,0.0
4.5599173134922335,1.2697696151299024e+16,1.2957215360721736e+16,259519209422743.0,0.0,0.0,0.0,0.0,0.0
5.115909044841457,1.3453361660339134e+16,1.372832538359202e+16,274963723252845.53,0.0,0.0,0.0,0.0,0.0
5.727499949325603,1.4238349450298428e+16,1.4529356984644296e+16,291007534345911.4,0.0,0.0,0.0,0.0,0.0
6.400249944258164,1.5054636001776444e+16,1.5362327040378482e+16,307691038602040.5,0.0,0.0,0.0,0.0,0.0
7.140274938683981,1.5904236072884828e+16,1.6229291487131156e+16,325055414246314.44,0.0,0.0,0.0,0.0,0.0
7.95430243255238,1.6789213449374036e+16,1.713235629091752e+16,343142841543474.6,0.0,0.0,0.0,0.0,0.0
8.84973267580762,1.7711690499401158e+16,1.807368719748253e+16,361996698081378.8,0.0,0.0,0.0,0.0,0.0
9.834705943388382,1.8673856866314596e+16,1.905551860275163e+16,381661736436928.8,0.0,0.0,0.0,0.0,0.0
10.918176537727222,1.967797754786032e+16,2.008016179716176e+16,402184249301429.4,0.0,0.0,0.0,0.0,0.0
12.109994191499945,2.0726400550161204e+16,2.115001277607632e+16,423612225915024.56,0.0,0.0,0.0,0.0,0.0
13.42099361064994,2.1821564261787704e+16,2.2267559764567948e+16,445995502780201.44,0.0,0.0,0.0,0.0,0.0
14.863092971714936,2.2966004662013336e+16,2.34353905729997e+16,469385910986334.2,0.0,0.0,0.0,0.0,0.0
16.44940226888643,2.4162362454458812e+16,2.4656199876468056e+16,493837422009260.9,0.0,0.0,0.0,0.0,0.0
18.194342495775075,2.5413390200391584e+16,2.5932796493895376e+16,519406293503795.7,0.0,0.0,0.0,0.0,0.0
20.113776745352585,2.672195951332527e+16,2.726811072967447e+16,546151216349115.56,0.0,0.0,0.0,0.0,0.0
22.225154419887843,2.809106836711223e+16,2.866520183112594e+16,574133464013726.8,0.0,0.0,0.0,0.0,0.0
24.54766986187663,2.9523848562619332e+16,3.0127265607780956e+16,603417045161608.9,0.0,0.0,0.0,0.0,0.0
27.102436848064297,3.1023573392745692e+16,3.165764225305773e+16,634068860312095.6,0.0,0.0,0.0,0.0,0.0
29.91268053287073,3.259366554154622e+16,3.3259824404830716e+16,666158863284491.5,0.0,0.0,0.0,0.0,0.0
33.003948586157804,3.4237705250268012e+16,3.493746547836578e+16,699760228097799.5,0.0,0.0,0.0,0.0,0.0
36.40434344477359,3.5959438780920144e+16,3.669438830287135e+16,734949521951292.8,0.0,0.0,0.0,0.0,0.0
40.14477778925095,3.776278720635973e+16,3.8534594091237384e+16,771806884877639.9,0.0,0.0,0.0,0.0,0.0
44.25925556817605,3.965185555434363e+16,4.046227177097182e+16,810416216628092.2,0.0,0.0,0.0,0.0,0.0
48.78518112499366,4.163094233045757e+16,4.248180770175303e+16,850865371295435.5,0.0,0.0,0.0,0.0,0.0
53.763699237493036,4.370454943803281e+16,4.459779579807031e+16,893246360037486.9,0.0,0.0,0.0,0.0,0.0
59.240069161242346,4.587739249327417e+16,4.68150480551256e+16,937655561851313.1,0.0,0.0,0.0,0.0,0.0
65.26407607736658,4.8154411479395144e+16,4.9138605420622296e+16,984193941227018.5,0.0,0.0,0.0,0.0,0.0
71.89048368510325,5.054078154820852e+16,5.1573748816941624e+16,1032967268732993.4,0.0,0.0,0.0,0.0,0.0
79.17953205361358,5.304192347321308e+16,5.4126009807566024e+16,1084086334352925.8,0.0,0.0,0.0,0.0,0.0
87.19748525897495,5.5663512639085304e+16,5.680117976982104e+16,1137667130735960.5,0.0,0.0,0.0,0.0,0.0
96.01723378487245,5.841148431501486e+16,5.960531527529308e+16,1193830960278198.5,0.0,0.0,0.0,0.0,0.0
105.7189571633597,6.129203107711096e+16,6.254473545861427e+16,1252704381503341.8,0.0,0.0,0.0,0.0,0.0
116.39085287969569,6.431158545808022e+16,6.56260043113633e+16,1314418853283110.8,0.0,0.0,0.0,0.0,0.0
128.12993816766527,6.7476777258056296e+16,6.885588711905803e+16,1379109861001697.2,0.0,0.0,0.0,0.0,0.0
141.04293198443182,7.07943508595682e+16,7.224126608477987e+16,1446915225211733.5,0.0,0.0,0.0,0.0,0.0
155.247225182875,7.427102422102403e+16,7.57889964394222e+16,1517972218398092.5,0.0,0.0,0.0,0.0,0.0
170.87194770116253,7.791326924984554e+16,7.950568232501544e+16,1592413075169848.2,0.0,0.0,0.0,0.0,0.0
188.0591424712788,8.17269944007734e+16,8.339735290537179e+16,1670358504598358.2,0.0,0.0,0.0,0.0,0.0
206.9650567184067,8.571711575104843e+16,8.746902467494014e+16,1751908923891709.0,0.0,0.0,0.0,0.0,0.0
227.76156239024738,8.988701286487878e+16,9.172414620305018e+16,1837133338171465.8,0.0,0.0,0.0,0.0,0.0
250.63771862927214,9.42378797818752e+16,9.616393585951715e+16,1926056077642039.2,0.0,0.0,0.0,0.0,0.0
275.8014904921994,9.876799764143083e+16,1.0078663957543629e+17,2018641934005428.2,0.0,0.0,0.0,0.0,0.0
303.4816395414193,1.0347197121256896e+17,1.0558675177253096e+17,2114780559961925.2,0.0,0.0,0.0,0.0,0.0
333.92980349556126,1.0833998423474706e+17,1.1055425548858515e+17,2214271253838165.5,0.0,0.0,0.0,0.0,0.0
367.4227838451174,1.1335713589418923e+17,1.1567394529716299e+17,2316809402973601.5,0.0,0.0,0.0,0.0,0.0
404.26506222962917,1.1850292204070693e+17,1.2092489792633744e+17,2421975885630702.5,0.0,0.0,0.0,0.0,0.0
444.7915684525921,1.2375092032716074e+17,1.2628015096792618e+17,2529230640765502.5,0.0,0.0,0.0,0.0,0.0
489.3707252978514,1.2906872983075419e+17,1.3170664126946909e+17,2637911438714769.5,0.0,0.0,0.0,0.0,0.0
538.4077978276366,1.3441820478160917e+17,1.3716544344394901e+17,2747238662339612.5,0.0,0.0,0.0,0.0,0.0
592.3485776104003,1.3975601022389094e+17,1.4261233689082678e+17,2856326666936185.0,0.0,0.0,0.0,0.0,0.0
651.6834353714404,1.4503451510900387e+17,1.4799871714427158e+17,2964202035267752.0,0.0,0.0,0.0,0.0,0.0
716.9517789085845,1.5020302450895696e+17,1.5327285327074195e+17,3069828761785018.0,0.0,0.0,0.0,0.0,0.0
788.7469567994431,1.552093354707559e+17,1.5838147552004512e+17,3172140049289226.5,0.0,0.0,0.0,0.0,0.0
867.7216524793874,1.600015786167084e+17,1.6327165455999213e+17,3270075943283769.0,0.0,0.0,0.0,0.0,0.0
954.5938177273263,1.645302791111866e+17,1.6789290455850074e+17,3362625447314012.5,0.0,0.0,0.0,0.0,0.0
1050.153199500059,1.6875053725436896e+17,1.7219940833544256e+17,3448871081073920.5,0.0,0.0,0.0,0.0,0.0
1155.2685194500648,1.7262419440080534e+17,1.761522275378025e+17,3528033136997101.0,0.0,0.0,0.0,0.0,0.0
1270.8953713950714,1.761218201152178e+17,1.7972133039782813e+17,3599510282610825.5,0.0,0.0,0.0,0.0,0.0
1398.0849085345785,1.7922433892119952e+17,1.828872517185372e+17,3662912797337572.5,0.0,0.0,0.0,0.0,0.0
1537.9933993880366,1.819241171891419e+17,1.8564220196642243e+17,3718084777280403.0,0.0,0.0,0.0,0.0,0.0
1691.8927393268402,1.842253584345233e+17,1.879904706425757e+17,3765112208052615.0,0.0,0.0,0.0,0.0,0.0
1861.1820132595244,1.8614371068992208e+17,1.899480256274205e+17,3804314937498772.5,0.0,0.0,0.0,0.0,0.0
2047.400214585477,1.8770506951620605e+17,1.915412917289221e+17,3836222212716280.0,0.0,0.0,0.0,0.0,0.0
2252.2402360440246,1.889436553717267e+17,1.9280518876170573e+17,3861533389979019.0,0.0,0.0,0.0,0.0,0.0
2477.564259648427,1.8989953968129162e+17,1.9378060706128554e+17,3881067379994007.0,0.0,0.0,0.0,0.0,0.0
2725.42068561327,1.9061587205564362e+17,1.9451157804258915e+17,3895705986945254.0,0.0,0.0,0.0,0.0,0.0
2998.062754174597,1.9113610445136973e+17,1.9504244163676547e+17,3906337185395926.0,0.0,0.0,0.0,0.0,0.0
3297.9690295920573,1.9150150483287056e+17,1.9541530914609824e+17,3913804313227622.0,0.0,0.0,0.0,0.0,0.0
3627.8659325512635,1.917492008797742e+17,1.9566806697570502e+17,3918866095930874.5,0.0,0.0,0.0,0.0,0.0
3990.75252580639,1.919109027174674e+17,1.958330732643478e+17,3922170546880174.0,0.0,0.0,0.0,0.0,0.0
4389.927778387029,1.9201234176148554e+17,1.9593658526082723e+17,3924243499341844.0,0.0,0.0,0.0,0.0,0.0
4829.020556225732,1.9201234176148554e+17,1.9593658526082723e+17,3924243499341844.0,0.0,0.0,0.0,0.0,0.0
5312.022611848306,1.9201234176148554e+17,1.9593658526082723e+17,3924243499341844.0,0.0,0.0,0.0,0.0,0.0
5843.324873033137,1.9201234176148554e+17,1.9593658526082723e+17,3924243499341844.0,0.0,0.0,0.0,0.0,0.0
6427.757360336452,1.9201234176148554e+17,1.9593658526082723e+17,3924243499341844.0,0.0,0.0,0.0,0.0,0.0
7070.6330963700975,1.9201234176148554e+17,1.9593658526082723e+17,3924243499341844.0,0.0,0.0,0.0,0.0,0.0
7777.796406007108,1.9201234176148554e+17,1.9593658526082723e+17,3924243499341844.0,0.0,0.0,0.0,0.0,0.0
8555.67604660782,1.9201234176148554e+17,1.9593658526082723e+17,3924243499341844.0,0.0,0.0,0.0,0.0,0.0
9411.343651268602,1.9201234176148554e+17,1.9593658526082723e+17,3924243499341844.0,0.0,0.0,0.0,0.0,0.0
10352.578016395462,1.9201234176148554e+17,1.9593658526082723e+17,3924243499341844.0,0.0,0.0,0.0,0.0,0.0
11387.93581803501,1.9201234176148554e+17,1.9593658526082723e+17,3924243499341844.0,0.0,0.0,0.0,0.0,0.0
12526.829399838512,1.9201234176148554e+17,1.9593658526082723e+17,3924243499341844.0,0.0,0.0,0.0,0.0,0.0
13779.612339822364,1.9201234176148554e+17,1.9593658526082723e+17,3924243499341844.0,0.0,0.0,0.0,0.0,0.0
15157.673573804603,1.9201234176148554e+17,1.9593658526082723e+17,3924243499341844.0,0.0,0.0,0.0,0.0,0.0
16673.540931185064,1.9201234176148554e+17,1.9593658526082723e+17,3924243499341844.0,0.0,0.0,0.0,0.0,0.0
18340.99502430357,1.9201234176148554e+17,1.9593658526082723e+17,3924243499341844.0,0.0,0.0,0.0,0.0,0.0
20175.19452673393,1.9201234176148554e+17,1.9593658526082723e+17,3924243499341844.0,0.0,0.0,0.0,0.0,0.0
22192.813979407325,1.9201234176148554e+17,1.9593658526082723e+17,3924243499341844.0,0.0,0.0,0.0,0.0,0.0
24412.19537734806,1.9201234176148554e+17,1.9593658526082723e+17,3924243499341844.0,0.0,0.0,0.0,0.0,0.0
26853.51491508287,1.9201234176148554e+17,1.9593658526082723e+17,3924243499341844.0,0.0,0.0,0.0,0.0,0.0
29538.966406591157,1.9201234176148554e+17,1.9593658526082723e+17,3924243499341844.0,0.0,0.0,0.0,0.0,0.0
32492.963047250276,1.9201234176148554e+17,1.9593658526082723e+17,3924243499341844.0,0.0,0.0,0.0,0.0,0.0
35742.359351975305,1.9201234176148554e+17,1.9593658526082723e+17,3924243499341844.0,0.0,0.0,0.0,0.0,0.0
39316.695287172835,1.9201234176148554e+17,1.9593658526082723e+17,3924243499341844.0,0.0,0.0,0.0,0.0,0.0
43248.464815890125,1.9201234176148554e+17,1.9593658526082723e+17,3924243499341844.0,0.0,0.0,0.0,0.0,0.0
47573.41129747914,1.9201234176148554e+17,1.9593658526082723e+17,3924243499341844.0,0.0,0.0,0.0,0.0,0.0
52330.85242722706,1.9201234176148554e+17,1.9593658526082723e+17,3924243499341844.0,0.0,0.0,0.0,0.0,0.0
57564.03766994977,1.9201234176148554e+17,1.9593658526082723e+17,3924243499341844.0,0.0,0.0,0.0,0.0,0.0
63320.54143694475,1.9201234176148554e+17,1.9593658526082723e+17,3924243499341844.0,0.0,0.0,0.0,0.0,0.0
69652.69558063924,1.9201234176148554e+17,1.9593658526082723e+17,3924243499341844.0,0.0,0.0,0.0,0.0,0.0
76618.06513870317,1.9201234176148554e+17,1.9593658526082723e+17,3924243499341844.0,0.0,0.0,0.0,0.0,0.0
84279.97165257348,1.9201234176148554e+17,1.9593658526082723e+17,3924243499341844.0,0.0,0.0,0.0,0.0,0.0
92708.06881783083,1.9201234176148554e+17,1.9593658526082723e+17,3924243499341844.0,0.0,0.0,0.0,0.0,0.0
101978.97569961392,1.9201234176148554e+17,1.9593658526082723e+17,3924243499341844.0,0.0,0.0,0.0,0.0,0.0
112176.97326957532,1.9201234176148554e+17,1.9593658526082723e+17,3924243499341844.0,0.0,0.0,0.0,0.0,0.0
123394.77059653286,1.9201234176148554e+17,1.9593658526082723e+17,3924243499341844.0,0.0,0.0,0.0,0.0,0.0
135734.34765618618,1.9201234176148554e+17,1.9593658526082723e+17,3924243499341844.0,0.0,0.0,0.0,0.0,0.0
149307.8824218048,1.9201234176148554e+17,1.9593658526082723e+17,3924243499341844.0,0.0,0.0,0.0,0.0,0.0
164238.77066398528,1.9201234176148554e+17,1.9593658526082723e+17,3924243499341844.0,0.0,0.0,0.0,0.0,0.0
180662.74773038382,1.9201234176148554e+17,1.9593658526082723e+17,3924243499341844.0,0.0,0.0,0.0,0.0,0.0
198729.12250342223,1.9201234176148554e+17,1.9593658526082723e+17,3924243499341844.0,0.0,0.0,0.0,0.0,0.0
218602.13475376446,1.9201234176148554e+17,1.9593658526082723e+17,3924243499341844.0,0.0,0.0,0.0,0.0,0.0
240462.44822914092,1.9201234176148554e+17,1.9593658526082723e+17,3924243499341844.0,0.0,0.0,0.0,0.0,0.0
264508.79305205506,1.9201234176148554e+17,1.9593658526082723e+17,3924243499341844.0,0.0,0.0,0.0,0.0,0.0
290959.7723572606,1.9201234176148554e+17,1.9593658526082723e+17,3924243499341844.0,0.0,0.0,0.0,0.0,0.0
320055.84959298663,1.9201234176148554e+17,1.9593658526082723e+17,3924243499341844.0,0.0,0.0,0.0,0.0,0.0
352061.53455228533,1.9201234176148554e+17,1.9593658526082723e+17,3924243499341844.0,0.0,0.0,0.0,0.0,0.0
387267.7880075139,1.9201234176148554e+17,1.9593658526082723e+17,3924243499341844.0,0.0,0.0,0.0,0.0,0.0
425994.6668082653,1.9201234176148554e+17,1.9593658526082723e+17,3924243499341844.0,0.0,0.0,0.0,0.0,0.0
468594.23348909186,1.9201234176148554e+17,1.9593658526082723e+17,3924243499341844.0,0.0,0.0,0.0,0.0,0.0
515453.7568380011,1.9201234176148554e+17,1.9593658526082723e+17,3924243499341844.0,0.0,0.0,0.0,0.0,0.0
566999.2325218013,1.9201234176148554e+17,1.9593658526082723e+17,3924243499341844.0,0.0,0.0,0.0,0.0,0.0
623699.2557739815,1.9201234176148554e+17,1.9593658526082723e+17,3924243499341844.0,0.0,0.0,0.0,0.0,0.0
686069.2813513797,1.9201234176148554e+17,1.9593658526082723e+17,3924243499341844.0,0.0,0.0,0.0,0.0,0.0
754676.3094865177,1.9201234176148554e+17,1.9593658526082723e+17,3924243499341844.0,0.0,0.0,0.0,0.0,0.0
830144.0404351695,1.9201234176148554e+17,1.9593658526082723e+17,3924243499341844.0,0.0,0.0,0.0,0.0,0.0
913158.5444786865,1.9201234176148554e+17,1.9593658526082723e+17,3924243499341844.0,0.0,0.0,0.0,0.0,0.0
1004474.4989265553,1.9201234176148554e+17,1.9593658526082723e+17,3924243499341844.0,0.0,0.0,0.0,0.0,0.0
1104922.0488192108,1.9201234176148554e+17,1.9593658526082723e+17,3924243499341844.0,0.0,0.0,0.0,0.0,0.0
1215414.3537011321,1.9201234176148554e+17,1.9593658526082723e+17,3924243499341844.0,0.0,0.0,0.0,0.0,0.0
1336955.8890712454,1.9201234176148554e+17,1.9593658526082723e+17,3924243499341844.0,0.0,0.0,0.0,0.0,0.0
1470651.57797837,1.9201234176148554e+17,1.9593658526082723e+17,3924243499341844.0,0.0,0.0,0.0,0.0,0.0
1617716.835776207,1.9201234176148554e+17,1.9593658526082723e+17,3924243499341844.0,0.0,0.0,0.0,0.0,0.0
1779488.619353828,1.9201234176148554e+17,1.9593658526082723e+17,3924243499341844.0,0.0,0.0,0.0,0.0,0.0
1957437.581289211,1.9201234176148554e+17,1.9593658526082723e+17,3924243499341844.0,0.0,0.0,0.0,0.0,0.0
2153181.4394181324,1.9201234176148554e+17,1.9593658526082723e+17,3924243499341844.0,0.0,0.0,0.0,0.0,0.0
2368499.6833599457,1.9201234176148554e+17,1.9593658526082723e+17,3924243499341844.0,0.0,0.0,0.0,0.0,0.0
2605349.7516959403,1.9201234176148554e+17,1.9593658526082723e+17,3924243499341844.0,0.0,0.0,0.0,0.0,0.0
2865884.8268655348,1.9201234176148554e+17,1.9593658526082723e+17,3924243499341844.0,0.0,0.0,0.0,0.0,0.0
3152473.4095520885,1.9201234176148554e+17,1.9593658526082723e+17,3924243499341844.0,0.0,0.0,0.0,0.0,0.0
3467720.8505072976,1.9201234176148554e+17,1.9593658526082723e+17,3924243499341844.0,0.0,0.0,0.0,0.0,0.0
3814493.0355580277,1.9201234176148554e+17,1.9593658526082723e+17,3924243499341844.0,0.0,0.0,0.0,0.0,0.0
4195942.439113831,1.9201234176148554e+17,1.9593658526082723e+17,3924243499341844.0,0.0,0.0,0.0,0.0,0.0
4615536.783025214,1.9201234176148554e+17,1.9593658526082723e+17,3924243499341844.0,0.0,0.0,0.0,0.0,0.0
5077090.561327737,1.9201234176148554e+17,1.9593658526082723e+17,3924243499341844.0,0.0,0.0,0.0,0.0,0.0
5584799.717460511,1.9201234176148554e+17,1.9593658526082723e+17,3924243499341844.0,0.0,0.0,0.0,0.0,0.0
6143279.789206563,1.9201234176148554e+17,1.9593658526082723e+17,3924243499341844.0,0.0,0.0,0.0,0.0,0.0
6757607.868127219,1.9201234176148554e+17,1.9593658526082723e+17,3924243499341844.0,0.0,0.0,0.0,0.0,0.0
7433368.754939942,1.9201234176148554e+17,1.9593658526082723e+17,3924243499341844.0,0.0,0.0,0.0,0.0,0.0
8176705.730433936,1.9201234176148554e+17,1.9593658526082723e+17,3924243499341844.0,0.0,0.0,0.0,0.0,0.0
8994376.40347733,1.9201234176148554e+17,1.9593658526082723e+17,3924243499341844.0,0.0,0.0,0.0,0.0,0.0
9893814.143825063,1.9201234176148554e+17,1.9593658526082723e+17,3924243499341844.0,0.0,0.0,0.0,0.0,0.0
10883195.658207571,1.9201234176148554e+17,1.9593658526082723e+17,3924243499341844.0,0.0,0.0,0.0,0.0,0.0
11971515.32402833,1.9201234176148554e+17,1.9593658526082723e+17,3924243499341844.0,0.0,0.0,0.0,0.0,0.0
13168666.956431163,1.9201234176148554e+17,1.9593658526082723e+17,3924243499341844.0,0.0,0.0,0.0,0.0,0.0
14485533.75207428,1.9201234176148554e+17,1.9593658526082723e+17,3924243499341844.0,0.0,0.0,0.0,0.0,0.0
15934087.22728171,1.9201234176148554e+17,1.9593658526082723e+17,3924243499341844.0,0.0,0.0,0.0,0.0,0.0
17527496.050009884,1.9201234176148554e+17,1.9593658526082723e+17,3924243499341844.0,0.0,0.0,0.0,0.0,0.0
19280245.755010873,1.9201234176148554e+17,1.9593658526082723e+17,3924243499341844.0,0.0,0.0,0.0,0.0,0.0
21208270.430511963,1.9201234176148554e+17,1.9593658526082723e+17,3924243499341844.0,0.0,0.0,0.0,0.0,0.0
23329097.573563162,1.9201234176148554e+17,1.9593658526082723e+17,3924243499341844.0,0.0,0.0,0.0,0.0,0.0
25662007.43091948,1.9201234176148554e+17,1.9593658526082723e+17,3924243499341844.0,0.0,0.0,0.0,0.0,0.0
28228208.27401143,1.9201234176148554e+17,1.9593658526082723e+17,3924243499341844.0,0.0,0.0,0.0,0.0,0.0
31051029.201412573,1.9201234176148554e+17,1.9593658526082723e+17,3924243499341844.0,0.0,0.0,0.0,0.0,0.0
31536000.0,1.9201234176148554e+17,1.9593658526082723e+17,3924243499341844.0,0.0,0.0,0.0,0.0,0.0
