t(s),Total solute volume 1,Total retention volume 1,Total 1 volume 1,Total 2 volume 1,Total 3 volume 1,Total 4 volume 1,Total 5 volume 1,Total 6 volume 1
0.1,1301436301972856.8,2401541677724917.5,422763850992510.6,677341524759550.8,0.0,0.0,0.0,-2.162416271574588e-76
0.202,1945061138881134.5,3624765540094755.5,631841572410228.6,1012320663415408.8,8533571673.752322,28807236356.374786,967960305189.4673,34536864274761.918
0.30604000000000003,2427706343014424.5,4569857471827524.0,788626006078853.5,1263516751962070.2,21514991962.51381,72629909048.04855,2441383168599.6978,87472842702567.8
0.41216080000000005,2828905952052554.5,5379381878283740.0,918953320328961.9,1472323902939389.0,37982731378.50325,128221847831.63753,4310727393882.454,154721770989734.88
0.5204040160000001,3178900285109931.5,6107203960420299.0,1032646904164302.9,1654480907881849.0,57481588598.13181,194046356818.78177,6524268215101.812,234400067103694.84
0.6308120963200001,3492855775294582.5,6780182028802099.0,1134633483589685.8,1817881244401667.5,79744738223.07501,269202682430.2663,9051701067032.416,325410877028483.9
0.7434283382464002,3779630933479157.0,7413930555101167.0,1227790693373536.2,1967135386911908.0,104598539555.46452,353104650646.76025,11873309534457.068,427042528611899.7
0.8582969050113283,4044924149949747.0,8018460613014076.0,1313969621822047.2,2105209102678370.8,131923169873.17982,445347769019.5821,14975490526780.766,538804977098233.1
0.9754628431115548,4292654213438897.0,8600644392516633.0,1394443264219955.2,2234141952785856.0,161633102772.84238,545643324163.0281,18348536186139.098,660349149458848.9
1.094972099973786,4525651573922295.0,9165444647078610.0,1470131075457033.0,2355407064756279.0,193666221008.34778,653781628327.091,21985397136823.44,791422087956846.4
1.2168715419732616,4746038918024676.0,9716589065664018.0,1541722597694155.5,2470109205704399.5,227977221703.04935,769609756449.965,25880933435666.938,931839823826971.6
1.3412089728127268,4955456223566485.0,1.0256967611857504e+16,1609750567999090.2,2579101913561161.5,264533368558.5825,893017206328.2726,30031432141986.27,1081469924013901.6
1.4680331522689813,5155201502398122.0,1.0788880119242428e+16,1674636637821996.0,2683060747671163.5,303311622798.3649,1023926213182.6404,34434281493884.098,1240219712021278.2
1.597393815314361,5346322869447974.0,1.131419769205141e+16,1736721281079838.2,2782531206775195.5,344296630799.6124,1162284956266.3816,39087742385149.086,1408028010776184.0
1.729341691620648,5529681043629842.0,1.1834471897207918e+16,1796284097205619.8,2877961258045975.0,387479268641.26825,1308062645530.6714,43990783091373.56,1584859173320936.0
1.863928525453061,5705993113543124.0,1.2351010971322868e+16,1853558028176559.5,2969724115253690.0,432855562418.07794,1461245876813.185,49142956669954.88,1770698656240305.2
2.001207095962122,5875864003210135.0,1.2864934434820354e+16,1908739579972274.0,3058134615329434.0,480425870132.9399,1621835870070.5576,54544308065083.82,1965549666503227.0
2.1412312378813647,6039809614255207.0,1.3377213135701256e+16,1961996340174417.0,3143461262874461.5,530194250585.0302,1789846338876.5457,60195302447412.2,2169430575360294.8
2.284055862638992,6198274185956644.0,1.388869920056163e+16,2013472617276609.8,3225935265320819.5,582167969038.6967,1965301821668.4968,66096769085727.25,2382372893131120.5
2.4297369798917723,6351643545721762.0,1.4400148832693112e+16,2063293745022660.8,3305757429233761.5,636357104965.9099,2148236357576.6348,72249856809228.52,2604419662443169.0
2.578331719489608,6500255379295400.0,1.4912239937593386e+16,2111569418622893.8,3383103505513711.5,692774237317.9319,2338692423978.6997,78655998273201.52,2835624169226878.5
2.7298983538794,6644407300677022.0,1.5425585940447572e+16,2158396316218837.0,3458128389441047.5,751434189615.2179,2536720075990.8457,85316881016907.6,3076048898828156.0
2.884496320956988,6784363271412521.0,1.594074675499747e+16,2203860184152122.8,3530969461641486.5,812353821844.4775,2742376243971.6914,92234423836245.17,3325764683889297.5
3.0421862473761276,6920358763678550.0,1.6458237590657216e+16,2248037514161782.2,3601749275249377.5,875551859450.2717,2955724156251.6143,99410757368311.14,3584850004183490.0
3.2030299723236504,7052604954818471.0,1.6978536097680358e+16,2290996905954384.0,3670577738983316.5,941048752065.7036,3176832862256.474,106848208052655.06,3853390408257206.0
3.3670905717701234,7181292166241575.0,1.750208821947441e+16,2332800184310022.0,3737553906945290.5,1008866556338.7488,3405776836974.7085,114549284828439.11,4131478033755777.5
3.5344323832055258,7306592706400779.0,1.8029313028318748e+16,2373503322606792.0,3802767458268292.5,1079028838472.8822,3642635651977.1543,122516668070017.75,4419211208482419.0
3.7051210308696363,7428663239137023.0,1.856060675380908e+16,2413157212163398.0,3866299929737725.5,1151560593043.5122,3887493701381.9155,130753200370524.02,4716694118105995.0
3.879223451487029,7547646770539405.0,1.909634616443382e+16,2451808307658880.5,3928225749866657.0,1226488175364.8843,4140439973564.0815,139261878864019.17,5024036529355911.0
4.0568079205167695,7663674326605277.0,1.9636891426484588e+16,2489499172110567.5,3988613112045749.0,1303839245227.5732,4401567861251.526,148045848838707.2,5341353559777778.0
4.237944078927105,7776866378332919.0,2.0182588537399764e+16,2526268939806940.5,4047524716242699.5,1383642720248.3704,4670975004071.43,157108398441586.94,5668765486851299.0
4.422702960505647,7887334059013239.0,2.0733771410128828e+16,2562153711737664.0,4105018402550218.0,1465928737403.3137,4948763158722.724,166452954312270.75,6006397590619289.0
4.61115701971576,7995180209400293.0,2.129076366942976e+16,2597186895110993.0,4161147695152324.5,1550728621573.7288,5235038092824.329,176083078013117.72,6354380025038620.0
4.803380160110075,8100500279418362.0,2.1853880208921356e+16,2631399496267996.0,4215962271624121.5,1638074860140.7817,5529909499183.334,186002463146181.8,6712847714105357.0
4.9994477633122765,8203383109589148.0,2.24234285483025e+16,2664820374524520.5,4269508369631015.5,1728001082828.631,5833490927782.743,196214933066152.03,7081940269481086.0
5.199436718578522,8303911611061353.0,2.2999710022773852e+16,2697476463074789.5,4321829140854891.0,1820542046128.8623,6145899733236.182,206724439113529.78,7461801926889924.0
5.403425452950093,8402163359719253.0,2.3583020830863944e+16,2729392961984029.5,4372964960202044.5,1915733621746.5466,6467257035820.165,217535059304505.7,7852581498996561.0
5.611493962009095,8498211117130967.0,2.4173652962223224e+16,2760593507415436.5,4422953696934384.5,2013612788596.0938,6797687694491.508,228650997423966.9,8254432342835360.0
5.823723841249277,8592123288917504.0,2.477189502322787e+16,2791100320528639.5,4471830953230774.0,2114217627947.352,7137320290540.697,240076582476279.97,8667512340156182.0
6.040198318074262,8683964329362570.0,2.537803297524053e+16,2820934338914796.0,4519630274769065.0,2217587321381.9927,7486287120734.072,251816268455255.53,9091983889296754.0
6.261002284435747,8773795099652264.0,2.5992350797940156e+16,2850115332968632.0,4566383337174426.0,2323762151269.9307,7844724198964.702,263874634400340.44,9528013907394244.0
6.486222330124463,8861673185964549.0,2.6615131088151988e+16,2878662009217913.0,4612120111571258.0,2432783503516.7627,8212771265571.665,276256384710780.16,9975773841918408.0
6.715946776726952,8947653182667783.0,2.7246655602982264e+16,2906592102318834.5,4656869011975821.0,2544693872368.1035,8590571803604.88,288966349693434.44,1.0435439690650404e+16
6.950265712261491,9031786945094316.0,2.7887205754719988e+16,2933922457167965.0,4700657026854043.0,2659536867086.046,8978273061411.592,302009486323275.75,1.090719202935188e+16
7.18927102650672,9114123815697294.0,2.85370630638611e+16,2960669102368016.5,4743509836826366.0,2777357220337.5923,9376026081004.266,315390879198394.4,1.1391216046469698e+16
7.433056447036854,9194710826849970.0,2.919650957568501e+16,2986847316105959.5,4785451920216196.0,2898200798156.273,9783985731741.588,329115741673760.0,1.1887701584309156e+16
7.681717575977592,9273592883088568.0,2.986582824504297e+16,3012471685353510.0,4826506647899263.0,3022114611356.151,10202310748913.941,343189417160015.6,1.2396843186181306e+16
7.935351927497144,9350812925212088.0,3.0545303293371652e+16,3037556159174058.0,4866696368710718.0,3149146828292.8228,10631163776879.037,357617380575353.8,1.2918840149094252e+16
8.194058966047088,9426412078329056.0,3.1235220541398012e+16,3062114096814673.0,4906042486496943.0,3279346788879.5034,11070711416436.39,372405239940049.94,1.3453896581611976e+16
8.45794014536803,9500429785662894.0,3.1935867720543828e+16,3086158311172076.0,4944565529755632.0,3412765019777.8174,11521124276169.81,387558738104506.56,1.4002221466552778e+16
8.72709894827539,9572903929694930.0,3.2647534765645004e+16,3109701108145168.0,4982285214685400.0,3549453250692.785,11982577027520.184,403083754602836.0,1.4564028728238464e+16
9.0016409272409,9643870942022526.0,3.337051409127007e+16,3132754322321822.5,5019220502362242.0,3689464431710.535,12455248463380.684,418986307624985.1,1.5139537304043392e+16
9.281673745785717,9713365903139022.0,3.4105100853636264e+16,3155329349391801.0,5055389650670778.0,3832852751624.5786,12939321560032.146,435272556101271.2,1.5728971220021708e+16
9.567307220701432,9781422633195282.0,3.4851593199879976e+16,3177437175630072.0,5090810261541617.0,3979673657203.498,13434983542259.043,451948801893965.0,1.6332559670419564e+16
9.85865336511546,9848073774674746.0,3.5610292506227984e+16,3199088404753371.5,5125499323980234.0,4129983873358.5605,13942425951506.674,469021492091231.56,1.6950537100903544e+16
10.155826432417769,9913350867805532.0,3.638150360643575e+16,3220293282417350.0,5159473253315777.0,4283841424175.2266,14461844716957.336,486497221399323.5,1.7583143295356638e+16
10.458942961066125,9977284419437786.0,3.7165535011704216e+16,3241061718590915.0,5192747927048598.0,4441305654776.921,14993440229419.924,504382734629464.5,1.823062346611336e+16
10.768121820287448,1.0039903966030702e+16,3.796269912315048e+16,3261403308017316.5,5225338717632519.0,4602437253993.833,15537417417939.773,522684929276302.2,1.889322834752182e+16
11.083484256693197,1.0101238131324464e+16,3.877331243779054e+16,3281327348948400.5,5257260522490354.0,4767298277812.917,16093985829049.549,541410858185262.06,1.9571214292735264e+16
11.405153941827061,1.0161314679206274e+16,3.959769574889201e+16,3300842860317889.5,5288527791528575.0,4935952173588.817,16663359708592.291,560567732306486.2,2.026484337365056e+16
11.733257020663602,1.022016056222718e+16,4.043617434146249e+16,3319958597501809.5,5319154552388188.0,5108463804998.336,17245758086058.273,580162923533379.5,2.0974383483920964e+16
12.067922161076874,1.0277801966176782e+16,4.1289078183565576e+16,3338683066798275.0,5349154433643889.0,5284899477723.525,17841404861385.508,600203967624114.4,2.1700108444983396e+16
12.409280604298411,1.0334264351080716e+16,4.215674211408304e+16,3357024538745282.0,5378540686141614.0,5465326965851.344,18450528894183.484,620698567204673.0,2.2442298115050676e+16
12.75746621638438,1.038957248894837e+16,4.303950602748692e+16,3374991060382884.0,5407326202644469.0,5649815538979.733,19073364095345.094,641654594852333.5,2.3201238501024548e+16
13.112615540712067,1.0443750498565182e+16,4.393771505612997e+16,3392590466555149.5,5435523535940703.0,5838435990021.971,19710149521020.656,663080096258628.6,2.397722187329934e+16
13.474867851526309,1.0496821877593946e+16,4.485171975051553e+16,3409830390338221.5,5463144915551046.0,6031260663702.965,20361129468933.11,684983293471132.2,2.477054688342851e+16
13.844365208556836,1.054880953222474e+16,4.57818762579685e+16,3426718272671802.5,5490202263160185.0,6228363485743.395,21026553577018.094,707372588213522.8,2.558151868463552e+16
14.221252512727972,1.0599735804588238e+16,4.672854650009446e+16,3443261371264276.0,5516707206884258.0,6429819992727.957,21706676924380.32,730256565283610.6,2.6410449055156976e+16
14.605677562982532,1.0649622498128026e+16,4.769209834937627e+16,3459466768834729.5,5542671094476042.0,6635707362656.917,22401760134560.215,753643996029136.2,2.7257656524411052e+16
14.997791114242183,1.0698490901108044e+16,4.867290580523486e+16,3475341380749226.0,5568105005559524.0,6846104446180.137,23112069481110.965,777543841901348.0,2.812346650198944e+16
15.397746936527026,1.0746361808415456e+16,4.9671349169854184e+16,3490891962103264.5,5593019762977394.0,7061091798514.832,23837876995488.14,801965258086442.6,2.9008211409477668e+16
15.805701875257567,1.0793255541803804e+16,5.068781522404375e+16,3506125114297777.0,5617425943326757.0,7280751712049.127,24579460577261.23,826917597215134.4,2.991223081511095e+16
16.221815912762718,1.0839191968708788e+16,5.172269740339811e+16,3521047291151192.5,5641333886751868.0,7505168249634.551,25337104106655.78,852410413150728.9,3.0835871571279316e+16
16.64625223101797,1.0884190519756484e+16,5.277639597499212e+16,3535664804586966.0,5664753706056479.0,7734427278571.7,26111097559442.793,878453464856163.2,3.1779487954898064e+16
17.079177275638333,1.0928270205073208e+16,5.384931821483227e+16,3549983829931701.0,5687695295192341.0,7968616505294.095,26901737124190.793,905056720340611.4,3.2743441810664908e+16
17.5207608211511,1.097144962949679e+16,5.494187858627657e+16,3564010410856438.5,5710168337176104.0,8207825510756.394,27709325321902.86,932230360686355.4,3.3728102697228224e+16
17.97117603757412,1.1013747006779932e+16,5.605449891961626e+16,3577750463990563.5,5732182311481476.0,8452145786533.599,28534171128059.906,959984784156679.6,3.4733848036292932e+16
18.430599558325603,1.1055180172868602e+16,5.7187608593004984e+16,3591209783235193.0,5753746500950125.0,8701670771638.953,29376590097099.023,988330610385692.5,3.5761063264696556e+16
18.899211549492115,1.1095766598331378e+16,5.8341644714911464e+16,3604394043800757.0,5774869998260520.0,8956495890068.863,30236904489351.875,1017278684650998.5,3.681014198948839e+16
19.37719578048196,1.1135523400008536e+16,5.951705230825975e+16,3617308805991162.0,5795561711990877.0,9216718589083.916,31115443400477.28,1046840082230284.0,3.7881486146049224e+16
19.864739696091597,1.1174467351944794e+16,6.071428449641462e+16,3629959518755242.0,5815830372309141.0,9482438378235.863,32012542893418.625,1077026112842951.4,3.8975506159290824e+16
20.36203449001343,1.1212614895663268e+16,6.1933802691165816e+16,3642351523024134.5,5835684536320127.0,9753756869150.283,32928546132923.15,1107848325177908.2,4.009262110797831e+16
20.869275179813698,1.1249982149833836e+16,6.317607678285018e+16,3654490054852054.0,5855132593097491.0,10030777816077.158,33863803522659.473,1139318511508883.0,4.123325889221917e+16
21.38666068340997,1.1286584919384714e+16,6.444158533275492e+16,3666380248376075.5,5874182768425939.0,10313607157219.55,34818672844973.55,1171448712398504.2,4.239785640416748e+16
21.91439389707817,1.13224387041015e+16,6.573081576793265e+16,3678027138609552.5,5892843129276597.0,10602353056853.426,35793519403323.36,1204251221492562.2,4.358685970199218e+16
22.452681775019734,1.1357558706754944e+16,6.704426457855738e+16,3689435664082300.5,5911121588037216.0,10897125948251.0,36788716167436.67,1237738590405940.2,4.480072418716128e+16
23.00173541052013,1.1391959840794644e+16,6.838243751794749e+16,3700610669339894.5,5929025906516413.0,11198038577420.816,37804643921236.1,1271923633701655.5,4.6039914785096216e+16
23.561770118730532,1.1425656737643156e+16,6.974584980537521e+16,3711556907313114.5,5946563699739912.0,11505206047678.277,38841691413578.46,1306819433964645.0,4.730490612925323e+16
24.133005521105144,1.1458663753622324e+16,7.113502633178271e+16,3722279041567900.5,5963742439555369.0,11818745865060.754,39900255511856.56,1342439346971909.8,4.859618274868835e+16
24.715665631527248,1.1490994976540346e+16,7.25505018685183e+16,3732781648445138.0,5980569458060775.0,12138777984602.168,40980741358513.25,1378797006960678.5,4.99142392591681e+16
25.309978944157795,1.1522664231966584e+16,7.3992821279206e+16,3743069219098986.5,5997051950870066.0,12465424857481.953,42083562530520.195,1415906331996316.2,5.125958055788609e+16
25.91617852304095,1.155368508921839e+16,7.546253973486317e+16,3753146161441669.5,6013196980229103.0,12798811479063.957,43209141201872.78,1453781529441817.0,5.2632722021851144e+16
26.53450209350177,1.158407086708232e+16,7.696022293236698e+16,3763016802001983.0,6029011477993312.0,13139065437841.574,44357908309158.46,1492437101530685.8,5.403418971001163e+16
27.165192135371807,1.1613834639290404e+16,7.84864473163872e+16,3772685387704206.0,6044502248477839.0,13486316965305.36,45530303720250.625,1531887851045058.0,5.546452056918423e+16
27.808495978079243,1.1642989239770498e+16,8.00418003048836e+16,3782156087573666.5,6059675971190060.0,13840698986749.9,46726776406189.54,1572148887101075.8,5.692426264385535e+16
28.464665897640828,1.1671547267687644e+16,8.162688051827734e+16,3791432994374380.5,6074539203453530.0,14202347173037.406,47947784616306.76,1613235631043419.0,5.841397528992891e+16
29.133959215593645,1.1699521092292896e+16,8.324229801239781e+16,3800520126184198.0,6089098382931459.0,14571399993335.629,49193796056653.88,1655163822451080.2,5.993422939248827e+16
29.816638399905518,1.1726922857593902e+16,8.488867451531376e+16,3809421427911967.5,6103359830057605.0,14947998768848.375,50465288071797.28,1697949525256436.0,6.148560758765323e+16
30.51297116790363,1.1753764486860798e+16,8.656664366814211e+16,3818140772761272.0,6117329750381378.0,15332287727556.389,51762747830042.73,1741609133979684.5,6.3068704488601384e+16
31.223230591261704,1.1780057686979522e+16,8.827685126994722e+16,3826681963644589.5,6131014236833586.0,15724414059988.49,53086672512151.195,1786159380080939.5,6.4684126915836504e+16
31.947695203086937,1.1805813952664192e+16,9.001995552682654e+16,3835048734551652.5,6144419271918739.0,16124527976041.336,54437569503616.305,1831617338432039.2,6.633249413178025e+16
32.686649107148675,1.1831044570538592e+16,9.179662730528597e+16,3843244751875253.5,6157550729839368.0,16532782762867.81,55815956590564.836,1878000433910409.0,6.801443807976901e+16
33.44038208929165,1.1855760623096396e+16,9.360755039000907e+16,3851273615697769.0,6170414378557041.0,16949334843853.738,57222362159352.516,1925326448117294.5,6.9730603627537384e+16
34.20918973107749,1.18799729925487e+16,9.54534217461192e+16,3859138861040952.0,6183015881794917.0,17374343838703.78,58657325399923.305,1973613526222581.2,7.14816488152735e+16
34.993373525699035,1.1903692364567054e+16,9.733495178604038e+16,3866843959081865.0,6195360800985801.0,17807972624656.383,60121396513001.07,2022880183938726.5,7.326824510832938e+16
35.793240996213015,1.1926929231929146e+16,9.925286464105659e+16,3874392318337135.5,6207454597169578.0,18250387398849.66,61615136921188.38,2073145314626118.8,7.509107765467469e+16
36.60910581613728,1.1949693898073614e+16,1.0120789843767509e+17,3881787285817728.5,6219302632843325.0,18701757741859.004,63139119484043.26,2124428196532374.8,7.695084554718211e+16
37.44128793246003,1.197199648057049e+16,1.032008055788951e+17,3889032148156335.0,6230910173767580.0,19162256682428.402,64693928717209.68,2176748500168049.5,7.884826209083294e+16
38.29011369110923,1.1993846914512814e+16,1.0523235303048763e+17,3896130132709012.0,6242282390731379.0,19632060763417.902,66280161015677.305,2230126295821338.0,8.078405507493392e+16
39.15591596493141,1.2015254955833896e+16,1.073033226123918e+17,3903084408632904.0,6253424361278961.0,20111350108988.754,67898424881244.42,2284582061214323.0,8.275896705044139e+16
40.03903428423004,1.2036230184555772e+16,1.0941451129532974e+17,3909898087941411.0,6264341071400259.0,20600308493050.363,69549341154268.13,2340136689303415.0,8.477375561248173e+16
40.93981496991464,1.205678200797259e+16,1.1156673150275141e+17,3916574226538286.0,6275037417187852.0,21099123408990.914,71233543249774.28,2396811496226616.0,8.682919368816722e+16
41.85861126931294,1.2076919663772882e+16,1.1376081141820966e+17,3923115825231909.0,6285518206461841.0,21607986140715.88,72951677398011.0,2454628229400403.5,8.892606982980384e+16
