t(s),Total solute volume 1,Total retention volume 1,Total 1 volume 1,Total 2 volume 1,Total 3 volume 1,Total 4 volume 1,Total 5 volume 1,Total 6 volume 1
0.1,858476762157242.6,970941579421749.6,55300119698977.766,57164697565528.79,0.0,0.0,0.0,0.0
0.202,1293516536543464.0,1462993651832483.2,83323885458713.97,86133352932413.31,45898349.59424195,78965046.8077939,970491377.8172044,18781543116.827877
0.30604000000000003,1624814347729843.8,1837723716907532.0,104664950771534.12,108193984204994.16,116458110.47218032,200358425.16499892,2462436193.819583,47654948428.07276
0.41216080000000005,1905033457242662.2,2154692105657613.0,122715701830978.89,126853360257863.38,206863921.22213537,355895622.29371876,4374014943.416492,84649551623.0037
0.5204040160000001,2153882397710802.0,2436188343281337.5,138745694514843.64,143423843145848.84,314979098.990563,541900618.8450278,6660048513.040844,128890981611.94893
0.6308120963200001,2381179185201895.0,2693316159552533.5,153387371644526.7,158559200041518.5,439657692.9887846,756401884.6077363,9296306385.966389,179910298626.05725
0.7434283382464002,2592629785214143.0,2932528746756975.5,167008291888786.56,172639382749294.62,580244658.2489858,998272460.3615288,12268938005.809738,237439449625.97934
0.8582969050113283,2791889372864803.0,3157959966514466.5,179843909054711.97,185907783974573.44,736370523.168545,1266876696.9903922,15570131117.43426,301327242047.1162
0.9754628431115548,2981462618853766.0,3372442533968337.5,192055565412575.16,198531186034964.34,907850230.243568,1561896217.6877968,19195972804.904293,371497947782.45746
1.094972099973786,3163153008181683.0,3578016175278881.0,203759435262008.88,210629680329334.22,1094627118.863817,1883233544.087729,23145265036.766792,447928380153.5833
1.2168715419732616,3338309497614849.5,3776206583893285.0,215042413757387.22,222293091893635.2,1296739268.1003435,2230954191.2793,27418813002.17345,530634120949.3719
1.3412089728127268,3507971987834205.5,3968189940986668.0,225971487723239.38,233590666176179.5,1514298025.5667958,2605249728.1516876,32018971115.255913,619660734180.1569
1.4680331522689813,3672962067781955.0,4154895541571738.5,236599581092890.22,244577111569475.47,1747473674.0060012,3006413117.72111,36949339942.95958,715077900682.7952
1.597393815314361,3833942232607770.5,4337072766005197.5,246969369524843.66,255296542645685.47,1996485521.7733562,3434821668.478219,42214556673.83122,816975363038.8253
1.729341691620648,3991455989522530.5,4515336436863562.0,257115863883915.12,265785150746112.03,2261594863.371878,3890924923.4688854,47820146272.515076,925460044951.4296
1.863928525453061,4145955877707656.5,4690198507391793.0,267068215187398.34,276073069785521.25,2543099873.7588277,4375235876.300591,53772413522.81169,1040653961943.5126
2.001207095962122,4297823568892726.0,4862090793730157.0,276851009415128.94,286185714719873.3,2841331847.9395375,4888324501.626378,60078363516.10972,1162692682561.9978
2.1412312378813647,4447384618894897.0,5031381657768410.0,286485217752908.3,296144763829520.25,3156652402.6029196,5430812940.758035,66745642481.67331,1291724183259.7861
2.284055862638992,4594919510201714.0,5198388495456366.0,295988907917701.3,305968894028457.75,3489451382.5477023,6003371899.8251915,73782493519.3497,1427907991685.4104
2.4297369798917723,4740672063248609.0,5363387249323261.0,305377785983193.06,315674340958859.94,3840145294.6595397,6606717955.551503,81197723487.06071,1571414545851.9402
2.578331719489608,4884855942646808.0,5526619766847302.0,314665615490728.7,325275332238505.25,4209176145.33071,7241611564.701048,89000680679.10992,1722425002862.119
2.7298983538794,5027659760867739.0,5688299571196790.0,323864546202545.6,334784427277869.8,4597010586.6847725,7908855557.038184,97201227757.16855,1881129754750.3235
2.884496320956988,5169251128148777.0,5848616443204538.0,332985374995767.8,344212787002480.2,5004139317.971725,8609294162.628633,105809742584.35435,2047729881433.3418
3.0421862473761276,5309779906282547.0,6007740100065378.0,342037755451533.8,353570390487445.75,5431076677.24526,9343812271.355577,114837100618.36275,2222435854304.818
3.2030299723236504,5449380846410547.0,6165823178883410.0,351030367774825.06,362866210611973.94,5878360398.584365,10113335024.735958,124294672016.95796,2405467718621.0874
3.3670905717701234,5588175748322789.0,6323003678802715.0,359971057889109.3,372108357843923.6,6346551502.010758,10918827626.549747,134194319310.58282,2597055048459.955
3.5344323832055258,5726275242842035.0,6479406976894142.0,368866952251408.0,381304198926152.75,6836234295.2914095,11761295345.96057,144548397440.72183,2797436947458.8257
3.7051210308696363,5863780274520165.0,6635147505134135.0,377724553362493.4,390460455607063.44,7348016470.812109,12641783684.200941,155369755808.5012,3006862088457.0005
3.879223451487029,6000783343871594.0,6790330155454670.0,386549819787296.94,399583287359098.25,7882529284.332625,13561378682.130707,166671742054.64938,3225588786644.75
4.0568079205167695,6137369555038437.0,6945051464765991.0,395348233641883.94,408678361141198.44,8440427805.205205,14521207350.744211,178468207350.52283,3453885101956.0605
4.237944078927105,6273617504792726.0,7099400620558612.0,404124857859929.56,417750910596167.6,9022391229.778837,15522438210.385372,190773513025.1689,3692028967317.4834
4.422702960505647,6409600041218760.0,7253460319136991.0,412884385064420.44,426805786570190.5,9629123251.381666,16566281927.303558,203602538388.73297,3940308340049.6904
4.61115701971576,6545384914632892.0,7407307501995610.0,421631179497666.7,435847500456622.44,10261352481.591934,17653992038.448586,216970689640.33496,4199021374256.5454
4.803380160110075,6681035338832918.0,7561013990797638.0,430369313175061.56,444880261568761.44,10919832918.552486,18786865757.203083,230893909770.6827,4468476612465.212
4.9994477633122765,6816610477292873.0,7714647037485604.0,439102597204076.5,453908009514838.4,11605344458.9245,19966244854.19426,245388689387.43518,4748993195123.801
5.199436718578522,6952165866189917.0,7868269802966153.0,447834609034193.0,462934442366747.5,12318693450.753288,21193516608.49379,260472078405.6357,5040901086840.736
5.403425452950093,7087753783991782.0,8021941775371723.0,456568716264461.2,471963041270330.06,13060713285.071796,22470114825.465336,276161698557.267,5344541318476.068
5.611493962009095,7223423575614947.0,8175719136957191.0,465308097524646.75,480997092030589.06,13832265024.521564,23797520918.29909,292475756683.5369,5660266244380.857
5.823723841249277,7359221937784831.0,8329655087131553.0,474055760857162.06,490039704113405.0,14634238067.645458,25177265050.919827,309433058781.4446,5988439814233.795
6.040198318074262,7495193171118293.0,8483800127866983.0,482814559955345.75,499093827431326.9,15467550847.820198,26610927340.491856,327053024782.8099,6329437859052.897
6.261002284435747,7631379403545023.0,8638202316707218.0,491587208555505.25,508162267220887.0,16333151566.05824,28100139118.19605,345355704049.4926,6683648391067.125
6.486222330124463,7767820788948937.0,8792907491763488.0,500376293232709.9,517247697269821.5,17232018957.132294,29646584247.338184,364361791573.1997,7051471917223.903
6.715946776726952,7904555684305195.0,8947959472403562.0,509184284811347.44,526352671712376.1,18165163088.66341,31252000498.1717,384092644872.3455,7433321766185.861
6.950265712261491,8041620808090611.0,9103400238775094.0,518013548569378.06,535479635577610.06,19133626192.977783,32918180979.09831,404570301581.80176,7829624428737.011
7.18927102650672,8179051382331582.0,9259270092836804.0,526866353388579.25,544630934248169.56,20138483531.677094,34646975624.153114,425817497734.3951,8240819911575.894
7.433056447036854,8316881260310323.0,9415607803183560.0,535744879980927.94,553808821964041.44,21180844292.991337,36440292736.89206,447857686735.6001,8667362104523.388
7.681717575977592,8455143041661636.0,9572450735624454.0,544651228302758.06,563015469486694.6,22261852522.089123,38300100590.98365,470715059035.14197,9109719161217.877
7.935351927497144,8593868176352507.0,9729834971201264.0,553587424252746.5,572252971022909.4,23382688084.618774,40228429087.97425,494414562501.27893,9568373893408.27
8.194058966047088,8733087058831583.0,9887795413103988.0,562555425736716.75,581523350494068.9,24544567663.837135,42227371472.84221,518981923505.3161,10043824178992.246
8.45794014536803,8872829113464854.0,1.0046365883745754e+16,571557128171106.8,590828567225185.6,25748745791.761513,44299086108.089424,544443668725.56244,10536583383976.83
8.72709894827539,9013122872227122.0,1.0205579213093434e+16,580594369487576.5,600170521118256.2,26996515914.849453,46445798307.2395,570827147681.4009,11047180798568.58
9.0016409272409,9153996045493666.0,1.0365467319210394e+16,589668934693179.6,609551057366189.0,28289211494.776806,48669802228.72281,598160556009.5383,11576162087626.588
9.281673745785717,9295475586671438.0,1.0526061281846792e+16,598782560033664.0,618971970756484.6,29628207144.942387,50973462831.23132,626472959495.7255,12124089755735.262
9.567307220701432,9437587751316050.0,1.0687391409809136e+16,607936936801606.2,628435009607760.6,31014919803.38505,53359217891.72137,655794318876.4304,12691543627177.723
9.85865336511546,9580358151303884.0,1.0849487302753406e+16,617133714825972.6,637941879376980.6,32450809942.848827,55829580087.332016,686155515426.0692,13279121341110.783
10.155826432417769,9723811804559590.0,1.1012377907967326e+16,626374505675408.1,647494245970747.2,33937382818.783142,58387139142.57271,717588377346.3782,13887438862264.057
10.458942961066125,9867973180781444.0,1.1176091572643478e+16,635660885603694.4,657093738790074.5,35476189756.11174,61034564043.21299,750125706975.6047,14517131007503.088
10.768121820287448,1.001286624355537e+16,1.1340656092084938e+16,644994398262603.6,666741953534706.8,37068829475.6484,63774605318.38697,783801308836.0533,15168851988617.318
11.083484256693197,1.0158514489205366e+16,1.1506098754237088e+16,654376557204494.0,676440454790107.2,38716949461.08068,66610097392.49929,818650018539.5073,15843275971709.1
11.405153941827061,1.0304940982687674e+16,1.1672446380894284e+16,663808848194502.4,686190778417593.8,40422247367.48858,69543961008.59106,854707732570.9279,16541097653579.422
11.733257020663602,1.0452168390804284e+16,1.183972536589306e+16,673292731350043.4,695994433765992.1,42186472472.40226,72579205724.89836,892011438971.6842,17263032855521.266
12.067922161076874,1.0600219012980558e+16,1.2007961710568568e+16,682829643123377.6,705852905721048.4,44011427170.445564,75718932486.40419,930599248944.4948,18009819134949.562
12.409280604298411,1.074911480982546e+16,1.2177181056723562e+16,692420998141388.9,715767656607234.6,45898968512.653305,78966336273.25243,970510429402.9934,18782216415311.88
12.75746621638438,1.0898877429671696e+16,1.234740871733177e+16,702068190915204.9,725740127955007.1,47851009791.587776,82324708827.96216,1011785436489.8053,19581007634741.31
13.112615540712067,1.1049528233271308e+16,1.2518669705175198e+16,711772597430988.2,735771742145254.9,49869522173.42037,85797441463.4526,1054465950087.7701,20406999413928.367
13.474867851526309,1.1201088316804914e+16,1.2690988759595844e+16,721535576632114.4,745863903941436.8,51956536378.18397,89388027953.94551,1098594909349.7716,21261022743704.934
13.844365208556836,1.135357853334734e+16,1.2864390371522278e+16,731358471801934.0,756018001918964.4,54114144409.44051,93100067510.8923,1144216549273.5261,22143933692849.754
14.221252512727972,1.1507019512918142e+16,1.3038898806917974e+16,741242611855334.1,766235409800327.4,56344501334.64686,96937267846.13171,1191376438348.4702,23056614136641.023
14.605677562982532,1.1661431681233124e+16,1.3214538128782988e+16,751189312546664.8,776517487703731.8,58649827117.54254,100903448324.55475,1240121517302.7063,23999972506696.043
14.997791114242183,1.1816835277261726e+16,1.3391332217827988e+16,761199877600707.8,786865583312214.4,61032408503.9223,105002543208.62387,1290500138978.838,24974944562657.715
15.397746936527026,1.1973250369685282e+16,1.35693047919294e+16,771275599772882.6,797281032969587.5,63494600962.195564,109238604997.15863,1342562109368.402,25982494186299.895
15.805701875257567,1.2130696872342934e+16,1.3748479424463106e+16,781417761844195.5,807765162708941.1,66038830680.17644,113615807860.86963,1396358729835.3232,27023614198642.926
16.221815912762718,1.2289194558742538e+16,1.3928879561606508e+16,791627637556004.4,818319289218918.2,68667596619.58679,118138451177.19597,1451942840559.8174,28099327200686.066
16.64625223101797,1.244876307570866e+16,1.411052853868974e+16,801906492489159.6,828944720752510.9,71383472629.79681,122810963167.06453,1509368865234.9934,29210686438379.695
17.079177275638333,1.2609421956231906e+16,1.4293449595670092e+16,812255584891719.8,839642757982666.8,74189109622.36745,127637904636.26889,1568692857049.1868,30358776692478.684
17.5207608211511,1.2771190631578394e+16,1.4477665891796598e+16,822676166459001.6,850414694808658.0,77087237808.00313,132623972824.22783,1629972545988.0066,31544715193932.605
17.97117603757412,1.2934088442713194e+16,1.466320051952673e+16,833169483069442.1,861261819116743.1,80080668997.55887,137774005362.96164,1693267387491.0547,32769652565488.207
18.430599558325603,1.3098134651086608e+16,1.4850076517750436e+16,843736775479408.5,872185413498406.0,83172298968.79645,143092984349.19232,1758638612498.825,34034773790194.24
18.899211549492115,1.3263348448827138e+16,1.5038316884372918e+16,854379279979795.8,883186755929095.9,86365109900.61281,148586040532.5451,1826149278926.617,35341299207516.63
19.37719578048196,1.3429748968381924e+16,1.522794458830199e+16,865098229017026.9,894267120410163.0,89662172876.52061,154258457622.89886,1895864324602.7249,36690485537788.484
19.864739696091597,1.3597355291640476e+16,1.5418982580882326e+16,875894851780785.1,905427777576410.9,93066650459.1864,160115676720.00812,1967850621709.392,38083626935736.266
20.36203449001343,1.3766186458574852e+16,1.5611453806813646e+16,886770374760566.9,916669995271409.8,96581799337.87987,166163300868.57635,2042177032765.5303,39522056073838.93
20.869275179813698,1.3936261475425018e+16,1.5805381214587834e+16,897726022272967.9,927995039092562.8,100210973050.72702,172407099742.03555,2118914468191.2664,41007145256292.6
21.38666068340997,1.4107599322455398e+16,1.6000787766473426e+16,908763016961325.0,939404172907600.9,103957624783.6846,178853014458.3436,2198135945494.9844,42540307564368.055
21.91439389707817,1.428021896130474e+16,1.619769644807478e+16,919882580269174.2,950898659343993.8,107825310248.20161,185507162531.1705,2279916650124.271,44122998033960.96
22.452681775019734,1.4454139341948272e+16,1.6396130277487312e+16,931085932888729.4,962479760252555.1,111817690639.55174,192375842959.8905,2364333998022.7656,45756714866149.2
23.00173541052013,1.4629379409287198e+16,1.6596112314067418e+16,942374295185352.8,974148737146228.4,115938535677.84998,199465541461.8491,2451467699935.603,47443000671577.59
23.561770118730532,1.4805958109377362e+16,1.6797665666830584e+16,953748887598780.8,985906851614835.5,120191726733.78616,206782935850.3965,2541399827506.2173,49183443749502.85
24.133005521105144,1.4983894395304154e+16,1.7000813502487176e+16,965210931021569.4,997755365716286.8,124581260041.11574,214334901562.20697,2634214881207.907,50979679402332.75
24.715665631527248,1.5163207232707442e+16,1.7205579053120902e+16,976761647154987.0,1009695542344468.9,129111249997.9592,222128517337.40237,2729999860153.2915,52833391286495.35
25.309978944157795,1.534391560495456e+16,1.7411985623508464e+16,988402258842254.2,1021728645573723.6,133785932558.94592,230171071055.994,2828844333824.919,54746312800474.66
25.91617852304095,1.552603851795579e+16,1.7620056598075028e+16,1000133990378716.8,1033855940979474.9,138609668720.2198,238470065734.1158,2930840515769.577,56720228510833.195
26.53450209350177,1.5709595004609434e+16,1.782981544747202e+16,1011958067798206.0,1046078695934251.5,143586948099.2951,247033225683.45493,3036083339298.309,58756975617035.98
27.165192135371807,1.5894604128859494e+16,1.8041285734758284e+16,1023875719134399.5,1058398179877852.8,148722392611.68762,255868502837.21674,3144670535233.0703,60858445455862.33
27.808495978079243,1.6081084989340614e+16,1.8254491121157744e+16,1035888174655635.9,1070815664560080.8,154020760246.18478,264984083245.8062,3256702711739.055,63026585046165.92
28.464665897640828,1.6269056722579524e+16,1.8469455371358216e+16,1047996667071119.6,1083332424253906.0,159486948940.50815,274388393745.27148,3372283436280.302,65263398674702.78
29.133959215593645,1.645853850571291e+16,1.8686202358308176e+16,1060202431706014.5,1095949735936450.6,165126000559.02203,284090108801.3267,3491519319732.939,67570949523696.47
29.816638399905518,1.6649549558674306e+16,1.890475606745718e+16,1072506706642306.8,1108668879434613.5,170943104973.96045,294098157531.51276,3614520102687.7573,69951361340747.734
30.51297116790363,1.6842109145793598e+16,1.912514060037774e+16,1084910732821837.9,1121491137531571.0,176943604251.4885,304421730907.75037,3741398743969.66,72406820151624.23
31.223230591261704,1.7036236576742822e+16,1.934738017769368e+16,1097415754107237.1,1134417796029765.0,183132996943.68115,315070289141.1471,3872271511396.851,74939576016369.56
31.947695203086937,1.723195120675271e+16,1.957149914122948e+16,1110023017295864.8,1147450143765310.5,189516942487.23807,326053569250.48126,4007258074797.3535,77551944829069.61
32.686649107148675,1.7429272436013436e+16,1.9797521955284036e+16,1122733772081210.5,1160589472568096.5,196101265709.46512,337381592815.2618,4146481601293.832,80246310161488.52
33.44038208929165,1.7628219708163278e+16,2.0025473206918844e+16,1135549270955540.8,1173837077161156.0,202891961441.6994,349064673913.6817,4290068852860.508,83025125150649.66
34.20918973107749,1.78288125077573e+16,2.025537760513912e+16,1148470769046833.8,1187194254992097.0,209895199239.95084,361113427245.0705,4438150286147.625,85890914430262.83
34.993373525699035,1.8031070356597944e+16,2.0487259978834104e+16,1161499523882419.8,1200662305988763.5,217117328212.10413,373538776435.7252,4590860154559.237,88846276105732.45
35.793240996213015,1.823501280879884e+16,2.0721145273329628e+16,1174636795070992.0,1214242532230547.2,224564881950.5079,386351962526.0957,4748336612559.892,91893883772265.31
36.60910581613728,1.8440659444441996e+16,2.095705854539583e+16,1187883843894055.2,1227936237526026.8,232244583568.24393,399564552636.3858,4910721822173.809,95036488575374.02
37.44128793246003,1.8648029861680776e+16,2.1195024956539148e+16,1201241932797169.8,1241744726887099.8,240163350836.73776,413188448806.5749,5078162061627.392,98276921312826.08
38.29011369110923,1.8857143667128624e+16,2.1435069764399896e+16,1214712324770900.2,1255669305889027.0,248328301421.72256,427235897005.68146,5250807836071.776,101618094576808.84
39.15591596493141,1.906802046437e+16,2.1677218312065644e+16,1228296282610662.5,1269711279905330.0,256746758213.84827,441719496303.93005,5428813990307.071,105063004934797.48
40.03903428423004,1.9280679840418384e+16,2.192149601510256e+16,1241995068044436.2,1283871953206094.8,265426254749.43808,456652208200.0535,5612339823413.248,108614735147280.03
40.93981496991464,1.949514134994444e+16,2.216792834610116e+16,1255809940716787.0,1298152627907738.2,274374540716.08673,472047366094.633,5801549205175.381,112276456420173.88
41.85861126931294,1.9711424497091856e+16,2.24165408165275e+16,1269742157017489.5,1312554602762127.8,283599587536.89294,487918684898.7792,5996610694172.315,116051430689391.39
42.7957834946992,1.992954871469626e+16,2.2667358955668836e+16,1283792968742909.5,1327079171772843.0,293109594026.22174,504280270765.94073,6197697657378.277,119943012934642.66
43.751699164593184,2.014953334072403e+16,2.2920408286461856e+16,1297963621578251.2,1341727622626239.2,302912992108.8957,521146630932.9122,6404988391106.305,123954653519175.28
44.72673314788505,2.037139759174886e+16,2.3175714297994236e+16,1312255353389013.2,1356501234925281.0,313018452593.73535,538532683654.4143,6618666243101.581,128089900551716.33
