t(s),Total solute volume 1,Total retention volume 1,Total 1 volume 1,Total 2 volume 1,Total 3 volume 1,Total 4 volume 1,Total 5 volume 1,Total 6 volume 1
0.1,1225891390677807.5,1918426285810987.5,281662698191601.44,410872196941578.9,0.0,0.0,0.0,0.0
0.202,1838564393610912.5,2893589331322609.0,422431398922246.4,616216939829644.0,6180112387.238128,18060629802.61059,490626463962.58746,15861731753656.611
0.30604000000000003,2301092169302750.5,3642486203875145.0,528702496852363.1,771238684612758.0,15624202903.829891,45659987294.314125,1240518346548.5007,40151050570523.734
0.41216080000000005,2688457520191134.0,4280641865246105.5,617704159436432.9,901068837418228.5,27655953608.069046,80821555278.15207,2195911520649.0847,71106959170773.25
0.5204040160000001,3028970776888569.5,4851526385677141.0,695941012287119.6,1015195947398911.9,41962725139.51531,122631676669.38065,3331972399165.94,107922082301565.92
0.6308120963200001,3336780787602740.0,5376808226497970.0,766663916718326.6,1118362171422687.5,58366649699.931404,170570555049.25076,4634574707294.422,150137838842165.28
0.7434283382464002,3620126911337343.0,5869085304112388.0,831765960621847.5,1213329029780758.8,76756413829.44853,224312893492.65894,6094878588718.499,197467454476402.75
0.8582969050113283,3884293813443719.0,6336433944512249.0,892461356892765.5,1301867741608213.5,97059121113.0174,283645665531.2122,7707095397108.692,249723232383800.4
0.9754628431115548,4132905012849320.0,6784396094016170.0,949582650849449.1,1385192772829655.2,119226371348.01053,348427432756.7372,9467381976336.965,306780621707312.94
1.094972099973786,4368569654632580.0,7216970841823909.0,1003729323703501.2,1464178609775151.2,143226513564.49966,418565705009.46606,11373225365659.07,368558236128443.4
1.2168715419732616,4593238131131888.0,7637158475617554.0,1055349500616942.8,1539478949873990.2,169039962793.68442,494003254101.2291,13423070854663.389,435005779923174.06
1.3412089728127268,4808412127564620.0,8047281175888100.0,1104788211109026.1,1611597100970287.0,196656189210.00574,574709314896.9734,15616082865749.396,506096287874307.25
1.4680331522689813,5015275829597798.0,8449182945491583.0,1152317535510878.2,1680929957117961.2,226071688081.96716,660673652716.83,17951983734157.87,581820894189978.1
1.597393815314361,5214781661624743.0,8844360002385083.0,1198156304324693.2,1747796734794899.5,257288558166.85016,751902408856.7703,20430940810484.707,662185169863240.0
1.729341691620648,5407708429445898.0,9234049038043366.0,1242483457176076.5,1812458460121316.5,290313475006.94855,848415100170.388,23053484925609.242,747206477799311.1
1.863928525453061,5594701993506092.0,9619288845214958.0,1285447387960020.0,1875131600984075.2,325156930251.71704,950242396085.2886,25820449982653.73,836912013455777.2
2.001207095962122,5776304483366056.0,1.000096450537805e+16,1327172657203063.8,1935997858617865.8,361832655872.75256,1057424435950.6483,28732927232447.06,931337321866781.4
2.1412312378813647,5952975764650641.0,1.0379839802898246e+16,1367764924342548.0,1995211362510901.5,400357180346.62256,1170009532047.943,31792230029292.31,1030525154652464.9
2.284055862638992,6125109528675419.0,1.0756581480400702e+16,1407314644504147.5,2052904063036608.5,440749481217.8773,1288053154263.5173,34999866240765.87,1134524575308283.8
2.4297369798917723,6293045563479496.0,1.1131777709304368e+16,1445899887913321.2,2109189844237682.8,483030709477.08057,1411617124633.7925,38357516360671.12,1243390249479070.5
2.578331719489608,6457079257966754.0,1.1505952375208684e+16,1483588523581526.5,2164167709253255.2,527223968404.9818,1540768971062.8804,41867015947375.17,1357181875520315.2
2.7298983538794,6617469065014787.0,1.187957628079894e+16,1520439934041675.8,2217924281669500.0,573354134381.3397,1675581403678.261,45530341394716.92,1475963723140204.5
2.884496320956988,6774442434721048.0,1.2253076041822362e+16,1556506378579958.8,2270535794118362.5,621447710487.6329,1816131887023.9922,49349598307198.16,1599804256498276.5
3.0421862473761276,6928200584322977.0,1.262684123156105e+16,1591834089180048.2,2322069686973597.5,671532706068.3127,1962502288115.9,53327011936630.0,1728775824153597.2
3.2030299723236504,7078922371930525.0,1.300123017811017e+16,1626464160557903.8,2372585906678797.0,723638537082.5602,2114778585255.7417,57464919269825.58,1862954402550765.2
3.3670905717701234,7226767471655507.0,1.3376574713141528e+16,1660433279684387.2,2422137969930057.0,777795943288.4791,2273050626037.289,61765762453011.48,2002419382849232.2
3.5344323832055258,7371878998250900.0,1.3753184095783782e+16,1693774328826456.0,2470773843355453.5,834036919192.7256,2437411925581.5156,66232083309401.95,2147253393196805.2
3.7051210308696363,7514385693658003.0,1.4131348281127236e+16,1726516887931613.2,2518536676362538.0,892394656363.7638,2607959497981.7485,70866518759200.92,2297542150261537.5
3.879223451487029,7654403761720979.0,1.451134066329361e+16,1758687656174782.2,2565465416064989.0,952903495209.5483,2784793715408.7524,75671796991210.22,2453374335131029.5
4.0568079205167695,7792038417957430.0,1.4893420393718472e+16,1790310808035953.8,2611595326706817.0,1015598884704.5908,2968018190448.1367,80650734265737.62,2614841489677369.5
4.237944078927105,7927385206751803.0,1.527783435335719e+16,1821408295940614.8,2656958431135549.0,1080517348847.9678,3157739678109.4595,85806232252039.19,2782037930250225.5
4.422702960505647,8060531127334395.0,1.5664818840919804e+16,1852000108966404.5,2701583888187635.0,1147696458865.1504,3354067994622.209,91141275821915.48,2955060676155970.0
4.61115701971576,8191555601487218.0,1.6054601026544568e+16,1882104495184722.5,2745498317026705.0,1217174810348.3906,3557115950665.6025,96658931235510.5,3134009390849375.0
4.803380160110075,8320531309413619.0,1.6447400210525118e+16,1911738153711426.8,2788726077295292.5,1288992004674.74,3766999297100.521,102362344666831.97,3318986334136187.5
4.9994477633122765,8447524915140578.0,1.6843428919081858e+16,1940916401376378.8,2831289512242111.0,1363188634156.03,3983836681609.276,108254741025664.0,3510096323981373.0
5.199436718578522,8572597698843160.0,1.7242893863186476e+16,1969653318007301.0,2873209160653249.0,1439806270468.0667,4207749614919.8105,114339423039915.16,3707446706757456.0
5.403425452950093,8695806110331302.0,1.7645996781721458e+16,1997961873599729.2,2914503942359856.5,1518887455981.3384,4438862445510.99,120619770568417.39,3911147334960661.0
5.611493962009095,8817202255428851.0,1.8052935186490388e+16,2025854040068255.5,2955191321253956.0,1600475697677.0676,4677302341874.738,127099240119065.2,4121310551580688.0
5.823723841249277,8936834324962230.0,1.846390302357855e+16,2053340889811593.0,2995287449069127.5,1684615463382.5945,4923199281557.88,133781364551175.11,4338051180439480.0
6.040198318074262,9054746974449986.0,1.887909126313053e+16,2080432682950647.8,3034807292638036.5,1771352180101.623,5176686046327.801,140669752944241.86,4561486521921223.0
6.261002284435747,9170981661264732.0,1.9298688427635732e+16,2107138944795367.8,3073764746896304.5,1860732234249.2278,5437898222906.244,147768090618001.06,4791736353604170.0
6.486222330124463,9285576944961506.0,1.972288106720374e+16,2133468534848645.2,3112172735541165.0,1952802973630.2368,5706974208799.92,155080139290974.8,5028922935379019.0
6.715946776726952,9398568755580682.0,2.015185418898936e+16,2159429708452016.0,3150043300956414.5,2047612711023.36,5984055222825.631,162609737366592.88,5273171018699847.0
6.950265712261491,9509990634004534.0,2.058579164683824e+16,2185030172010366.2,3187387684770784.5,2145210729253.897,6269285319987.739,170360800337562.1,5524607859665713.0
7.18927102650672,9619873947840476.0,2.1024876496321292e+16,2210277132593555.5,3224216400213817.0,2245647287654.445,6562811410413.903,178337321300527.12,5783363235674834.0
7.433056447036854,9728248085800022.0,2.146929131957767e+16,2235177342597274.0,3260539297264310.5,2348973629827.7534,6864783282098.577,186543371574186.12,6049569465429917.0
7.681717575977592,9835140633121274.0,2.1919218523754964e+16,2259737140048367.0,3296365621445256.5,2455241992637.8496,7175353627238.193,194983101415012.3,6323361432105190.0
7.935351927497144,9940577530228162.0,2.237484061631293e+16,2283962485058657.5,3331704067000458.0,2564505616366.107,7494678071973.064,203660740825544.38,6604876609511804.0
8.194058966047088,1.0044583216521982e+16,2.2836340460010788e+16,2307858992862637.0,3366562825087871.5,2676818755977.6655,7822915209377.013,212580600450929.72,6894255091122012.0
8.45794014536803,1.0147180760946808e+16,2.3303901510023944e+16,2331431963816443.0,3400949627540264.5,2792236693451.435,8160226635557.486,221747072559991.03,7191639621831441.0
8.72709894827539,1.0248391980757366e+16,2.377770803531856e+16,2354686410686138.0,3434871786671680.0,2910815751133.3267,8506776988748.697,231164632107630.78,7497175632355914.0
9.0016409272409,1.0348237549734368e+16,2.4257945326140252e+16,2377627083511437.0,3468336231547099.5,3032613306078.018,8862733991296.705,240837837875816.34,7811011276174176.0
9.281673745785717,1.0446737096936248e+16,2.4744799889241776e+16,2400258492294994.0,3501349541080248.5,3157687805349.5093,9228268494449.002,250771333690785.22,8133297468939662.0
9.567307220701432,1.0543909296941966e+16,2.52384596322771e+16,2422584927736840.0,3533917974279601.0,3286098782254.7793,9603554525874.473,260969849714444.06,8464187930296154.0
9.85865336511546,1.0639771952425132e+16,2.57391140386182e+16,2444610480206645.5,3566047497924070.0,3417906873488.776,9988769339849.44,271438203808223.03,8803839228040823.0
10.155826432417769,1.0734342069799468e+16,2.6246954333702396e+16,2466339057124207.0,3597743811916498.0,3553173837171.866,10384093470055.383,282181302967905.44,9152410824587120.0
10.458942961066125,1.082763592859038e+16,2.6762173643894176e+16,2487774398898294.5,3629012372534335.5,3691962571763.769,10789710784941.484,293204144828163.2,9510065125686302.0
10.768121820287448,1.0919669145112032e+16,2.7284967148731476e+16,2508920093557278.0,3659858413771868.0,3834337135840.5156,11205808545612.688,304511819235725.06,9876967531373140.0
11.083484256693197,1.1010456730966038e+16,2.7815532227334576e+16,2529779590189810.5,3690286966946642.0,3980362768722.824,11632577466209.979,316109509890282.4,1.0253286489106818e+16
11.405153941827061,1.1100013146819658e+16,2.8354068599667932e+16,2550356211301015.5,3720302878723985.5,4130105911946.399,12070211776754.592,328002496052354.06,1.0639193549082204e+16
11.733257020663602,1.1188352351873702e+16,2.8900778463277692e+16,2570653164178324.0,3749910827696674.0,4283634231565.9976,12518909288433.373,340196154317508.75,1.1034863421691448e+16
12.067922161076874,1.1275487849386002e+16,2.9455866626058056e+16,2590673551350990.5,3779115339642726.5,4441016641286.908,12978871461305.727,352695960456392.0,1.1440474037119386e+16
12.409280604298411,1.1361432728579514e+16,3.0019540635550096e+16,2610420380218967.5,3807920801571415.5,4602323326418.259,13450303474417.338,365507491320177.7,1.1856206607059168e+16
12.75746621638438,1.1446199703230014e+16,3.059201090522106e+16,2629896571918917.0,3836331474656367.0,4767625768644.1875,13933414298307.873,378636426811085.8,1.228224568853772e+16
13.112615540712067,1.152980114719965e+16,3.117349083813538e+16,2649104969488380.0,3864351506145065.0,4936996771609.343,14428416769904.055,392088551917735.25,1.271877924984302e+16
13.474867851526309,1.1612249127156406e+16,3.176419694838458e+16,2668048345383509.0,3891984940325179.5,5110510487316.731,14935527669790.74,405869758815134.0,1.3165998738547244e+16
13.844365208556836,1.169355543269695e+16,3.2364348980614536e+16,2686729408400120.0,3919235728620620.5,5288242443336.021,15454967801856.156,419986049029206.7,1.3624099151622508e+16
14.221252512727972,1.1773731604069932e+16,3.2974170027955412e+16,2705150810043444.0,3946107738883293.0,5470269570821.384,15986962075308.605,434443535665771.5,1.4093279107646854e+16
14.605677562982532,1.1852788957678964e+16,3.3593886648633924e+16,2723315150387736.5,3972604763940764.0,5656670233339.139,16531739589064.055,449248445703988.8,1.457374092110007e+16
14.997791114242183,1.1930738609528386e+16,3.422372898152632e+16,2741224983463183.5,3998730529454377.5,5847524256504.701,17089533718506.268,464407122354270.6,1.5065690678751142e+16
15.397746936527026,1.2007591496760832e+16,3.486393086088599e+16,2758882822204478.5,4024488701137853.5,6042912958430.45,17660582204621.484,479926027480767.7,1.5569338318139004e+16
15.805701875257567,1.2083358397423056e+16,3.55147299304634e+16,2776291142992130.0,4049882891381975.0,6242919180985.48,18245127245512.527,495811744088516.1,1.6084897708151282e+16
16.221815912762718,1.2158049948584576e+16,3.617636775721975e+16,2793452389815554.5,4074916665327349.0,6447627321869.013,18843415590297.28,512070978875419.6,1.6612586731704692e+16
16.64625223101797,1.2231676662924284e+16,3.684908994481852e+16,2810368978083981.0,4099593546423600.0,6657123367499.729,19455698635398.297,528710564849228.25,1.7152627370534576e+16
17.079177275638333,1.230424894389065e+16,3.7533146247069704e+16,2827043298109667.0,4123917021510440.5,6871494926723.815,20082232523232.02,545737464009740.0,1.770524579209929e+16
17.5207608211511,1.2375777099532836e+16,3.822879068148525e+16,2843477718285803.5,4147890545453363.0,7090831265344.2295,20723278243305.566,563158770096476.0,1.8270672438608148e+16
17.97117603757412,1.2446271355092952e+16,3.8936281643097576e+16,2859674587979672.5,4171517545364105.0,7315223341475.182,21379101735732.15,580981711402084.2,1.8849142118181584e+16
18.430599558325603,1.2515741864442952e+16,3.965588201868124e+16,2875636240160452.0,4194801424433836.0,7544763841724.868,22049973997175.76,599213653651812.2,1.944089409815327e+16
18.899211549492115,1.2584198720443466e+16,4.0387859301509816e+16,2891364993779312.5,4217745565405092.5,7779547218211.02,22736171189237.145,617862102949329.9,2.0046172200525284e+16
19.37719578048196,1.2651651964296878e+16,4.113248570677377e+16,2906863155918285.0,4240353333706512.0,8019669726413.412,23437974749294.7,636934708789296.9,2.066522489958701e+16
19.864739696091597,1.2718111593961358e+16,4.189003828777415e+16,2922133023723564.5,4262628080272937.5,8265229463868.046,24155671503814.1,656439267137062.2,2.129830542171156e+16
20.36203449001343,1.2783587571688634e+16,4.2660799053009176e+16,2937176886137397.0,4284573144071758.5,8516326409708.144,24889553784141.58,676383723575882.5,2.1945671847341704e+16
20.869275179813698,1.284808983074385e+16,4.3445055084253176e+16,2951997025442012.5,4306191854355230.5,8773062465057.404,25639919544797.91,696776176522127.1,2.2607587215180124e+16
21.38666068340997,1.2911628281362438e+16,4.4243098655734056e+16,2966595718628296.5,4327487532656874.0,9035541494281.084,26407072484289.176,717624880508904.0,2.3284319628598972e+16
21.91439389707817,1.2974212815995014e+16,4.505522735450445e+16,2980975238600896.0,4348463494549477.5,9303869367101.21,27191322168453.168,738938249538650.0,2.397614236428477e+16
22.452681775019734,1.3035853313888784e+16,4.588174420209798e+16,2995137855230777.5,4369123051180526.0,9578154001582.156,27992984156360.895,760724860505164.6,2.4683333983134856e+16
23.00173541052013,1.3096559645050202e+16,4.672295777756275e+16,3009085836265810.0,4389469510600435.0,9858505407993.635,28812380128792.273,782993456685659.2,2.54061784434239e+16
23.561770118730532,1.3156341673632444e+16,4.757918234195429e+16,3022821448108928.5,4409506178897759.0,10145035733557.855,29649838019309.24,805752951303403.6,2.614496521625892e+16
24.133005521105144,1.3215209260786474e+16,4.845073796437398e+16,3036346956473328.0,4429236361154896.5,10437859308088.834,30505692147946.77,829012431161584.6,2.689998940334164e+16
24.715665631527248,1.3273172267014768e+16,4.9337950649632184e+16,3049664626923198.0,4448663362236909.5,10737092690531.545,31380283357546.78,852781160349000.1,2.7671551857060096e+16
25.309978944157795,1.333024055406287e+16,5.0241152467613784e+16,3062776725308345.5,4467790487425474.5,11042854716408.951,32273959152759.617,877068584018285.4,2.8459959302929684e+16
25.91617852304095,1.3386423986382446e+16,5.1160681684424536e+16,3075685518100302.5,4486621042909311.0,11355266546186.127,33187073841737.098,901884332237358.0,2.9265524464407216e+16
26.53450209350177,1.3441732432197856e+16,5.209688289538816e+16,3088393272637493.0,4505158336141615.0,11674451714559.99,34119988680547.367,927238223914823.4,3.008856619010128e+16
27.165192135371807,1.349617576420676e+16,5.305010715997144e+16,3100902257286080.0,4523405676074868.0,12000536180684.615,35073072020336.86,953140270800120.9,3.09294095834026e+16
27.808495978079243,1.3549763859942708e+16,5.4020712138706136e+16,3113214741523357.0,4541366373282391.0,12333648379341.492,36046699457270.52,979600681559185.5,3.1788386134561876e+16
28.464665897640828,1.3602506601827126e+16,5.50090622321774e+16,3125332995949648.5,4559043739975735.0,12673919273065.453,37041253985280.625,1006629865926496.4,3.266583385524005e+16
29.133959215593645,1.3654413876936236e+16,5.601552872214883e+16,3137259292234798.0,4576441089926605.0,13021482405237.164,38057126151656.06,1034238438934356.0,3.3562097415560052e+16
29.816638399905518,1.3705495576507278e+16,5.704048991489149e+16,3148995903004679.0,4593561738301324.0,13376473954152.264,39094714215504.98,1062437225220314.9,3.447752828368815e+16
30.51297116790363,1.3755761595206702e+16,5.808433128678212e+16,3160545101673052.5,4610409001415611.0,13739032788080.357,40154424309127.28,1091237263413682.2,3.5412484867975972e+16
31.223230591261704,1.3805221830182188e+16,5.914744563224181e+16,3171909162223834.5,4626986196416772.0,14109300521324.68,41236670602329.836,1120649810602124.4,3.636733266169321e+16
31.947695203086937,1.385388617991967e+16,6.023023321407307e+16,3183090358948325.0,4643296640900660.0,14487421571295.225,42341875469724.195,1150686346879298.0,3.734244439038419e+16
32.686649107148675,1.3901764542923438e+16,6.133310191626943e+16,3194090966142150.5,4659343652469385.0,14873543216608.713,43470469661044.46,1181358579974660.8,3.83382001618821e+16
33.44038208929165,1.394886681623987e+16,6.24564673993543e+16,3204913257765895.0,4675130548236329.0,15267815656228.205,44622892474525.35,1212678449966459.2,3.935498761901498e+16
34.20918973107749,1.3995202893840032e+16,6.360075325831874e+16,3215559507073564.0,4690660644284217.0,15670392069656.541,45799591933381.77,1244658134079092.8,4.039320209503885e+16
34.993373525699035,1.404078266487922e+16,6.47663911832206e+16,3226031986212733.0,4705937255081776.0,16081428678197.998,47001024965432.6,1277310051565944.8,4.1453246771837064e+16
35.793240996213015,1.4085616011848626e+16,6.595382112250777e+16,3236332965799774.5,4720963692864137.0,16501084807302.725,48227657585913.164,1310646868678968.2,4.253553284092295e+16
36.60910581613728,1.4129712808633454e+16,6.716349144913265e+16,3246464714473782.0,4735743266982070.0,16929522950009.256,49479965083521.08,1344681503726162.8,4.364047966728355e+16
37.44128793246003,1.4173082918491838e+16,6.839585912951757e+16,3256429498432117.5,4750279283224592.0,17366908831501.06,50758432209743.81,1379427132218312.5,4.4768514956109416e+16
38.29011369110923,1.4215736191967508e+16,6.9651389895438456e+16,3266229580950894.5,4764575043119304.0,17813411474792.887,52063553371514.69,1414897192106230.8,4.592007492244813e+16
39.15591596493141,1.425768246474845e+16,7.0930558418888344e+16,3275867221892950.5,4778633843214796.0,18269203267564.21,53395832827248.05,1451105389109924.8,4.709560446382743e+16
40.03903428423004,1.4298931555483196e+16,7.223384848998693e+16,3285344677206091.5,4792458974348699.0,18734460030155.82,54755784886305.13,1488065702141003.2,4.829555733589153e+16
40.93981496991464,1.4339493263565804e+16,7.356175319799651e+16,3294664198414199.0,4806053720905281.0,19209361084748.656,56143934111940.52,1525792388819833.5,4.952039633109463e+16
41.85861126931294,1.4379377366899206e+16,7.491477511551315e+16,3303828032103348.0,4819421360065805.0,19694089325741.32,57560815527788.13,1564299991088832.2,5.077059346050259e+16
