t(s),Total solute volume 1,Total retention volume 1,Total 1 volume 1,Total 2 volume 1,Total 3 volume 1,Total 4 volume 1,Total 5 volume 1,Total 6 volume 1
0.1,1012905215437994.5,1251976985692815.0,109237715628389.53,129834054626431.92,0.0,0.0,0.0,0.0
0.202,1525736554597195.2,1885865172497937.5,164544494296475.28,195568709461572.6,17010880.425926257,36275680.512900054,615187215.9288354,14745668914.589787
0.30604000000000003,1916398126559887.5,2368756654936681.0,206675759166992.8,245643658321812.25,43159521.52462121,92037654.5518815,1560848751.3431494,37414842056.176704
0.41216080000000005,2246852060255405.0,2777236607900674.0,242313874602086.94,288001199913961.3,76662732.08720492,163483253.9611169,2772489978.3488884,66460493255.72335
0.5204040160000001,2540322751657311.5,3140010266969798.0,273963497463262.38,325618234356384.6,116729103.02557735,248924797.0633877,4221488820.0016365,101196350114.9056
0.6308120963200001,2808383353321679.0,3471381962766104.0,302872745283529.44,359978206840149.7,162934246.98752242,347457277.2639533,5892497043.044369,141254432184.21432
0.7434283382464002,3057760778719999.0,3779666114166112.5,329767088377867.06,391943372253459.9,215035658.76951998,458563552.0104912,7776744321.140123,186424471254.53943
0.8582969050113283,3292764538661061.5,4070189263865772.0,355111289995278.1,422066123125569.1,272896648.32304287,581952129.7239035,9869287188.873953,236587947900.33218
0.9754628431115548,3516347828578355.0,4346601575687721.5,379223840276467.5,450724999658323.06,336448863.75979394,717477250.0356697,12167653658.051886,291685594800.4119
1.094972099973786,3730637171444138.5,4611531468083552.0,402334076092517.6,478192579285962.56,405671538.111828,865094627.4729836,14671092664.804777,351699402093.5153
1.2168715419732616,3937223194487384.0,4866945010360828.0,424613540133740.44,504672748396830.0,480579020.14049894,1024834860.8935641,17380123115.396557,416641805886.1106
1.3412089728127268,4137332131710806.5,5114357897011388.0,446194476760043.2,530322685503503.9,561212820.0351601,1196786470.9298778,20296246215.696835,486548791527.77325
1.4680331522689813,4331932810312434.5,5354967680877156.0,467181370052247.2,555266574748269.94,647636299.6693178,1381084576.955693,23421753442.396854,561475289880.4436
1.597393815314361,4521806470142117.0,5589740068473720.0,487658473557088.6,579604555351868.8,739931001.9648161,1577903069.4524796,26759593793.2807,641491994774.5217
1.729341691620648,4707594050720623.0,5819467365603344.0,507694910000285.9,603418782857369.2,838194043.6711683,1787449050.1097465,30313279496.31637,726683102488.0281
1.863928525453061,4889829228941873.0,6044809311094162.0,527348234268640.25,626777663898504.8,942536224.6699184,2009958799.915807,34086817632.12612,817144672476.2334
2.001207095962122,5068962119657569.0,6266322370072442.0,546666989421869.6,649738894137459.1,1053080635.7711926,2245694810.2835484,38084659784.58627,912983420307.3112
2.1412312378813647,5245376669463600.0,6484481232193101.0,565692582541887.4,672351687798139.2,1169961623.0106049,2494943574.4136224,42311664584.368095,1014315819691.7325
2.284055862638992,5419403677356941.0,6699694904805583.0,584460688957787.5,694658446652238.4,1293324013.1362257,2758013935.645625,46773069698.4904,1121267430968.1245
2.4297369798917723,5591330712847332.0,6912318971471148.0,603002321873938.0,716696031321490.8,1423322534.6199567,3035235852.765345,51474470891.06326,1233972399111.7493
2.578331719489608,5761409788110238.0,7122665074552501.0,621344659780532.9,738496744693223.0,1560121387.9144835,3326959483.57829,56421806481.53461,1352573081140.625
2.7298983538794,5929863374901673.0,7331008351991339.0,639511695353435.2,760089103167700.2,1703893931.6858885,3633554515.8014913,61621345997.22443,1477219774073.6577
2.884496320956988,6096889181909483.0,7537593342036609.0,657524750672112.6,781498449018386.5,1854822460.6822407,3955409693.3690495,67079682139.89417,1608070522337.7446
3.0421862473761276,6262663990372877.0,7742638724034594.0,675402890875662.9,802747442041144.0,2013098057.1540663,4292932499.587349,72803725412.33699,1745290988944.7964
3.2030299723236504,6427346764870548.0,7946341163362846.0,693163259648637.6,823856458294648.8,2178920502.205485,4646548968.092288,78800700912.37227,1889054378628.7202
3.3670905717701234,6591081199584910.0,8148878458643147.0,710821353825356.4,844843916480190.6,2352498236.690956,5016703599.46275,85078146918.66652,2039541403938.5251
3.5344323832055258,6753997820124558.0,8350412139650522.0,728391250062893.2,865726547353021.2,2534048363.6547885,5403859366.424115,91643914978.96037,2196940287348.9978
3.7051210308696363,6916215731965901.0,8551089628466422.0,745885793403425.4,886519617837353.6,2723796686.0884314,5808497794.366881,98506171275.56386,2361446793991.7197
3.879223451487029,7077844085349567.0,8751046050190249.0,763316755257353.9,907237118796593.2,2921977775.1234016,6231119106.769594,105673399091.56949,2533264290773.7354
4.0568079205167695,7238983310747635.0,8950405760094712.0,780694966643441.5,927891923395373.0,3128835064.804983,6672242427.305126,113154402238.35953,2712603828541.514
4.237944078927105,7399726167240623.0,9149283639553970.0,798030431252008.4,948495921480360.1,3344620970.3848915,7132406032.10142,120958309333.68214,2899684244635.734
4.422702960505647,7560158637224721.0,9347786202051146.0,815332421935475.5,969060134263725.4,3569597027.6905766,7612167646.948086,129094578841.9698,3094732283719.316
4.61115701971576,7720360694048289.0,9546012542140652.0,832609563494849.4,989594812718685.4,3804034051.6169176,8112104785.281808,137573004806.22137,3297982735184.338
4.803380160110075,7880406963911936.0,9744055153733078.0,849869904062947.4,1010109522421766.4,4048212312.173927,8632815123.609797,146403723214.80225,3509678585779.8613
4.9994477633122765,8040367299266239.0,9942000639004100.0,867120976943037.2,1030613217050841.1,4302421726.835392,9174916911.695341,155597218957.7716,3730071186372.4146
5.199436718578522,8200307277723991.0,1.0139930325250892e+16,884369854414470.6,1051114302335642.0,4566962068.18493,9739049415.364952,165164333336.4407,3959420431969.143
5.403425452950093,8360288637958824.0,1.0337920803875586e+16,901623194742596.2,1071620691931194.0,4842143186.061017,10325873390.234783,175116272097.29407,4197994954311.3276
5.611493962009095,8520369662035398.0,1.0536044403169044e+16,918887283411522.9,1092139856424833.2,5128285243.570874,10936071585.012753,185464613967.4802,4446072326492.136
5.823723841249277,8680605511991350.0,1.073436960456077e+16,936168069423099.8,1112678866479249.8,5425718966.483014,11570349273.33027,196221319674.14297,4703939279173.1455
6.040198318074262,8841048527179666.0,1.0932961410379768e+16,953471197364102.8,1133244430945787.5,5734785905.623697,12229434813.305338,207398741434.044,4971891928075.342
6.261002284435747,9001748487816550.0,1.1131881669855652e+16,970802035828785.1,1153842930645974.5,6055838712.001245,12914080234.247747,219009632903.49124,5250236012504.759
6.486222330124463,9162752849310240.0,1.1331189369015912e+16,988165702690298.4,1174480448407761.8,6389241424.464033,13625061850.092619,231067159581.55215,5539287144744.678
6.715946776726952,9324106951234558.0,1.153094088925443e+16,1005567087637648.6,1195162795851720.8,6735369769.769423,14363180899.300394,243584909662.10913,5839371070207.826
6.950265712261491,9485854202262206.0,1.173119023869846e+16,1023010872125815.1,1215895537122541.5,7094611475.496258,15129264241.403728,256576918103.18402,6150826394079.571
7.18927102650672,9648036255617012.0,1.1931989259417336e+16,1040501548274192.0,1236684011271120.0,7467366592.823092,15924164928.969952,270057627579.9634,6473995095904.166
7.433056447036854,9810693147963754.0,1.213338781424023e+16,1058043433880462.0,1257533350218939.8,7854047836.617082,16748763106.414305,284041976438.08954,6809237389724.342
7.681717575977592,9973863443122240.0,1.2335433954867764e+16,1075640687896066.1,1278448497071327.2,8255080933.053356,17603966636.226067,298545361107.8152,7156922369466.161
7.935351927497144,1.013758435280657e+16,1.2538174073883042e+16,1093297323453315.2,1299434221620864.2,8670904982.251226,18490711900.90691,313583661689.9277,7517430723731.262
8.194058966047088,1.0301891847754354e+16,1.2741653042450508e+16,1111017219850257.1,1320495134591943.8,9101972833.13268,19409964602.360825,329173255512.72943,7891155060997.212
8.45794014536803,1.0466820758583692e+16,1.2945914335328976e+16,1128804133427679.0,1341635700568587.0,9548751471.165785,20362720588.761127,345331031154.87714,8278500245782.004
8.72709894827539,1.0632404867520718e+16,1.315100014461254e+16,1146661707461537.5,1362860249752063.5,10011722419.194952,21350006709.32505,362074402941.4918,8679883746153.94
9.0016409272409,1.079867699199416e+16,1.3356951483431092e+16,1164593481178316.8,1384172988676059.5,10491382151.582996,22372881697.476845,379421325921.72473,9095735992783.379
9.281673745785717,1.0965669060968402e+16,1.35638082806873e+16,1182602897987227.8,1405578009990995.8,10988242521.9149,23432437082.930725,397390311336.75885,9526500749751.547
9.567307220701432,1.1133412184777598e+16,1.3771609467773766e+16,1200693313011519.8,1427079301415394.5,11502831204.532425,24529798133.268307,416000442588.0265,9972635497350.695
9.85865336511546,1.1301936719131648e+16,1.3980393058098914e+16,1218867999991302.5,1448680753940137.5,12035692150.190142,25666124825.63085,435271391716.1276,10434611827127.309
10.155826432417769,1.1471272323885038e+16,1.4190196220152694e+16,1237130157621486.5,1470386169361442.2,12587386056.142553,26842612849.18538,455223436401.6522,10912915849436.637
10.458942961066125,1.1641448017089244e+16,1.440105534475647e+16,1255482915381133.5,1492199267209315.2,13158490850.989418,28060494639.06387,475877477499.74493,11408048613792.393
10.768121820287448,1.181249222479087e+16,1.4613006107067556e+16,1273929338903995.2,1514123691130647.5,13749602194.625397,29321040442.51132,497255057120.91565,11920526542311.379
11.083484256693197,1.1984432826984394e+16,1.4826083523845394e+16,1292472434934296.8,1536163014779449.2,14361333993.655766,30625559418.017223,519378377271.20044,12450881876567.45
11.405153941827061,1.2157297200083348e+16,1.5040322006428188e+16,1311115155907129.5,1558320747260779.2,14994318932.658442,31975400768.23756,542270319065.3911,12999663138182.883
11.733257020663602,1.233111225623398e+16,1.5255755409822112e+16,1329860404188221.2,1580600338169989.0,15649209021.687065,33371954907.553936,565954462527.6523,13567435603501.775
12.067922161076874,1.2505904479760366e+16,1.5472417078259538e+16,1348711036004421.0,1603005182264237.8,16326676160.428038,34816654665.145,590455106994.4216,14154781792700.785
12.409280604298411,1.2681699960999716e+16,1.569033988754696e+16,1367669865092699.5,1625538623799493.0,17027412719.438772,36310976524.48525,615797292135.0596,14762301973709.957
12.75746621638438,1.2858524427759058e+16,1.5909556284489266e+16,1386739666092607.8,1648203960562657.0,17752132138.911762,37856441900.21817,642006819606.3428,15390614681327.285
13.112615540712067,1.3036403274601356e+16,1.6130098323646798e+16,1405923177704694.0,1671004447625463.5,18501569545.423603,39454618453.38229,669110275357.375,16040357251926.664
13.474867851526309,1.321536159014797e+16,1.6351997701657578e+16,1425223105634928.8,1693943300844071.2,19276482387.14565,41107121446.00685,697135052602.1901,16712186374170.98
13.844365208556836,1.3395424182565194e+16,1.6575285789332346e+16,1444642125343346.8,1717023700125958.8,20077651088.007645,42815615136.1259,726109375477.767,17406778656157.488
14.221252512727972,1.3576615603387022e+16,1.6799993661710546e+16,1464182884613236.0,1740248792483501.0,20905879721.321842,44581814214.29214,756062323405.897,18124831209435.28
14.605677562982532,1.3758960169810914e+16,1.702615212624694e+16,1483848005955642.8,1763621694891862.0,21761996703.39293,46407485282.71101,787023856177.7946,18867062250349.234
14.997791114242183,1.3942481985590756e+16,1.7253791749283192e+16,1503640088862579.2,1787145496967020.0,22646855507.653255,48294448378.144714,819024839781.0337,19634211719179.875
15.397746936527026,1.4127204960638978e+16,1.7482942880942946e+16,1523561711921051.0,1810823263478392.2,23561335399.880447,50244578539.77663,852097072988.9733,20427041917560.89
15.805701875257567,1.4313152829440168e+16,1.771363567857714e+16,1543615434798881.2,1834658036709076.8,24506342195.072174,52259807423.25868,886273314733.3739,21246338164672.957
16.221815912762718,1.4500349168368418e+16,1.7945900128875316e+16,1563803800112322.2,1858652838675583.2,25482809036.568127,54342124962.20239,921587312281.6274,22092909472725.54
16.64625223101797,1.4688817411992938e+16,1.817976606874615e+16,1584129335184534.8,1882810673217903.0,26491697198.027634,56493581078.410515,958073830240.5708,22967589242254.1
17.079177275638333,1.4878580868448416e+16,1.8415263205063852e+16,1604594553703245.5,1907134527969650.5,27533996908.888947,58716287442.18241,995768680409.5302,23871235977775.508
17.5207608211511,1.5069662733940378e+16,1.865242113336716e+16,1625201957285055.8,1931627376217388.8,28610728203.953156,61012419284.068184,1034708752505.835,24804734024358.85
17.97117603757412,1.5262086106449216e+16,1.8891269355590336e+16,1645954036953400.5,1956292178657187.0,29722941797.75564,63384217259.48117,1074932045786.8002,25768994325686.61
18.430599558325603,1.54558739986916e+16,1.9131837296899164e+16,1666853274536365.0,1981131885056034.8,30871719984.403675,65833989367.61925,1116477701592.707,26764955204194.594
18.899211549492115,1.5651049350392688e+16,1.937415432169895e+16,1687902143990185.8,2006149435824849.0,32058177563.581337,68364112926.18672,1159386036836.1262,27793583163898.137
19.37719578048196,1.5847635039917922e+16,1.9618249748875532e+16,1709103112653724.0,2031347763509511.5,33283462793.437897,70977036603.44951,1203698578463.5232,28855873716525.598
19.864739696091597,1.6045653895309834e+16,1.9864152866325468e+16,1730458642438695.8,2056729794205486.2,34548758371.099236,73675282509.19316,1249458098915.847,29952852231600.582
20.36203449001343,1.6245128704770986e+16,2.0111892944827356e+16,1751971190960253.5,2082298448901561.0,35855282441.55923,76461448346.20613,1296708652615.5117,31085574811128.336
20.869275179813698,1.6446082226630696e+16,2.0361499251302216e+16,1773643212611835.8,2108056644757383.0,37204289635.72962,79338209623.94145,1345495613507.8984,32255129189561.92
21.38666068340997,1.6648537198831012e+16,2.061300106150606e+16,1795477159588200.2,2134007296319361.2,38597072138.44676,82308321936.06494,1395865713686.2847,33462635659739.586
21.91439389707817,1.685251634796398e+16,2.0866427672195776e+16,1817475482860053.5,2160153316679058.8,40034960787.255936,85374623303.63553,1447867083129.8496,34709248025505.168
22.452681775019734,1.7058042397889606e+16,2.112180841280604e+16,1839640633103454.0,2186497618577850.0,41519326202.81381,88540036585.71396,1501549290585.1606,35996154581739.766
23.00173541052013,1.7265138077962102e+16,2.1379172656670536e+16,1861975061586996.5,2213043115461338.5,43051579951.774086,91807571959.24289,1556963385622.451,37324579122553.69
23.561770118730532,1.7473826130889684e+16,2.1638549831821524e+16,1884481221019446.2,2239792722486879.0,44633175743.03998,95180329470.08286,1614161941898.621,38695781978406.51
24.133005521105144,1.7684129320251468e+16,2.189996943139582e+16,1907161566360425.0,2266749357487010.5,46265610658.29469,98661501657.14795,1673199101659.9082,40111061082941.83
24.715665631527248,1.789607043769255e+16,2.216346102367522e+16,1930018555596325.8,2293915941891810.0,47950426417.74075,102254376251.62361,1734130621517.8894,41571753070345.234
25.309978944157795,1.810967230981777e+16,2.24290542617872e+16,1953054650483832.0,2321295401612444.0,49689210682.00366,105962338953.30981,1797013919533.4124,43079234404051.84
25.91617852304095,1.832495780480227e+16,2.2696778893089684e+16,1976272317262821.8,2348890667888604.5,51483598391.18001,109788876286.17421,1861908123643.8381,44634922537653.92
26.53450209350177,1.8541949838736624e+16,2.2966664768261036e+16,1999674027340631.8,2376704678101731.0,53335273142.03648,113737578535.26315,1928874121469.9907,46240277108877.15
27.165192135371807,1.8760671381721292e+16,2.323874185011729e+16,2023262257949366.0,2404740376556261.0,55245968604.384926,117812142767.15953,1997974611539.9736,47896801167517.0
27.808495978079243,1.8981145463725956e+16,2.3513040222174508e+16,2047039492777771.0,2433000715230668.5,57217469977.693886,122016375936.24425,2069274155968.0542,49606042438248.984
28.464665897640828,1.9203395180227268e+16,2.378959009697412e+16,2071008222579258.5,2461488654500092.0,59251615489.01276,126354198079.06082,2142839234627.6606,51369594619246.46
29.133959215593645,1.9427443697636716e+16,2.4068421824187996e+16,2095170945757267.5,2490207163832076.0,61350297933.31893,130829645599.1475,2218738300858.535,53189098717566.555
29.816638399905518,1.9653314258531024e+16,2.4349565898519344e+16,2119530168929363.0,2519159222457037.5,63515466257.41966,135446874644.75122,2297041838749.043,55066244422280.39
30.51297116790363,1.9881030186695016e+16,2.4633052967410864e+16,2144088407471061.8,2548347820014621.0,65749127188.56883,140210164581.90173,2377822422035.5347,57002771516355.516
31.223230591261704,2.0110614891986664e+16,2.491891383857598e+16,2168848186040516.8,2577775957177313.5,68053346908.98838,145123921565.37247,2461154774661.758,59000471328312.086
31.947695203086937,2.034209187503284e+16,2.5207179487362892e+16,2193812039084943.5,2607446646252337.5,70430252777.50441,150192682210.12625,2547115833042.156,61061188224705.62
32.686649107148675,2.0575484731763292e+16,2.5497881063962724e+16,2218982511329584.5,2637362911762817.0,72882035099.54439,155421117365.88132,2635784810073.9624,63186821144506.68
33.44038208929165,2.081081715778953e+16,2.5791049900471e+16,2244362158249962.0,2667527791009115.0,75410948946.7603,160814035997.516,2727243260943.9644,65379325176472.71
34.20918973107749,2.104811295263411e+16,2.608671751780952e+16,2269953546527957.5,2697944334610816.0,78019316027.57266,166376389174.0615,2821575150776.66,67640713180628.766
34.993373525699035,2.128739602381367e+16,2.6384915632516064e+16,2295759254492216.0,2728615607030252.0,80709526609.95885,172113274169.1068,2918866924171.619,69973057454999.77
35.793240996213015,2.15286903907801e+16,2.668567616340631e+16,2321781872543090.0,2759544687077491.5,83484041497.82858,178029938675.4825,3019207576678.632,72378491448748.08
36.60910581613728,2.1772020188719092e+16,2.6989031238109264e+16,2348024003562393.0,2790734668397441.0,86345394062.3549,184131785137.1395,3122688728260.163,74859211522904.47
37.44128793246003,2.2017409672207276e+16,2.729501319947971e+16,2374488263307753.0,2822188659938441.0,89296192329.65616,190424375201.20032,3229404698791.3647,77417478759884.1
38.29011369110923,2.2264883218724572e+16,2.7603654611882656e+16,2401177280791409.5,2853909786402576.5,92339121126.23557,196913434293.17645,3339452585648.6157,80055620823006.95
39.15591596493141,2.2514465332016772e+16,2.7914988267347544e+16,2428093698642868.5,2885901188676654.5,95476944283.6071,203604856318.41052,3452932343438.226,82776033867249.53
40.03903428423004,2.276618064530087e+16,2.8229047191582348e+16,2455240173454572.5,2918166024243083.5,98712506903.54941,210504708492.80295,3569946865917.2866,85581184502469.67
40.93981496991464,2.30200539243029e+16,2.8545864649836172e+16,2482619376109526.5,2950707467569224.0,102048737685.43695,217619236305.9294,3690602070159.141,88473611810346.98
41.85861126931294,2.327611007011264e+16,2.886547415259437e+16,2510233992089150.5,2983528710473339.5,105488651317.10068,224954868619.62915,3815006983015.8857,91455929416293.56
42.7957834946992,2.3534374121837904e+16,2.9187909461083636e+16,2538086721759568.5,3016632962464807.5,109035350930.66794,232518222905.1756,3943273829930.3257,94530827617576.75
43.751699164593184,2.3794871259034492e+16,2.951320459255996e+16,2566180280633612.0,3050023451055579.0,112692030624.82343,240316110622.08026,4075518126149.3643,97701075568892.88
