t(s),Total solute volume 1,Total retention volume 1,Total 1 volume 1,Total 2 volume 1,Total 3 volume 1,Total 4 volume 1,Total 5 volume 1,Total 6 volume 1
0.1,1392571168361754.5,6037270240607699.0,1452613831222594.2,3192085241023349.0,0.0,0.0,0.0,-0.09582846306271511
0.202,2063702627830793.5,8954827735816313.0,2152682647587883.5,4730478086377220.0,1948068314.3396423,10659771398.951508,576061777834.8358,7375704402865.88
0.30604000000000003,2581570818618921.5,1.1213615792222806e+16,2692879670641334.0,5917551464816719.0,4922610188.678596,26942476343.613194,1479958158492.6528,20102014900794.754
0.41216080000000005,3020082122083953.0,1.3132930874662442e+16,3150298166822459.5,6922720194621736.0,8724828170.183779,47757145559.83284,2641717286913.7056,37132191873647.63
0.5204040160000001,3409095929121960.0,1.4841667798781242e+16,3556084986781531.0,7814429165512230.0,13263702386.93619,72605144649.61903,4031526971067.235,57940321547416.055
0.6308120963200001,3763792141131072.5,1.640532754036611e+16,3926074545149892.0,8627474277874618.0,18489433508.796417,101213718266.56345,5633471796511.572,82233401262242.86
0.7434283382464002,4093065121726586.0,1.7862285319332284e+16,4269544703416261.5,9382243483347614.0,24372732111.671978,133422457044.64845,7438262496492.529,109835953156170.6
0.8582969050113283,4402636510291460.0,1.9237233090943412e+16,4592463800220234.0,1.0091852104723956e+16,30896233016.083996,169136257626.5844,9440396782954.523,140640246434189.78
0.9754628431115548,4696436212008975.0,2.054714072601117e+16,4898931185844389.0,1.0765308392421536e+16,38050246846.11949,208302051364.2582,11636789666014.084,174581793772039.56
1.094972099973786,4977297403720395.0,2.1804254817479244e+16,5191902194692662.0,1.1409106641006436e+16,45830399152.96993,250895873956.11453,14026021579287.248,211625830207340.47
1.2168715419732616,5247340085316470.0,2.3017752924843216e+16,5473588234262193.0,1.2028106378449374e+16,54236206950.41183,296915069802.8141,16607888191369.027,251759187347037.94
1.3412089728127268,5508198127602623.0,2.419472241358214e+16,5745693622615028.0,1.2626052812586166e+16,63270167028.489784,346373299372.5312,19383113352101.81,294985093959821.7
1.4680331522689813,5761161295515986.0,2.5340772491653976e+16,6009563735194355.0,1.320590238124009e+16,72937144368.44716,399297190112.9235,22353157115477.453,341319688253588.4
1.597393815314361,6007268130389860.0,2.646043432369341e+16,6266281891880492.0,1.3770035659852572e+16,83243946669.32372,455724006582.61945,25520082476402.617,390789591140820.5
1.729341691620648,6247368965200331.0,2.7557432388517984e+16,6516735089255754.0,1.4320401806980384e+16,94199019625.69734,515699981840.0875,28886460083911.36,443430167996155.94
1.863928525453061,6482170013658954.0,2.8634874274920264e+16,6761659990678648.0,1.4858619626666402e+16,105812223523.66476,579279094135.7177,32455298468911.586,499284254129688.44
2.001207095962122,6712265036659133.0,2.969538696116726e+16,7001675958086410.0,1.5386050155233042e+16,118094666341.32616,646522153019.2981,36229991968062.37,558401202401244.6
2.1412312378813647,6938158605792302.0,3.074121690748783e+16,7237309318559520.0,1.590384998661928e+16,131058577175.6088,717496106268.4805,40214281258251.47,620836160575024.0
2.284055862638992,7160283533098182.0,3.177430503413913e+16,7469011545586900.0,1.641301122538038e+16,144717209123.03543,792273508100.399,44412223090433.05,686649516266008.9
2.4297369798917723,7379014157553629.0,3.279634386868517e+16,7697173118425407.0,1.6914391942377454e+16,159084764113.79883,870932107593.244,48828166873137.766,755906466583831.4
2.578331719489608,7594676629358755.0,3.3808821777405816e+16,7922134249811204.0,1.7408739748726348e+16,174176334404.8355,953554528326.8231,53466736449293.766,828676682197466.4
2.7298983538794,7807556979756749.0,3.4813057672936876e+16,8144193303724290.0,1.7896710293680474e+16,190007856918.7872,1040228018362.222,58332815874728.87,905034044025347.0
2.884496320956988,8017907531221940.0,3.5810228586683236e+16,8363613481963058.0,1.8378881958255e+16,206596077632.88046,1131044255250.546,63431538325435.51,985056436584913.5
3.0421862473761276,8225952045894701.0,3.680139181840546e+16,8580628194563119.0,1.8855767656623068e+16,223958523934.44666,1226099194663.3687,68768277483739.31,1068825586122319.1
3.2030299723236504,8431889902247606.0,3.778750291069838e+16,8795445416547798.0,1.932782440999406e+16,242113483368.262,1325492954021.6826,74348640912498.28,1156426934559002.5
3.3670905717701234,8635899514456914.0,3.876943037094706e+16,9008251254731810.0,1.979546118459877e+16,261079987569.5683,1429329724519.078,80178465041641.98,1247949542405827.2
3.5344323832055258,8838141155239941.0,3.974796783212426e+16,9219212892270256.0,2.025904536228096e+16,280877800447.9534,1537717706420.4067,86263811476056.66,1343486015350123.0
3.7051210308696363,9038759304140116.0,4.0723844176890264e+16,9428481038194136.0,2.0718908123306108e+16,301527409889.5963,1650769063625.2202,92610964396945.78,1443132450379429.8
3.879223451487029,9237884614861032.0,4.169773202734547e+16,9636191979569396.0,2.1175348955942692e+16,323050022398.139,1768599894321.5671,99226428876424.94,1546988398179240.8
4.0568079205167695,9435635574219694.0,4.267025491230767e+16,9842469311978930.0,2.162863945916422e+16,345467560211.0633,1891330215194.411,106116929961450.19,1655156839207981.0
4.237944078927105,9632119909524602.0,4.364199335618382e+16,1.0047425407582224e+16,2.207902656868267e+16,368802660518.4205,2019083957145.4375,113289412411201.1,1767744171365445.2
4.422702960505647,9827435789238718.0,4.461349008214038e+16,1.0251162667546958e+16,2.252673530914396e+16,393078676480.7771,2151988970864.5823,120751040993848.89,1884860207569568.8
4.61115701971576,1.0021672852648294e+16,4.5585254482982856e+16,1.0453774596113874e+16,2.2971971154365064e+16,418319679798.3113,2290177040894.917,128509201265772.34,2006618181869123.0
4.803380160110075,1.0214913097199802e+16,4.655776648281537e+16,1.065534672619277e+16,2.341492206131411e+16,444550464626.5376,2433783907071.1567,136571500769839.38,2133134762967194.5
4.9994477633122765,1.040723164666911e+16,4.7531479888924504e+16,1.0855957420652604e+16,2.3855760230930376e+16,471796552668.9251,2582949292402.449,144945770600192.78,2264530074227157.5
5.199436718578522,1.0598697419010568e+16,4.850682531478116e+16,1.1055678568966152e+16,2.4294643638987956e+16,500084199304.62695,2737816936623.1143,153640067289671.2,2400927719390889.0
5.403425452950093,1.0789373709317874e+16,4.948421274038447e+16,1.1254576195306132e+16,2.473171737237544e+16,529440400632.10583,2898534634758.71,162662674983020.6,2542454813366588.0
5.611493962009095,1.0979318700607616e+16,5.046403376448283e+16,1.1452710991352168e+16,2.51671147999296e+16,559892901327.8733,3065254280155.5215,172022107864770.5,2689242017547190.5
5.823723841249277,1.1168585912954166e+16,5.144666359383554e+16,1.1650138784790892e+16,2.560095860195519e+16,591470203234.5498,3238131911503.895,181727112815330.12,2841423579205226.0
6.040198318074262,1.1357224599742634e+16,5.243246280711496e+16,1.1846910952654004e+16,2.6033361678528052e+16,624201574604.8796,3417327763453.626,191786672272697.9,2999137374579539.5
6.261002284435747,1.154528009837676e+16,5.342177892490997e+16,1.20430747871476e+16,2.6464427953397908e+16,658117059938.5201,3603006320475.599,202210007280372.94,3162524955326891.5
6.486222330124463,1.1732794141611064e+16,5.441494781228039e+16,1.223867382040798e+16,2.6894253087633236e+16,693247490356.9385,3795336373670.3516,213006580704679.72,3331731598059375.5
6.715946776726952,1.1919805134717838e+16,5.54122949361982e+16,1.2433748113619018e+16,2.732292511495147e+16,729624494468.8235,3994491080263.0444,224186100606934.8,3506906356728171.5
6.950265712261491,1.2106348402909212e+16,5.641413649682008e+16,1.2628334515102496e+16,2.775052500886754e+16,767280509684.3367,4200648025556.629,235758523757717.3,3688202117647889.5
7.18927102650672,1.2292456412779398e+16,5.742078044872417e+16,1.282246689130806e+16,2.817712719028999e+16,806248793941.507,4413989287142.477,247734059282056.47,3875775656983583.0
7.433056447036854,1.2478158970986326e+16,5.843252742590372e+16,1.3016176334061372e+16,2.8602799982944964e+16,846563437812.2843,4634701501190.452,260123172425655.34,4069787700546384.5
7.681717575977592,1.2663483402935404e+16,5.944967158235338e+16,1.3209491346952292e+16,2.902760602296094e+16,888259376959.2756,4862975930660.021,272936588433378.47,4270402985763808.0
7.935351927497144,1.2848454713846016e+16,6.047250135844101e+16,1.3402438013345754e+16,2.9451602628069084e+16,931372404917.2426,5099008535290.318,286185296532154.8,4477790325707815.5
8.194058966047088,1.303309573425679e+16,6.150130018187274e+16,1.3595040148161026e+16,2.987484213113589e+16,975939186175.9585,5343000043241.279,299880554011263.94,4692122675078376.0
8.45794014536803,1.3217427251754084e+16,6.253634711088843e+16,1.3787319435279774e+16,3.0297372182114372e+16,1021997269543.2274,5595156024269.688,314033890393633.2,4913577198052787.0
8.72709894827539,1.3401468130474732e+16,6.357791742632815e+16,1.3979295552201332e+16,3.0719236021972024e+16,1069585101768.7218,5855686964334.311,328657111692369.9,5142335337921596.0
9.0016409272409,1.3585235419737028e+16,6.4626283178364696e+16,1.4170986283357698e+16,3.1140472731698268e+16,1118742041410.9216,6124808341533.15,343762304747253.5,5378582888441562.0
9.281673745785717,1.3768744452984848e+16,6.5681713692970856e+16,1.4362407623323508e+16,3.156111745910647e+16,1169508372930.7668,6402740703283.235,359361841636317.8,5622510066843476.0
9.567307220701432,1.3952008938084134e+16,6.674447604256935e+16,1.4553573871006156e+16,3.1981201625815056e+16,1221925320996.877,6689709744659.903,375468384158061.8,5874311588440289.0
9.85865336511546,1.413504103988747e+16,6.781483548478061e+16,1.474449771576995e+16,3.2400753116503772e+16,1276035064988.2139,6985946387818.317,392094888380117.6,6134186742786420.0
10.155826432417769,1.4317851455873364e+16,6.889305587271832e+16,1.4935190316337004e+16,3.281979645229669e+16,1331880753680.8906,7291686862424.753,409254609250497.7,6402339471344659.0
10.458942961066125,1.4500449485575064e+16,6.9979400039889704e+16,1.5125661373209352e+16,3.323835294990889e+16,1389506520106.7612,7607172787029.439,426961105267784.25,6678978446621462.0
10.768121820287448,1.4682843094432116e+16,7.107413016240551e+16,1.5315919195273862e+16,3.3656440868009104e+16,1448957496571.947,7932651251316.762,445228243206835.4,6964317152735710.0
11.083484256693197,1.486503897262823e+16,7.217750810090904e+16,1.5505970761176668e+16,3.407407554208914e+16,1510279829824.2048,8268374899171.686,464070202896782.4,7258573967389214.0
11.405153941827061,1.5047042589416972e+16,7.328979572436741e+16,1.5695821775991432e+16,3.449126950899142e+16,1573520696358.531,8614602012504.562,483501482048243.1,7561972245210457.0
11.733257020663602,1.5228858243384398e+16,7.441125521764234e+16,1.5885476723649184e+16,3.490803262212218e+16,1638728317850.8706,8971596595778.98,503536901126849.4,7874740402446005.0
12.067922161076874,1.541048910904975e+16,7.554214937455314e+16,1.6074938915548058e+16,3.5324372158270948e+16,1705951976710.3545,9339628461190.006,524191608270302.1,8197112002976218.0
12.409280604298411,1.55919372801648e+16,7.668274187797411e+16,1.6264210535719828e+16,3.574029291686276e+16,1775242031740.7788,9718973314442.238,545481084246322.9,8529325845634243.0
12.75746621638438,1.5773203810036136e+16,7.783329756834554e+16,1.6453292682890492e+16,3.6155797312385944e+16,1846649933902.5542,10109912841079.71,567421147448956.4,8871626052809094.0
13.112615540712067,1.5954288749162274e+16,7.899408270184992e+16,1.6642185409740414e+16,3.65708854606652e+16,1920228242166.6506,10512734793321.143,590027958930821.4,9224262160315718.0
13.474867851526309,1.6135191180449972e+16,8.016536519937622e+16,1.6830887759638942e+16,3.698555525958517e+16,1996030639452.5198,10927733077356.73,613318027468996.4,9587489208516306.0
13.844365208556836,1.6315909252248328e+16,8.134741488729432e+16,1.7019397801102802e+16,3.739980246481254e+16,2074111948642.2576,11355207841064.158,637308214662337.4,9961567834678686.0
14.221252512727972,1.6496440209417694e+16,8.254050373096331e+16,1.7207712660204618e+16,3.781362076101285e+16,2154528148663.7092,11795465562104.014,662015740058143.6,1.0346764366559162e+16
14.605677562982532,1.6676780422630194e+16,8.374490606181286e+16,1.7395828551136864e+16,3.822700182901407e+16,2237336390635.54,12248819136356.299,687458186306157.6,1.0743350917198542e+16
14.997791114242183,1.6856925416081332e+16,8.496089879876738e+16,1.7583740805118206e+16,3.863993540932809e+16,2322595014067.7427,12715587966662.326,713653504338052.4,1.1151605480920974e+16
15.397746936527026,1.703686989377651e+16,8.618876166470766e+16,1.777144389781341e+16,3.905240936240512e+16,2410363563111.3823,13196098051838.29,740620018570597.9,1.1571812030527104e+16
15.805701875257567,1.7216607764541882e+16,8.742877739861243e+16,1.7958931475422592e+16,3.946440972596462e+16,2500702802851.8667,13690682075928.998,768376432130892.6,1.2004260615673684e+16
16.221815912762718,1.7396132165896692e+16,8.868123196396418e+16,1.814619637958293e+16,3.9875920769716024e+16,2593674735640.479,14199679497673.021,796941832102094.2,1.2449247462433212e+16
16.64625223101797,1.7575435486912856e+16,8.994641475395898e+16,1.83332306712138e+16,4.028692504775791e+16,2689342617459.2397,14723436640152.756,826335694788284.4,1.2907075074028542e+16
17.079177275638333,1.775450939017733e+16,9.122461879401466e+16,1.8520025653426028e+16,4.069740344892109e+16,2787770974314.9424,15262306780605.625,856577890997164.6,1.3378052332738076e+16
17.5207608211511,1.7933344832963276e+16,9.251614094203454e+16,1.870657189360601e+16,4.110733524529767e+16,2889025618658.4507,15816650240376.219,887688691339519.1,1.3862494602969088e+16
17.97117603757412,1.811193208770857e+16,9.38212820868507e+16,1.889285924477714e+16,4.151669813918223e+16,2993173665826.124,16386834474991.355,919688771544425.6,1.4360723835497462e+16
18.430599558325603,1.829026076189161e+16,9.514034734523394e+16,1.907887686633254e+16,4.192546830863176e+16,3100283550500.7617,16973234164344.07,952599217789477.9,1.4873068672873668e+16
18.899211549492115,1.8468319817388064e+16,9.647364625783856e+16,1.926461324422659e+16,4.233362045183618e+16,3210425043190.1216,17576231302976.045,986441532045361.6,1.5399864555996166e+16
19.37719578048196,1.8646097589386428e+16,9.782149298441437e+16,1.9450056210705644e+16,4.274112783047597e+16,3323669266721.7817,18196215290451.51,1021237637434402.2,1.5941453831854742e+16
19.864739696091597,1.882358180493292e+16,9.91842064986043e+16,1.9635192963653096e+16,4.3147962312232696e+16,3440088712753.8867,18833583021820.27,1057009883602828.1,1.649818586244814e+16
20.36203449001343,1.9000759601173268e+16,1.0056211078261712e+17,1.982001008561711e+16,4.355409441260205e+16,3559757258302.088,19488738978171.027,1093781052106790.4,1.707041713488148e+16
20.869275179813698,1.917761754335186e+16,1.0195553502205402e+17,2.0004493562586372e+16,4.395949333615284e+16,3682750182283.7935,20162095317282.145,1131574361812344.2,1.7658511372651076e+16
21.38666068340997,1.935414164262629e+16,1.0336481380114187e+17,2.0188628802572216e+16,4.43641270173612e+16,3809144182081.892,20854071964380.438,1170413474309888.8,1.8262839648125844e+16
21.91439389707817,1.9530317373749068e+16,1.0479028729861717e+17,2.037240065405311e+16,4.476796216114161e+16,3939017390130.9033,21565096703025.082,1210322499343810.8,1.8883780496236436e+16
22.452681775019734,1.9706129692666736e+16,1.062323014844871e+17,2.0555793424332404e+16,4.517096428318762e+16,4072449390529.687,22295605266138.492,1251326000258378.8,1.952172002938526e+16
23.00173541052013,1.988156305408086e+16,1.0769120831788069e+17,2.073879089785651e+16,4.5573097750226264e+16,4209521235685.7607,23046041427212.59,1293448999461158.8,2.0177052053593052e+16
23.561770118730532,2.005660142901393e+16,1.0916736594619342e+17,2.092137635453815e+16,4.597432582028178e+16,4350315462997.572,23816857091724.17,1336716983905677.2,2.0850178185899136e+16
24.133005521105144,2.0231228322418144e+16,1.1066113890571405e+17,2.1103532588124404e+16,4.637461068304007e+16,4494916111582.172,24608512388800.93,1381155910595221.5,2.1541507973035864e+16
24.715665631527248,2.0405426790863776e+16,1.1217289832391744e+17,2.1285241924647824e+16,4.677391350039375e+16,4643408739057.007,25421475763185.156,1426792212110157.2,2.225145901139969e+16
25.309978944157795,2.0579179460339644e+16,1.137030221235905e+17,2.1466486240994104e+16,4.7172194447244824e+16,4795880438385.902,26256224067550.96,1473652802161426.8,2.2980457068344524e+16
25.91617852304095,2.0752468544196256e+16,1.1525189522895862e+17,2.1647246983619284e+16,4.756941275263471e+16,4952419854800.718,27113242655236.562,1521765081173317.2,2.3728936204825012e+16
26.53450209350177,2.0925275861259424e+16,1.1681990977396501e+17,2.1827505187444012e+16,4.796552674126427e+16,5113117202811.47,27993025473463.156,1571156941898974.0,2.4497338899422028e+16
27.165192135371807,2.109758285413912e+16,1.1840746531284976e+17,2.2007241494951844e+16,4.836049387546174e+16,5278064283319.473,28896075157118.27,1621856775072583.2,2.5286116173784116e+16
27.808495978079243,2.1269370607756616e+16,1.2001496903317296e+17,2.2186436175515544e+16,4.875427079765148e+16,5447354500849.309,29822903123191.69,1673893475102558.0,2.6095727719522776e+16
28.464665897640828,2.1440619868110144e+16,1.2164283597141157e+17,2.236506914497144e+16,4.914681337336859e+16,5621082880917.403,30774029665959.598,1727296445810504.2,2.6926642026603932e+16
29.133959215593645,2.1611311061297364e+16,1.2329148923126379e+17,2.254311998546203e+16,4.953807673486252e+16,5799346087556.316,31749984053022.934,1782095606221345.5,2.7779336513279976e+16
29.816638399905518,2.1781424312809224e+16,1.2496136020478054e+17,2.2720567965562304e+16,4.992801532532359e+16,5982242441016.042,32751304622314.8,1838321396410268.0,2.8654297657611736e+16
30.51297116790363,2.1950939467110772e+16,1.2665288879644294e+17,2.289739206070415e+16,5.031658294376552e+16,6169871935664.805,33778538880201.758,1896004783412859.5,2.955202113063376e+16
31.223230591261704,2.2119836107517948e+16,1.2836652365030093e+17,2.307357097391049e+16,5.070373279058791e+16,6362336258114.474,34832243600814.4,1955177267205229.8,3.0473011931220404e+16
31.947695203086937,2.2288093576380944e+16,1.3010272238027973e+17,2.324908315684877e+16,5.10894175138414e+16,6559738805596.796,35912984926752.21,2015870886761468.5,3.1417784522714692e+16
32.686649107148675,2.2455690995580476e+16,1.3186195180375914e+17,2.3423906831211004e+16,5.1473589256208696e+16,6762184704619.253,37021338471318.96,2078118226196360.2,3.2386862971386664e+16
33.44038208929165,2.2622607287341736e+16,1.336446881785288e+17,2.3598020010425148e+16,5.1856199702715176e+16,6969780829930.889,38157889422455.47,2141952421001859.8,3.3380781086792508e+16
34.20918973107749,2.2788821195368508e+16,1.3545141744321251e+17,2.3771400521700356e+16,5.223720012917346e+16,7182635823830.696,39323232648548.01,2207407164386359.8,3.4400082564111436e+16
34.993373525699035,2.2954311306298468e+16,1.3728263546125846e+17,2.394402602840745e+16,5.261654145136263e+16,7400860115853.209,40517972806300.79,2274516713726458.5,3.5445321128541428e+16
35.793240996213015,2.3119056071477092e+16,1.3913884826858454e+17,2.4115874052791496e+16,5.299417427493951e+16,7624565942867.837,41742724450873.05,2343315897141425.0,3.651706068184128e+16
36.60910581613728,2.3283033829046944e+16,1.4102057232496395e+17,2.4286921999013776e+16,5.337004894607229e+16,7853867369630.681,42998112148493.38,2413840120201316.0,3.76158754511116e+16
37.44128793246003,2.3446222826346348e+16,1.4292833476923899e+17,2.4457147176515876e+16,5.374411560278244e+16,8088880309829.76,44284770591774.125,2486125372780174.0,3.8742350139912536e+16
38.29011369110923,2.3608601242609016e+16,1.4486267367844016e+17,2.462652682369804e+16,5.411632422697803e+16,8329722547666.406,45603344717959.805,2560208236066391.0,3.989708008182292e+16
