t(s),Total solute volume 1,Total retention volume 1,Total 1 volume 1,Total 2 volume 1,Total 3 volume 1,Total 4 volume 1,Total 5 volume 1,Total 6 volume 1
0.1,878184692305091.0,1002349173156223.1,60489917771387.09,63674563079745.664,0.0,0.0,0.0,0.0
0.202,1322899669800746.2,1510494384823030.8,91122167202417.03,95919525409596.88,1160286694.8323154,2052713223.7362294,26306921658.64263,523502488695.82245
0.30604000000000003,1661365243848642.2,1897664694138104.5,114435890349397.05,120460658839162.4,2943367776.602315,5207241966.258284,66734478799.64135,1328016012361.5007
0.41216080000000005,1947467344344544.2,2225306641249155.2,134142784261141.98,141205072313439.94,5227160598.26696,9247605864.129679,118514678910.26804,2358450884656.818
0.5204040160000001,2201377201976513.2,2516417525075181.0,151632256090599.1,159615321874285.56,7957338397.549849,14077694404.485106,180415790125.40167,3590294310858.5337
0.6308120963200001,2433144178643355.0,2782453612197555.5,167596512252361.72,176420056907203.97,11104631685.476555,19645726948.20633,251774204603.4011,5010339831394.833
0.7434283382464002,2648608749102054.5,3030073112556241.5,182437848347702.1,192042752889820.25,14652180930.89057,25921877855.56571,332207685060.695,6610980472813.086
0.8582969050113283,2851512024763820.0,3263541486680851.5,196413954500552.06,206754666698549.38,18590339510.668545,32889082184.727932,421497532386.283,8387863763856.157
0.9754628431115548,3044417209934382.0,3485781963636592.5,209701385847193.75,220741648664106.03,22914112419.46052,40538504418.54809,519530513837.4045,10338736060231.906
1.094972099973786,3229169525433485.0,3698899815803334.5,222427242366554.5,234137490267192.9,27621737260.479774,48867028046.06642,626266690100.3699,12462802280691.818
1.2168715419732616,3407148707295213.0,3904470151117397.0,234686561150654.0,247042232069321.3,32713831073.439278,57875746188.72332,741720071521.0527,14760340953430.324
1.3412089728127268,3579417934607540.5,4103707637801349.0,246552574648537.12,259532962028112.3,38192845547.42891,67568997802.443665,865946266310.5637,17232458407502.762
1.4680331522689813,3746816735649771.0,4297572372707184.0,258083110099872.47,271670551845368.2,44062702856.4492,77953723426.35815,999034223985.2552,19880924461906.44
1.597393815314361,3910021620254353.0,4486838966123122.0,269324765930446.3,283504053239533.5,50328543429.21533,89039018958.9026,1141100516677.9946,22708058619728.426
1.729341691620648,4069587145811819.0,4672143328386827.0,280315740404596.06,295073675519731.8,56996546319.84037,100835817875.10501,1292285266520.4673,25716649019965.027
1.863928525453061,4225974609331441.5,4854015356337624.0,291087807952521.5,306412865961864.56,64073798475.45047,113356659949.52266,1452749181660.7227,28909893451719.12
2.001207095962122,4379572630981783.5,5032902381007834.0,301667736977598.06,317549802259988.9,71568197999.42722,126615520122.39543,1622671363061.3875,32291355707271.707
2.1412312378813647,4530712260487865.0,5209186375347265.0,312078330394583.7,328508487846310.7,79488381703.83315,140627680336.9932,1802247662006.1758,35864932894467.28
2.284055862638992,4679678285523427.0,5383196835423044.0,322339204558841.8,339309571829115.7,87843670433.80978,155409632818.3439,1991689440551.4895,39634830767840.49
2.4297369798917723,4826717845464694.0,5555220592321661.0,332467382587147.9,349970973550460.56,96644027672.09886,170979006846.6626,2191222633080.3818,43605545051762.07
2.578331719489608,4972047094379029.0,5725509402292656.0,342477753308585.44,360508365699707.2,105900028256.36617,187354513422.07895,2401087037147.296,47781847326509.45
2.7298983538794,5115856426256819.0,5894285899588047.0,352383431181813.44,370935553179543.5,115622834930.80289,204555903789.6669,2621535781953.053,52168774449192.39
2.884496320956988,5258314614949283.0,6061748323756855.0,362196041458916.75,381264773288901.6,125824180889.50702,222603938866.73337,2852835009755.2144,56771630930244.74
3.0421862473761276,5399572178977020.0,6228074313393942.0,371925951946225.9,391506939661637.8,136516358110.42625,241520367410.4091,3095263304055.192,61595942779476.63
3.2030299723236504,5539764030100716.0,6393423986403419.0,381582455453689.44,401671834357472.94,147712207953.39386,261327911193.4828,3349111936479.055,66647514435921.414
3.3670905717701234,5679011718637728.0,6557942459646119.0,391173924444160.7,411768270628856.8,159425116749.16394,282050256014.4526,3614684461072.9517,71932386101543.45
3.5344323832055258,5817425248611184.0,6721761929747965.0,400707936064430.75,421804224540746.3,171669013252.1146,303712047500.21356,3892296732976.2046,77456842737866.67
3.7051210308696363,5955104594717113.0,6885003404507288.0,410191376634890.8,431786944961383.94,184458368552.70575,326338890962.4797,4182276906591.5015,83227414027783.16
3.879223451487029,6092140972880095.0,7047778153979869.0,419630529166200.6,441723045686504.3,197808197938.7439,349957354702.47845,4484965477947.698,89250875216482.55
4.0568079205167695,6228617911406252.0,7210188934768508.0,429031147141000.9,451618583105475.8,211734064435.45532,374594976286.2785,4800715365133.942,95534248709915.61
4.237944078927105,6364612159513660.0,7372331029394263.0,438398517094043.06,461479122076116.56,226252083808.32404,400280271408.5831,5129892021907.494,102084806333319.12
4.422702960505647,6500194462272441.0,7534293133804055.0,447737511990572.8,471309792113324.0,241378930854.71094,427042745037.1961,5472873580530.656,108910072171295.97
4.61115701971576,6635430225063241.0,7696158119322789.0,457052636994638.0,481115335566965.1,257131846843.3024,454912904588.86523,5830051020641.926,116017825925865.78
4.803380160110075,6770380086087736.0,7858003690149838.0,466348068903978.25,490900149132922.06,273528647986.6819,483922274933.5671,6201828361560.773,123416106740727.34
4.9994477633122765,6905100411904573.0,8019902953445609.0,475627690282861.9,500668319782933.6,290587734853.2269,514103415061.3627,6588622875899.875,131113217449416.75
5.199436718578522,7039643728168559.0,8181924915870757.0,484895119131662.4,510423655996207.56,308328102641.40546,545489936275.75635,6990865322741.673,139117729212658.45
5.403425452950093,7174059095540132.0,8344134917924742.0,494153734779745.75,520169715015501.5,326769352253.2176,578116521801.6606,7409000198944.755,147438486516364.16
5.611493962009095,7308392438971600.0,8506595015425230.0,503406700566920.9,529909826722695.1,345931702114.6226,612018947715.8052,7843486007399.163,156084612506763.7
5.823723841249277,7442686837165023.0,8669364315863366.0,512656983781472.1,539647114626511.3,365836000699.9934,647234105123.5598,8294795541256.208,165065514643276.6
6.040198318074262,7576982777856705.0,8832499276073187.0,521907373244322.7,549384514372450.06,386503739725.1394,683800023519.5126,8763416183329.972,174390890653134.22
6.261002284435747,7711318383659815.0,8996053966600841.0,531160494865217.2,559124790117952.1,407957067979.70557,721755895280.2179,9249850220009.273,184070734774585.16
6.486222330124463,7845729612440609.0,9160080307300502.0,540418825444761.9,568870549061095.5,430218805774.9721,761142101246.7411,9754615169136.906,194115344277872.88
6.715946776726952,7980250435585704.0,9324628277979410.0,549684704953585.25,578624254366215.1,453312459987.4622,802000237362.3484,10278244121412.986,204535326255146.44
6.950265712261491,8114912997005845.0,9489746107332366.0,558960347484620.44,588388236692802.1,477262239682.3924,844373142337.248,10821286094960.97,215341604672113.62
7.18927102650672,8249747755299498.0,9655480442925336.0,568247851045426.6,598164704503358.1,502093072304.1754,888304926317.675,11384306402766.934,226545427675657.66
7.433056447036854,8384783611146254.0,9821876504586240.0,577549206333119.5,607955753300319.4,527830620423.7403,933841000541.4159,11967887032761.25,238158375152820.1
7.681717575977592,8520048021705962.0,9988978223225942.0,586866304614266.0,617763373920789.4,554501299034.7181,981028107965.645,12572627040363.275,250192366537555.94
7.935351927497144,8655567103552162.0,1.0156828366831228e+16,596200944814991.4,627589459999941.1,582132293392.4338,1029914354856.5016,13199142953351.771,262659668862544.4
8.194058966047088,8791365725459357.0,1.0325468655134092e+16,605554839912238.6,637435814698750.5,610751577391.2786,1080549243332.5802,13848069188962.438,275572905054049.1
8.45794014536803,8927467592188204.0,1.0494939864261106e+16,614929622704940.2,647304156779000.8,640387932477.4127,1132983704857.0862,14520058483144.422,288945062468481.56
8.72709894827539,9063895320261900.0,1.0665281922496626e+16,624326851033540.5,657196126097614.2,671070967095.0037,1187270134675.44,15215782331935.037,302789501669837.8
9.0016409272409,9200670506600414.0,1.0836533998147562e+16,633748012507566.9,667113288583109.5,702831136665.1328,1243462427197.0305,15935931444935.76,317119965447648.6
9.281673745785717,9337813790769124.0,1.1008734580374366e+16,643194528793357.8,677057140749067.2,735699764097.5331,1301616012321.3022,16681216210892.662,331950588075509.5
9.567307220701432,9475344911505922.0,1.1181921553745878e+16,652667759507686.9,687029113792747.2,769709060835.919,1361787892709.7764,17452367175400.756,347295904810547.7
9.85865336511546,9613282758109686.0,1.135613226718397e+16,662169005757422.1,697030577321107.1,804892148438.461,1424036682006.7092,18250135530767.953,363170861634530.25
10.155826432417769,9751645417203612.0,1.1531403597886026e+16,671699513360628.9,707062842741469.8,841283080695.4034,1488422644012.1096,19075293618086.258,379590825237538.94
10.458942961066125,9890450215327236.0,1.170777201074334e+16,681260475780331.1,717127166349761.2,878916866286.4032,1555007732811.703,19928635441568.17,396571593245354.3
10.768121820287448,1.002971375775905e+16,1.1885273613716044e+16,690853036798630.4,727224752145403.4,917829491980.4564,1623855633869.0635,20810977195216.758,414129404691891.44
11.083484256693197,1.0169451963925278e+16,1.2063944209572216e+16,700478292955688.4,737356754398710.4,958057946381.7238,1695031806085.8308,21723157801904.453,432280950738152.1
11.405153941827061,1.030968009971229e+16,1.2243819344354816e+16,710137295775426.5,747524279993760.8,999640244224.778,1768603524836.3982,22666039464941.88,451043385639324.4
11.733257020663602,1.0450412806964706e+16,1.242493435290047e+16,719831053797383.6,757728390567223.0,1042615451223.0455,1844639925983.812,23640508232225.08,470434337961721.94
12.067922161076874,1.0591664130421474e+16,1.2607324401699758e+16,729560534432075.1,767970104461407.8,1087023709474.3949,1923212050884.0674,24647474573051.25,490471922051373.25
12.409280604298411,1.073344754231546e+16,1.2791024529358438e+16,739326665655435.5,778250398507902.5,1132906263427.9856,2004392892386.078,25687873967698.004,511174749756114.0
12.75746621638438,1.087577596483881e+16,1.2976069684892762e+16,749130337556247.1,788570209656485.8,1180305486416.5398,2088257441834.974,26762667509863.25,532561942403083.4
13.112615540712067,1.1018661790656384e+16,1.3162494764068462e+16,758972403749116.0,798930436462476.6,1229264907758.3523,2174882737086.3384,27872842522063.645,554653143033580.25
13.474867851526309,1.1162116901629902e+16,1.3350334643971788e+16,768853682664209.5,809331940444388.6,1279829240433.2754,2264347911539.131,29019413184092.098,577468528897206.4
13.844365208556836,1.1306152685901828e+16,1.3539624215983876e+16,778774958723992.8,819775547322606.6,1332044409337.0288,2356734244195.108,30203421174631.96,601028824207261.9
14.221252512727972,1.1450780053471012e+16,1.3730398417312198e+16,788736983416097.9,830262048148745.1,1385957580118.0928,2452125210752.336,31425936326129.03,625355313159349.6
14.605677562982532,1.1596009450381776e+16,1.3922692261219352e+16,798740476270679.9,840792200334458.4,1441617188601.36,2550606535740.6284,32688057293018.008,650469853215077.0
14.997791114242183,1.174185087163578e+16,1.411654086607585e+16,808786125749785.6,851366728587634.1,1499072970802.8096,2652266245706.1455,33990912233399.62,676394888652767.0
15.397746936527026,1.1888313872926262e+16,1.4311979483353326e+16,818874590055620.4,861986325763209.8,1558375993539.1064,2757194723452.698,35335659504262.84,703153464387000.0
15.805701875257567,1.2035407581285224e+16,1.4509043524662454e+16,829006497863930.8,872651653635176.5,1619578685636.1072,2865484763346.765,36723488370343.91,730769240058790.0
16.221815912762718,1.2183140704726592e+16,1.470776858793282e+16,839182448988234.8,883363343595762.4,1682734869740.0842,2977231627693.114,38155619726708.46,759266504398079.4
16.64625223101797,1.2331521540960736e+16,1.4908190482822402e+16,849403014980081.0,894121997287304.1,1747899794735.1604,3092533104187.465,39633306835142.7,788670189860217.6
17.079177275638333,1.2480557985249778e+16,1.5110345255437338e+16,859668739670127.9,904928187171819.5,1815130168770.415,3211489564452.63,41157836074433.2,819005887537957.6
17.5207608211511,1.2630257537467314e+16,1.5314269212436202e+16,869980139654417.1,915782457042865.1,1884484192899.907,3334204023663.8477,42730527704609.445,850299862350449.2
17.97117603757412,1.2780627308420678e+16,1.5519998944586898e+16,880337704729870.5,926685322483974.0,1956021595338.4006,3460782201268.718,44352736645220.234,882579068510546.5
18.430599558325603,1.2931674025490214e+16,1.5727571349838998e+16,890741898282708.8,937637271277515.2,2029803666335.7205,3591332582806.9,46025853267708.234,915871165271700.1
18.899211549492115,1.3083404037634444e+16,1.593702365596919e+16,901193157633211.2,948638763767618.2,2105893293671.9285,3725966482833.9365,47751304201940.14,950204532955496.5
19.37719578048196,1.3235823319807574e+16,1.6148393442853596e+16,911691894340021.0,959690233180475.4,2184354998775.6125,3864798108953.2974,49530553156944.52,985608289260882.5
19.864739696091597,1.3388937476831888e+16,1.6361718664416002e+16,922238494466843.5,970792085905109.5,2265254973466.966,4007944626960.059,51365101755900.26,1022112305855836.4
20.36203449001343,1.3542751746764042e+16,1.6577037670297844e+16,932833318814343.1,981944701737456.8,2348661117327.161,4155526227098.9805,53256490385414.18,1059747225252184.5
20.869275179813698,1.3697271003792156e+16,1.679438922729258e+16,943476703119684.6,993148434090421.5,2434643075695.0645,4307666191439.2407,55206299059113.93,1098544477964066.0
21.38666068340997,1.3852499760697446e+16,1.701381254058252e+16,954168958226100.6,1004403610172378.4,2523272278291.92,4464490962367.1455,57216148295574.7,1138536299950349.5
21.91439389707817,1.4008442170912206e+16,1.723534727481554e+16,964910370224637.8,1015710531136367.1,2614621978474.2183,4626130212197.703,59287700010590.17,1179755750341093.8
22.452681775019734,1.4165102030202996e+16,1.7459033575054042e+16,975701200570109.6,1027069472202153.5,2708767293114.522,4792716913904.559,61422658423784.54,1222236729447990.2
23.00173541052013,1.4322482778006666e+16,1.7684912087626912e+16,986541686173098.1,1038480682753094.2,2805785243109.3496,4964387412967.573,63622770979551.66,1266013997058404.0
23.561770118730532,1.4480587498443922e+16,1.791302398091292e+16,997432039469794.4,1049944386409616.5,2905754794512.808,5141281500335.674,65889829282296.25,1311123191012434.8
24.133005521105144,1.4639418921033414e+16,1.8143410966080388e+16,1008372448471173.8,1061460781081023.8,3008756900293.9487,5323542486501.831,68225670045933.234,1357600846062058.8
24.715665631527248,1.4798979421128184e+16,1.8376115317806572e+16,1019363076793062.4,1073030038997106.9,3114874542715.0034,5511317276685.796,70632176057591.9,1405484413011220.2
25.309978944157795,1.495927102009281e+16,1.861117989499625e+16,1030404063668330.4,1084652306721011.2,3224192776327.1895,5704756447118.541,73111277155446.0,1454812278135217.5
25.91617852304095,1.512029538523903e+16,1.8848648161518156e+16,1041495523942465.0,1096327705144557.2,3336798771579.4243,5904014322421.32,75664951220579.22,1505623782877477.0
26.53450209350177,1.5282053829534748e+16,1.9088564206972524e+16,1052637548053528.9,1108056329467140.4,3452781859034.7534,6109249054069.88,78295225182768.34,1557959243821271.8
27.165192135371807,1.544454731109974e+16,1.933097276750402e+16,1063830201997417.1,1119838249159183.9,3572233574187.93,6320622699933.1,81004176040039.84,1611859972933508.0
27.808495978079243,1.560777643249887e+16,1.957591924666558e+16,1075073527279177.0,1131673507910865.5,3695247702876.3345,6538301304872.545,83793931891835.33,1667368298077086.2
28.464665897640828,1.577174143984151e+16,1.9823449736342268e+16,1086367540850979.0,1143562123566844.0,3821920327275.202,6762454982387.35,86666672985579.81,1724527583787723.0
29.133959215593645,1.5936442221693474e+16,2.0073611037734612e+16,1097712235037158.0,1155504088047343.0,3952349872466.264,6993257997285.877,89624632776419.02,1783382252310443.5
29.816638399905518,1.6101878307805024e+16,2.0326450682400484e+16,1109107577446617.5,1167499367255941.5,4086637153567.451,7230888849362.52,92670098999847.58,1843977804890145.8
30.51297116790363,1.6268048867656364e+16,2.0582016953351084e+16,1120553510872618.0,1179547900974094.8,4224885423408.9805,7475530358054.485,95805414756906.36,1906360843309638.2
31.223230591261704,1.6434952708818672e+16,2.0840358906189012e+16,1132049953179905.2,1191649602742317.8,4367200420739.235,7727369748049.47,99032979611575.95,1970579091667726.0
31.947695203086937,1.6602588275126286e+16,2.110152639027605e+16,1143596797178794.0,1203804359727639.5,4513690418941.004,7986598735810.792,102355250699939.0,2036681418388641.8
32.686649107148675,1.6770953644652684e+16,2.1365570069911076e+16,1155193910485762.8,1216012032576851.5,4664466275236.251,8253413616981.588,105774743850617.55,2104717858452955.0
33.44038208929165,1.6940046527479428e+16,2.1632541445493484e+16,1166841135369770.8,1228272455254735.2,4819641480354.169,8528015354624.092,109294034715928.62,2174739635838652.2
34.20918973107749,1.7109864263245204e+16,2.1902492874644612e+16,1178538288583435.5,1240585434866369.2,4979332208634.147,8810609668244.814,112915759913117.48,2246799186159633.8
34.993373525699035,1.7280403818457494e+16,2.217547759325172e+16,1190285161177861.5,1252950751462176.2,5143657368531.456,9101407123548.588,116642618174950.02,2320950179487160.0
35.793240996213015,1.74516617835486e+16,2.245154973639611e+16,1202081518299854.5,1265368157824496.0,5312738653489.399,9400623222858.93,120477371508852.48,2397247543337920.5
36.60910581613728,1.7623634369652706e+16,2.2730764359120044e+16,1213927098969917.5,1277837379233864.0,5486700593137.463,9708478496132.85,124422846363688.88,2475747485810560.5
37.44128793246003,1.7796317405079702e+16,2.301317745698317e+16,1225821615839390.0,1290358113213382.0,5665670604770.112,10025198592491.736,128481934803158.19,2556507518850263.0
38.29011369110923,1.7969706331458708e+16,2.3298845986353164e+16,1237764754924769.0,1302930029249044.8,5849779045056.075,10351014372178.803,132657595684684.3,2639586481618779.5
39.15591596493141,1.814379619952119e+16,2.3587827884370736e+16,1249756175317298.5,1315552768484039.8,6039159261922.344,10686161998847.055,136952855842546.17,2725044563944915.0
40.03903428423004,1.831858166449442e+16,2.3880182088525184e+16,1261795508865622.2,1328225943384701.5,6233947646551.942,11030883032069.064,141370811273875.62,2812943329827945.0
40.93981496991464,1.8494056981071744e+16,2.4175968555772052e+16,1273882359829353.0,1340949137375830.2,6434283685428.099,11385424519951.271,145914628326005.78,2903345740963751.0
41.85861126931294,1.867021599792837e+16,2.4475248281121204e+16,1286016304501324.5,1353721904443059.2,6640310012352.084,11750039091724.414,150587544883536.6,2996316180260841.5
42.7957834946992,1.8847052151750212e+16,2.4778083315620652e+16,1298196890796280.8,1366543768699885.2,6852172460354.917,12124985050170.223,155392871553317.16,3091920475310460.0
43.751699164593184,1.9024558460743924e+16,2.5084536783659736e+16,1310423637803846.2,1379414223917126.2,7070020113417.605,12510526463733.732,160333992845419.9,3190225921772307.5
44.72673314788505,1.9202727574007604e+16,2.5394672897955308e+16,1322696039188185.8,1392332737098909.2,7294005379111.247,12906933293459.281,165414368261323.97,3291301240726698.5
