t(s),Total solute volume 1,Total retention volume 1,Total 1 volume 1,Total 2 volume 1,Total 3 volume 1,Total 4 volume 1,Total 5 volume 1,Total 6 volume 1
0.1,1301436301972856.8,2401541677724917.5,422763850992510.6,677341524759550.8,0.0,0.0,0.0,-2.162416271574588e-76
0.202,1956320925525806.2,3610096963342112.5,635499246997040.5,1018180895489095.0,23025516.08790944,77728430.98945206,2611762808.9435067,93182813414.74178
0.30604000000000003,2456184154494530.0,4532643490179679.0,797876853570152.6,1278338222708949.5,58395284.61166143,197129533.28384984,6626228119.666236,237377653110.1305
0.41216080000000005,2879171706340873.5,5313373181804329.0,935281851416488.1,1498485057673748.5,103706792.19859476,350092238.7026071,11769614300.056316,422342959886.2129
0.5204040160000001,3254873296067314.0,6006883415630318.0,1057326284655855.5,1694021580480023.5,157891239.20803362,533008395.735273,17920443746.42786,643643083737.5416
0.6308120963200001,3598066271556913.5,6640440415578281.0,1168810487270502.8,1872638766654001.0,220375225.90037632,743942285.7692088,25013572618.740005,898912206731.6475
0.7434283382464002,3917347829314913.0,7229907209426218.0,1272527207610831.0,2038811087753717.8,290831024.28227615,981787547.0451758,33011772448.678288,1186800355731.38
0.8582969050113283,4218228407026843.5,7785451431102025.0,1370266478699086.8,2195406489828546.5,369073875.4997736,1245920460.714902,41894055422.68565,1506546497786.775
0.9754628431115548,4504485341671013.0,8314043012410002.0,1463255346059597.8,2344390914432854.0,455011368.5490513,1536029059.795821,51649922429.02349,1857769283688.5244
1.094972099973786,4778839167310689.0,8820702037238017.0,1552377559052469.2,2487180282604013.5,548615401.54358,1852018474.3868618,62276177782.85165,2240351459177.387
1.2168715419732616,5043325121534592.0,9309184211477938.0,1638294252540106.8,2624833848012517.5,649905332.5263727,2193954051.3502645,73775015358.27734,2654370515959.764
1.3412089728127268,5299512351006878.0,9782385317806420.0,1721515154511239.0,2758168284034714.0,758937229.8662816,2562025065.331875,86152797662.47939,3100054493644.2944
1.4680331522689813,5548640696198785.0,1.0242593594370126e+16,1802443019790280.2,2887828874328536.5,875796695.9058002,2956520492.5479608,99419240801.99815,3577752494538.6704
1.597393815314361,5791709977378721.0,1.0691654473361544e+16,1881402634061947.5,3014335982354365.0,1000593905.5381194,3377812261.832087,113586851026.65822,4087914309299.347
1.729341691620648,6029540476607961.0,1.1131082173628762e+16,1958660461089002.5,3138116529654328.5,1133460081.8815982,3826343357.0954876,128670524493.16988,4631075949553.306
1.863928525453061,6262815200375748.0,1.1562137677171404e+16,2034438371478696.5,3259525991737243.0,1274544940.316982,4302619188.823974,144687257006.39334,5207849158572.665
2.001207095962122,6492110201565297.0,1.1985884674352088e+16,2108923492593622.5,3378864179358484.5,1424014806.2489839,4807201239.957789,161655930273.17072,5818913688375.7
2.1412312378813647,6717916834860564.0,1.2403230625912674e+16,2182275438088653.5,3496386821502435.5,1582051214.7000544,5340702338.357046,179597152874.56262,6465011554585.267
2.284055862638992,6940658418115107.0,1.2814957503795722e+16,2254631720257790.5,3612314236908657.5,1748849862.9242995,5903783121.004064,198533141327.17178,7146942739869.009
2.4297369798917723,7160702924575142.0,1.322174520881296e+16,2326111873027588.5,3726837939828363.5,1924619827.2902682,6497149390.332583,218487631154.29117,7865561981494.71
2.578331719489608,7378372801540893.0,1.362418968657762e+16,2396820641491049.5,3840125750215461.0,2109582981.8811977,7121550151.520832,239485810863.23517,8621776386205.044
2.7298983538794,7593952671085455.0,1.4022817135856844e+16,2466850483440488.5,3952325801619596.0,2303973573.842712,7777776178.937178,261554273721.95822,9416543687842.162
2.884496320956988,7807695444589886.0,1.4418095290459908e+16,2536283555637963.0,4063569723538814.5,2508037922.5773096,8466659000.671023,284720983598.75104,10250871012718.344
3.0421862473761276,8019827232132545.0,1.4810442477688426e+16,2605193308601333.0,4173975196545572.0,2722034218.340097,9189070218.62523,309015252089.00446,11125814052442.338
3.2030299723236504,8230551324248801.0,1.5200234965372542e+16,2673645780055248.5,4283648024621470.5,2946232401.821866,9945921102.007553,334467724838.03125,12042476568669.467
3.3670905717701234,8440051451182618.0,1.5587812975944054e+16,2741700653679708.0,4392683831457575.0,3180914110.6800356,10738162406.826527,361110375465.6643,13002010172195.121
3.5344323832055258,8648494473289679.0,1.5973485651049752e+16,2809412133071578.5,4501169460693542.0,3426372682.1977963,11566784384.866133,388976505864.02466,14005614332022.229
3.7051210308696363,8856032619122130.0,1.6357535181701682e+16,2876829668773110.0,4609184140744481.0,3682913203.6546607,12432816953.725801,418100751912.6907,15054536579890.8
3.879223451487029,9062805360566762.0,1.674022026885564e+16,2943998567399481.0,4716800460729716.0,3950852603.8070817,13337330005.64091,448519093861.6812,16150072883204.828
4.0568079205167695,9268940994295238.0,1.712177904219789e+16,3010960505363522.5,4824085193549753.0,4230519780.265903,14281433837.484297,480268870790.27295,17293568164983.734
4.237944078927105,9474557983713930.0,1.750243153711537e+16,3077753964800165.0,4931099994313282.0,4522255758.629653,15266279687.970219,513388798671.43976,18486416953863.625
4.422702960505647,9679766104188448.0,1.7882381808768228e+16,3144414605585807.0,5037901996377438.0,4826413880.070071,16293060370.907434,547918991666.7801,19730064150605.926
4.61115701971576,9884667425588244.0,1.8261819746078004e+16,3210975584512152.5,5144544322719959.0,5143360014.725351,17363010995.575325,583900986351.6691,21026005900274.99
4.803380160110075,1.008935715945879e+16,1.8640922636012268e+16,3277467830485013.0,5251076526855886.0,5473472798.78175,18477409767.06699,621377768629.9585,22375790561396.67
4.9994477633122765,1.0293924392881502e+16,1.901985651886704e+16,3343920282914393.0,5357544974780083.0,5817143893.544082,19637578860.862938,660393803145.2537,23781019765132.93
5.199436718578522,1.049845272696354e+16,1.9398777367648964e+16,3410360099124096.0,5463993177273738.0,6174778265.1359415,20844885367.04756,700995065034.4587,25243349558902.42
5.403425452950093,1.0703020834642536e+16,1.977783211865223e+16,3476812835551281.5,5570462080217733.0,6546794483.747639,22100742300.514748,743229073900.6973,26764491630011.06
5.611493962009095,1.0907702949897008e+16,2.01571595755366e+16,3543302606663581.5,5676990319205609.0,6933625041.577382,23406609674.278397,787144929908.5955,28346214605790.863
5.823723841249277,1.1112569298373346e+16,2.0536891205377256e+16,3609852224845692.0,5783614443666457.0,7335716688.799408,24763995633.639027,832793351926.2821,29990345427516.81
6.040198318074262,1.131768647776166e+16,2.0917151842060092e+16,3676483323962244.5,5890369114834072.0,7753530787.050247,26174457649.48841,880226717656.3102,31698770796013.71
6.261002284435747,1.1523117794890424e+16,2.1298060309882228e+16,3743216468860978.0,5997287281190315.0,8187543680.055892,27639603769.478428,929499105712.6775,33473438687408.824
6.486222330124463,1.1728923565398142e+16,2.1679729978167364e+16,3810071252719337.0,6104400334431359.0,8638247081.13451,29161093926.159332,980666339613.7999,35316359937940.19
6.715946776726952,1.1935161380927908e+16,2.206226925602029e+16,3877066383840974.5,6211738248530831.0,9106148477.404922,30740641301.51298,1033786033672.1678,37229609897123.984
6.950265712261491,1.2141886348037136e+16,2.24457820349585e+16,3944219763264235.0,6319329704082174.0,9591771550.612461,32380013747.58387,1088917640770.6515,39215330148919.1
7.18927102650672,1.2349151302392458e+16,2.2830368086007064e+16,4011548554342044.5,6427202199777822.0,10095656614.555416,34081035263.150608,1146122502023.5327,41275730300816.79
7.433056447036854,1.2557007001299808e+16,2.321612341688483e+16,4079069245284181.5,6535382152612893.0,10618361069.157215,35845587526.5901,1205463898327.381,43413089841040.36
7.681717575977592,1.2765502297185396e+16,2.360314059411084e+16,4146797705511559.5,6643894988174449.0,11160459871.283617,37675611485.27082,1267007103813.0962,45629760064261.15
7.935351927497144,1.2974684294279366e+16,2.3991509034184708e+16,4214749236553954.5,6752765222188742.0,11722546022.453785,39573109001.97522,1330819441215.9133,47928166066436.44
8.194058966047088,1.318459849044642e+16,2.4381315267431532e+16,4282938618122885.5,6862016534337901.0,12305231073.636856,41540144559.00126,1396970339185.2402,50310808809555.766
8.45794014536803,1.3395288905847906e+16,2.477264317761901e+16,4351380149906660.5,6971671835222952.0,12909145647.364773,43578847020.71967,1465531391560.4634,52780267257239.11
8.72709894827539,1.3606798199898448e+16,2.5165574220048704e+16,4420087689563104.0,7081753327234821.0,13534939977.429218,45691411455.49206,1536576418643.114,55339200582281.11
9.0016409272409,1.3819167777793416e+16,2.5560187620478372e+16,4489074687324371.5,7192282559997257.0,14183284466.461847,47880101017.96011,1610181530499.44,57990350447368.43
9.281673745785717,1.4032437887721586e+16,2.595656055693103e+16,4558354217575864.0,7303280480961799.0,14854870261.729017,50147248892.82386,1686425192330.8801,60736543360321.61
9.567307220701432,1.4246647709739668e+16,2.6354768326196972e+16,4627939007726643.0,7414767481663211.0,15550409849.499718,52495260301.31868,1765388291953.284,63580693105334.53
9.85865336511546,1.446183543716738e+16,2.6754884496612972e+16,4697841464650089.0,7526763440082081.0,16270637668.373198,54926614571.69799,1847154209428.6416,66525803251788.945
10.155826432417769,1.4678038351258458e+16,2.715698104851594e+16,4768073698940376.0,7639287759507895.0,17016310741.977606,57443867275.10888,1931808888896.1387,69574969742329.1
10.458942961066125,1.4895292889815092e+16,2.756112850360275e+16,4838647547201413.0,7752359404249865.0,17788209331.476215,60049652428.333855,2019440912651.9893,72731383561984.28
10.768121820287448,1.511363471033621e+16,2.7967396044289564e+16,4909574592560281.0,7865996932502945.0,18587137608.34065,62746684764.95132,2110141577530.3179,75998333490219.06
11.083484256693197,1.5333098748223148e+16,2.8375851624037284e+16,4980866183574886.0,7980218526641292.0,19413924347.87385,65537762076.5429,2204004973639.796,79379208937886.98
11.405153941827061,1.5553719270507924e+16,2.8786562069504824e+16,5052533451687335.0,8095042021181632.0,20269423643.987923,68425767625.65321,2301128065513.4624,82877502871155.2
11.733257020663602,1.5775529925518608e+16,2.9199593175296548e+16,5124587327357469.0,8210484928631876.0,21154515645.763027,71413672632.27959,2401610775731.469,86496814824555.16
12.067922161076874,1.59985637888514e+16,2.961500979198824e+16,5197038554996556.0,8326564463417690.0,22070107316.336117,74504538835.7431,2505556071078.9614,90240854005407.58
12.409280604298411,1.6222853405979978e+16,3.0032875908044916e+16,5269897706808680.0,8443297564058661.0,23017133214.688923,77701521133.86145,2613070051303.8804,94113442491945.03
12.75746621638438,1.6448430831797904e+16,3.0453254726177188e+16,5343175195635926.0,8560700913748614.0,23996556300.925606,81007870301.42255,2724262040541.652,98118518527562.56
13.112615540712067,1.667532766735973e+16,3.087620873463051e+16,5416881286893430.0,8678790959477642.0,25009368765.652348,84426935790.01855,2839244681476.2563,102260139913687.9
13.474867851526309,1.6903575094059384e+16,3.1301799773849732e+16,5491026109672106.0,8797583929820609.0,26056592884.091278,87962168611.38014,2958134032309.506,106542487503874.1
13.844365208556836,1.7133203905460806e+16,3.173008909891744e+16,5565619667078545.0,8917095851503458.0,27139281895.582855,91617124306.41867,3081049666612.887,110969868801783.66
14.221252512727972,1.7364244536974174e+16,3.2161137438126896e+16,5640671845875286.0,9037342564848546.0,28258520909.152283,95395466002.25359,3208114776138.4556,115546721665833.75
14.605677562982532,1.7596727093552756e+16,3.2595005048015676e+16,5716192425477843.0,9158339738189664.0,29415427835.836205,99300967559.57942,3339456276668.107,120277618123351.77
14.997791114242183,1.7830681375568456e+16,3.3031751765153132e+16,5792191086360282.0,9280102881339044.0,30611154348.487625,103337516812.79518,3475204916982.495,125167268297187.34
15.397746936527026,1.8066136903009324e+16,3.3471437054950936e+16,5868677417915690.0,9402647358181286.0,31846886869.80002,107509118905.39417,3615495391033.9307,130220524447802.39
15.805701875257567,1.830312293812878e+16,3.3914120057738096e+16,5945660925813520.0,9525988398461078.0,33123847589.312214,111819899723.191,3760466453409.5317,135442385133970.8
16.221815912762718,1.8541668506664388e+16,3.4359859632322108e+16,6023151038892491.0,9650141108826790.0,34443295510.17776,116274109428.02654,3910261038173.871,140837999495289.94
16.64625223101797,1.87818024177333e+16,3.4808714397236696e+16,6101157115623469.0,9775120483185348.0,35806527526.50847,120876126094.68379,4065026381182.6426,146412671659818.3
17.079177275638333,1.9023553282502344e+16,3.5260742769860764e+16,6179688450174321.0,9900941412418922.0,37214879532.11874,125630459453.81375,4224914145961.839,152171865280234.2
17.5207608211511,1.9266949531721196e+16,3.5716003003574616e+16,6258754278105502.0,1.0027618693510348e+16,38669727561.527855,130541754743.75214,4390080553249.004,158121208202015.47
17.97117603757412,1.9512019432199836e+16,3.61745532231084e+16,6338363781722577.0,1.0155167038118836e+16,40172488964.09605,135614796674.1927,4560686514296.609,164266497267228.78
18.430599558325603,1.9758791102304416e+16,3.663645145822233e+16,6418526095110066.0,1.028360108064511e+16,41724623612.19629,140854513504.75754,4736897768039.68,170613703257627.28
18.899211549492115,2.000729252653929e+16,3.7101755675847624e+16,6499250308868257.0,1.0412935385820586e+16,43327635144.34725,146265981241.5975,4918885022232.857,177168975980850.5
19.37719578048196,2.0257551569277612e+16,3.7570523810806904e+16,6580545474573450.0,1.0543184455853374e+16,44983072244.26192,151854427955.22305,5106824098665.116,183938649503618.84
19.864739696091597,2.050959598769556e+16,3.8042813795222536e+16,6662420608979865.0,1.0674362737160394e+16,46692529956.78495,157625238222.88132,5300896082562.893,190929247535932.6
20.36203449001343,2.076345344396524e+16,3.8518683586713656e+16,6744884697979973.0,1.080648462671296e+16,48457651041.72535,163583957698.85123,5501287476295.586,198147488970371.7
20.869275179813698,2.101915151675081e+16,3.899819119547352e+16,6827946700339303.0,1.0939564478020036e+16,50280127366.61106,169736297816.13553,5708190357500.383,205600293580735.06
21.38666068340997,2.127671771205373e+16,3.948139471031399e+16,6911615551219340.0,1.1073616606772904e+16,52161701339.425575,176088140623.1229,5921802541746.3,213294787884321.8
21.91439389707817,2.1536179473446908e+16,3.9968352323753784e+16,6995900165501998.0,1.1208655296171446e+16,54104167382.40653,182645543758.87296,6142327749860.568,221238311172319.1
22.452681775019734,2.1797564191734804e+16,4.045912235622598e+16,7080809440927670.0,1.134469480195173e+16,56109373448.022514,189414745570.78506,6369975780043.834,229438421712840.75
23.00173541052013,2.2060899214072884e+16,4.0953763279472264e+16,7166352261057676.0,1.1481749357132542e+16,58179222578.26646,196402170378.49356,6604962684903.307,237902903131290.4
23.561770118730532,2.2326211852579452e+16,4.1452333739183304e+16,7252537498071662.0,1.1619833176497382e+16,60315674508.43616,203614433887.95087,6847510953537.074,246639770972850.9
24.133005521105144,2.2593529392466972e+16,4.195489257694915e+16,7339374015409139.0,1.1758960460826228e+16,62520747316.60257,211058348759.73743,7097849698805.755,255657279452010.3
24.715665631527248,2.2862879099720812e+16,4.246149885157055e+16,7426870670263744.0,1.1899145400892398e+16,64796519119.99344,218740930335.7569,7356214849930.929,264963928394159.1
25.309978944157795,2.3134288228349516e+16,4.297221185978098e+16,7515036315938563.0,1.204040218123562e+16,67145129819.55674,226669402528.57053,7622849350563.664,274568470374439.1
25.91617852304095,2.340778402722905e+16,4.348709115643123e+16,7603879804069352.0,1.2182744983724536e+16,69568782893.99144,234851203877.7336,7898003362469.982,284479918059121.5
26.53450209350177,2.3683393746562524e+16,4.400619657417482e+16,7693409986723053.0,1.232618799091833e+16,72069747244.57397,243293993777.60266,8181934474983.1875,294707551754954.56
27.165192135371807,2.396114464397408e+16,4.452958824270044e+16,7783635718377219.0,1.2470745389238724e+16,74650359092.13438,252005658881.19415,8474907920377.625,305260927172039.2
27.808495978079243,2.4241063990255412e+16,4.505732660754743e+16,7874565857786843.0,1.2616431371960404e+16,77313023927.57309,260994319684.7881,8777196795321.376,316149883405913.44
28.464665897640828,2.452317907478037e+16,4.558947244854221e+16,7966209269743222.0,1.2763260142029458e+16,80060218517.34047,270268337298.07623,9089082288569.533,327384551144702.6
29.133959215593645,2.480751721060427e+16,4.612608689788763e+16,8058574826730443.0,1.2911245914717086e+16,82894492965.34026,279836320404.7846,9410853915063.809,338975361107300.9
29.816638399905518,2.509410573926048e+16,4.666723145794065e+16,8151671410483455.0,1.3060402920115992e+16,85818472832.74532,289707132418.80725,9742809756607.523,350933052718690.6
30.51297116790363,2.5382972035267784e+16,4.721296801870501e+16,8245507913452397.0,1.3210745405486586e+16,88834861317.25684,299889898840.9997,10085256709290.34,363268683028697.5
31.223230591261704,2.5674143510360896e+16,4.7763358875070856e+16,8340093240176752.0,1.3362287637458438e+16,91946441493.3723,310394014821.9388,10438510737839.451,375993635880551.94
31.947695203086937,2.5967647617454244e+16,4.831846674382525e+16,8435436308573069.0,1.3515043904093504e+16,95156078615.25948,321229152936.01935,10802897137079.586,389119631335862.06
32.686649107148675,2.6263511854349956e+16,4.887835478046215e+16,8531546051139285.0,1.3669028516815844e+16,98466722483.87814,332405271172.4546,11178750800687.94,402658735362690.1
33.44038208929165,2.6561763767198788e+16,4.9443086595812936e+16,8628431416079133.0,1.3824255812212824e+16,101881409880.0269,343932621148.81494,11566416497434.043,416623369793615.4
34.20918973107749,2.686243095372244e+16,5.001272627252332e+16,8726101368348923.0,1.3980740153712414e+16,105403267065.02553,355821756552.9023,11966249155099.617,431026322560808.56
34.993373525699035,2.716554106620619e+16,5.058733838139799e+16,8824564890629575.0,1.4138495933140524e+16,109035512350.79008,368083541818.8817,12378614152277.258,445880758215326.9
35.793240996213015,2.747112181426756e+16,5.116698799763152e+16,8923830984226034.0,1.4297537572162028e+16,112781458741.09605,380729161043.7224,12803887618252.037,461200228737966.8
36.60910581613728,2.7779200967408988e+16,5.175174071694928e+16,9023908669896566.0,1.4457879523609484e+16,116644516645.85603,393770127150.1475,13242456741174.043,476998684649202.9
37.44128793246003,2.808980635735976e+16,5.234166267167338e+16,9124806988613410.0,1.4619536272701628e+16,120628196670.29776,407218291302.4085,13694720084734.494,493290486425903.3
38.29011369110923,2.8402965880212884e+16,5.293682054673708e+16,9226535002256970.0,1.478252233815596e+16,124736112480.94641,421085852581.35785,14161087913563.51,510090416232682.25
39.15591596493141,2.8718707498362036e+16,5.353728159565901e+16,9329101794245160.0,1.4946852273196596e+16,128971983750.3787,435385367925.432,14641982527571.46,527413689975911.94
40.03903428423004,2.9037059242243612e+16,5.414311365649908e+16,9432516470098928.0,1.5112540666460926e+16,133339639182.74327,450129762344.2918,15137838605461.135,545275969688612.3
40.93981496991464,2.9358049211886548e+16,5.475438516781026e+16,9536788157946158.0,1.5279602142806302e+16,137843019622.09042,465332339412.02356,15649103557643.012,563693376254582.6
41.85861126931294,2.9681705578275612e+16,5.537116518460208e+16,9641926008964282.0,1.5448051364019676e+16,142486181245.60434,481006792046.93915,16176237888789.871,582682502480363.0
