t(s),Total solute volume 1,Total retention volume 1,Total 1 volume 1,Total 2 volume 1,Total 3 volume 1,Total 4 volume 1,Total 5 volume 1,Total 6 volume 1
0.1,1383945849202658.0,3981468685541325.0,887646190648165.1,1709876645690502.0,0.0,0.0,0.0,-3.740371093031155e-123
0.202,1838935950521004.2,6385098314653959.0,1179471504806686.5,2272022473000331.0,170482670866.6659,763590544993.5806,37352649969261.445,1056381663140815.1
0.30604000000000003,2069317771332875.5,8554399614165479.0,1327235674389242.2,2556661688624461.0,387516695627.3824,1735810213922.2834,85320971164446.61,2513740181744905.5
0.41216080000000005,2207033831061382.8,1.0646096970981164e+16,1415565121033843.5,2726811336710803.5,626175509314.4434,2804928532047.088,138161312012731.02,4155094266121042.5
0.5204040160000001,2298046925555849.5,1.2715002728730602e+16,1473939840121166.5,2839258979693339.0,878073889095.4094,3933371254240.5483,193974544875727.1,5904970993341182.0
0.6308120963200001,2362237293846158.5,1.4786214970287714e+16,1515110781369554.0,2918566866651105.0,1139635575735.2996,5105114200414.178,251954535370417.84,7732100743274319.0
0.7434283382464002,2409639848839298.5,1.6873210580273676e+16,1545514218679107.5,2977133236551490.0,1409127108773.864,6312390251649.046,311710253114738.1,9621491505728612.0
0.8582969050113283,2445883996000929.5,1.8984092830777124e+16,1568760785756596.8,3021913277405690.0,1685656333973.4712,7551201844245.691,373039720413400.7,1.15652581930223e+16
0.9754628431115548,2474368404997870.0,2.1124189037819544e+16,1587030348894842.5,3057106080264229.5,1968756065090.5273,8819455558615.412,435836534566805.56,1.3559059457472066e+16
1.094972099973786,2497260304135443.5,2.329727295438188e+16,1601712942553794.0,3085389277893380.5,2258189419477.8726,10116089927756.652,500046192050270.6,1.5600489958401734e+16
1.2168715419732616,2516002404467883.5,2.5506194795945444e+16,1613733904453213.0,3108545354671054.5,2553851538266.68,11440635088303.3,565644013602342.0,1.7688274632124382e+16
1.3412089728127268,2531589399925653.0,2.7753229669388524e+16,1623731219462053.5,3127803265279453.5,2855716970075.549,12792977023910.373,632623304712616.9,1.982183378601473e+16
1.4680331522689813,2544727503616099.5,3.0040281467448776e+16,1632157844281729.8,3144035543407113.5,3163810116900.5415,14173225138967.926,700988691291594.5,2.2001034849596372e+16
1.597393815314361,2555930784621197.0,3.2369007865564508e+16,1639343496720951.2,3157877326831287.5,3478187953688.5044,15581634825943.465,770752213849409.2,2.4226044220762036e+16
1.729341691620648,2565581593045833.0,3.4740900011853508e+16,1645533411602318.5,3169801013174917.0,3798929575432.9526,17018560625026.758,841930958919216.5,2.6497235544910772e+16
1.863928525453061,2573969706087369.0,3.715733506972954e+16,1650913448585430.0,3180164625272499.5,4126129689051.8057,18484427059802.363,914545580407377.8,2.881513115262803e+16
2.001207095962122,2581318408055650.5,3.961961189382461e+16,1655626819581460.0,3189244033300767.0,4459894460705.21,19979710027656.887,988619353427394.4,3.118036367497095e+16
2.1412312378813647,2587802296202216.5,4.212897589347723e+16,1659785509200264.5,3197254954063288.0,4800338810713.428,21504924677102.74,1064177556097637.4,3.3593650314426036e+16
2.284055862638992,2593559703454653.5,4.468663677296182e+16,1663478242544528.2,3204368299406981.5,5147584621139.052,23060617375034.81,1141247058574916.8,3.605577526698458e+16
2.4297369798917723,2598701534309255.0,4.729378146468783e+16,1666776152446343.2,3210721093059278.5,5501759532032.79,24647360312071.49,1219856046064035.0,3.856757751896479e+16
2.578331719489608,2603317659275751.5,4.99515837485506e+16,1669736880788120.5,3216424371031374.5,5862996125224.778,26265747844746.008,1300033830240380.0,4.112994226324496e+16
2.7298983538794,2607481615379895.0,5.2661211542968936e+16,1672407593349137.5,3221568989138586.0,6231431368041.085,27916394002647.91,1381810720115646.0,4.374379479961498e+16
2.884496320956988,2611254110841789.0,5.542383253198474e+16,1674827227664640.2,3226229953067476.5,6607206234338.015,29599930790320.914,1465217933556415.2,4.641009616982976e+16
3.0421862473761276,2614685672186244.0,5.824061858493163e+16,1677028190851036.2,3230469688908851.0,6990465448412.78,31317007039936.58,1550287537046022.5,4.912984002345115e+16
3.2030299723236504,2617818667462098.5,6.1112749287835784e+16,1679037657274771.0,3234340542866862.0,7381357315319.465,33068287651294.664,1637052405358484.2,5.190405036990697e+16
3.3670905717701234,2620688869554511.0,6.404141481325242e+16,1680878571242298.8,3237886712748135.5,7780033612791.126,34854453108005.51,1725546195466996.0,5.473377997751967e+16
3.5344323832055258,2623326676336627.0,6.702781829192048e+16,1682570429590927.0,3241145755472328.0,8186649527673.972,36676199193241.68,1815803330764558.5,5.762010925103516e+16
3.7051210308696363,2625758071887395.0,7.007317780557328e+16,1684129898202524.0,3244149774667214.0,8601363624943.279,38534236851586.9,1907858992852828.8,6.056414546748683e+16
3.879223451487029,2628005390291373.0,7.31787280891555e+16,1685571301895675.8,3246926364351615.5,9024337840879.25,40429292159235.234,2001749118957441.8,6.3567022283659304e+16
4.0568079205167695,2630087927463356.5,7.634572200846578e+16,1686907016842768.5,3249499364851486.0,9455737494395.72,42362106375616.01,2097510403581387.5,6.662989945185684e+16
4.237944078927105,2632022434924800.5,7.95754318631455e+16,1688147787272339.8,3251889472866078.5,9895731312196.28,44333436057056.266,2195180303394041.8,6.9753962697318936e+16
4.422702960505647,2633823521112449.0,8.286915055314376e+16,1689302982863685.2,3254114737289212.5,10344491464616.422,46344053218401.22,2294797044625888.0,7.294042372256958e+16
4.61115701971576,2635503979685361.5,8.622819263806298e+16,1690380809319102.2,3256190964836228.5,10802193609852.871,48394745532288.93,2396399632433165.5,7.619052031264696e+16
4.803380160110075,2637075059772401.0,8.965389531225814e+16,1691388481697452.5,3258132053937793.0,11269016944886.453,50486316558486.99,2500027861836594.5,7.950551652151053e+16
4.9994477633122765,2638546689722977.5,9.314761931364698e+16,1692332367925220.2,3259950271186420.5,11745144261842.828,52619585997666.35,2605722329939654.5,8.288670292461309e+16
5.199436718578522,2639927663377397.0,9.671074978042778e+16,1693218108268134.5,3261656481475597.0,12230762008856.943,54795389965422.52,2713524449206560.5,8.633539692612595e+16
5.403425452950093,2641225795938420.5,1.0034469706703813e+17,1694050715305327.0,3263260340580832.0,12726060354741.871,57014581283413.8,2823476461634830.0,8.985294311194059e+16
5.611493962009095,2642448055043829.0,1.0405089752844613e+17,1694834657997747.8,3264770457101294.0,13231233256938.992,59278029785272.234,2935621453698221.5,9.34407136415627e+16
5.823723841249277,2643600671496692.0,1.0783081428014798e+17,1695573932709236.0,3266194529268335.5,13746478532356.934,61586622635528.4,3050003371966551.5,9.710010867353933e+16
6.040198318074262,2644689233221887.5,1.1168593793987499e+17,1696272123469135.5,3267539461029811.5,14271997930805.104,63941264660235.26,3166667039331878.5,1.0083255682023114e+17
6.261002284435747,2645718765322756.0,1.1561778735594168e+17,1696932453319680.8,3268811460961003.5,14807997210802.76,66342878688308.96,3285658171788173.0,1.0463951562865088e+17
6.486222330124463,2646693798565186.5,1.1962791032631989e+17,1697557828240886.8,3270016126877484.5,15354686217600.734,68792405902860.984,3407023395724948.5,1.0852247208479094e+17
6.715946776726952,2647618428183450.0,1.2371788431183542e+17,1698150874867909.8,3271158518490410.5,15912278963297.094,71290806201989.86,3530810265705665.5,1.1248294313942258e+17
6.950265712261491,2648496364557531.5,1.2788931714634138e+17,1698713972994900.2,3272243220018941.0,16480993708961.293,73839058568653.11,3657067282709623.0,1.1652247625378278e+17
7.18927102650672,2649330977035715.0,1.3214384774628261e+17,1699249283682286.2,3273274394333548.5,17061053048707.348,76438161449356.31,3785843912822378.0,1.2064264996391064e+17
7.433056447036854,2650125331954083.0,1.3648314682170315e+17,1699758773642036.8,3274255829929547.5,17652683995677.137,79089133141485.45,3917190606364423.5,1.248450744626758e+17
7.681717575977592,2650882225725024.5,1.40908917590463e+17,1700244236460231.2,3275190981808331.5,18256118069910.55,81793012189183.95,4051158817451779.0,1.291313921987586e+17
7.935351927497144,2651604213720825.0,1.4542289649719085e+17,1700707311122666.5,3276083007163382.5,18871591388092.0,84550857787729.83,4187801023985131.5,1.3350327849202291e+17
8.194058966047088,2652293635559415.5,1.5002685393830067e+17,1701149498232831.2,3276934796621115.0,19499344755172.73,87363750196411.66,4327170748066624.0,1.3796244216486912e+17
8.45794014536803,2652952637301515.5,1.5472259499424794e+17,1701572174248894.5,3277749001665697.0,20139623757875.914,90232791159943.36,4469322576845156.5,1.4251062618926875e+17
8.72709894827539,2653583190988164.5,1.595119601700572e+17,1701976604014841.8,3278528058777905.0,20792678860099.07,93159104338480.33,4614312183792901.0,1.4714960834928496e+17
9.0016409272409,2654187111881096.0,1.643968261450574e+17,1702363951818264.2,3279274210735804.0,21458765500231.94,96143835746327.83,4762196350416698.0,1.5188120191895904e+17
9.281673745785717,2654766073713313.5,1.6937910653265354e+17,1702735291171879.5,3279989525457014.5,22138144190413.773,99188154199449.34,4913032988409329.0,1.567072563555122e+17
9.567307220701432,2655321622211309.0,1.744607526509047e+17,1703091613486537.8,3280675912705579.0,22831080617756.246,102293251771900.03,5066881162246283.0,1.6162965800786544e+17
9.85865336511546,2655855187112030.5,1.7964375430460323e+17,1703433835778753.0,3281335138939052.5,23537845747562.387,105460344261321.52,5223801112234562.0,1.6665033084052992e+17
10.155826432417769,2656368092865483.0,1.8493014057950266e+17,1703762807535236.8,3281968840531706.0,24258715928573.17,108690671663649.4,5383854278020553.0,1.7177123717295738e+17
10.458942961066125,2656861568186879.0,1.903219806492998e+17,1704079316839516.5,3282578535576308.5,24993973000276.418,111985498657191.38,5547103322564579.0,1.7699437843447507e+17
10.768121820287448,2657336754599280.0,1.9582138459593616e+17,1704384095851115.0,3283165634438694.0,25743904402314.145,115346115096242.27,5713612156590243.0,1.8232179593495827e+17
11.083484256693197,2657794714088573.5,2.0143050424375888e+17,1704677825715329.5,3283731449215521.0,26508803286026.633,118773836514414.73,5883445963516942.0,1.8775557165142195e+17
11.405153941827061,2658236435975887.0,2.0715153400805037e+17,1704961140971136.8,3284277202225272.0,27288968628171.574,122270004637863.02,6056671224884525.0,1.932978290307275e+17
11.733257020663602,2658662843098922.5,2.129867117584233e+17,1705234633515831.8,3284804033645354.0,28084705346860.227,125835987908591.56,6233355746279147.0,1.989507338086285e+17
12.067922161076874,2659074797381543.5,2.1893831969755366e+17,1705498856177278.2,3285313008393361.0,28896324419751.56,129473182018040.12,6413568683769834.0,2.0471649484539392e+17
12.409280604298411,2659473104860768.0,2.2500868525571632e+17,1705754325938181.2,3285805122338029.5,29724143004547.605,133183010451145.45,6597380570865607.0,2.1059736497825808e+17
12.75746621638438,2659858520231678.0,2.312001820015719e+17,1706001526851122.0,3286281307914485.0,30568484561834.19,136966925041083.75,6784863346003002.0,2.165956418909685e+17
13.112615540712067,2660231750963040.5,2.375152305696515e+17,1706240912678285.2,3286742439209184.0,31429678980312.523,140826406534902.7,6976090380574517.0,2.2271366900071117e+17
13.474867851526309,2660593461030138.5,2.439562996049734e+17,1706472909285637.2,3287189336571833.5,32308062704467.008,144762965170257.75,7171136507508272.0,2.2895383636270294e+17
13.844365208556836,2660944274305494.5,2.5052590672522573e+17,1706697916817709.5,3287622770804688.0,33203978864717.13,148778141263470.5,7370078050409820.0,2.353185815927599e+17
14.221252512727972,2661284777643459.5,2.5722661950094035e+17,1706916311676012.2,3288043466973608.5,34117777410100.953,152873505809131.66,7572992853277109.0,2.4181039080815123e+17
14.605677562982532,2661615523690344.0,2.6406105645408986e+17,1707128448321413.5,3288452107879974.0,35049815243539.72,157050661091480.2,7779960310799726.0,2.4843179958706346e+17
14.997791114242183,2661937033448059.0,2.7103188807552816e+17,1707334660918440.5,3288849337228146.0,36000456359732.875,161311241307783.75,7991061399254049.0,2.5518539394701216e+17
15.397746936527026,2662249798616162.5,2.7814183786170726e+17,1707535264837432.0,3289235762519045.0,36970071985734.99,165656913203965.75,8206378708005887.0,2.62073811342539e+17
15.805701875257567,2662554283734221.0,2.8539368337108966e+17,1707730558028626.0,3289611957697095.0,37959040724266.195,170089376722712.25,8425996471632603.0,2.6909974168255014e+17
16.221815912762718,2662850928144131.0,2.927902573006943e+17,1707920822280768.8,3289978465574678.0,38967748699808.54,174610365664310.9,8650000602676945.0,2.762659283676537e+17
16.64625223101797,2663140147789744.0,3.0033444858319994e+17,1708106324375378.2,3290335800055608.0,39996589707542.555,179221648360469.53,8878478725044865.0,2.8357516934786656e+17
17.079177275638333,2663422336869374.5,3.080292035050481e+17,1708287317146638.2,3290684448176817.0,41045965365178.31,183925028361368.75,9111520208060100.0,2.910303182010682e+17
17.5207608211511,2663697869355023.0,3.1587752684597645e+17,1708464040455808.0,3291024871985368.0,42116285267736.99,188722345136213.22,9349216201188280.0,2.986342852325882e+17
17.97117603757412,2663967100390696.5,3.2388248304043654e+17,1708636722088098.2,3291357510266101.0,43207967145338.695,193615474787538.78,9591659669443878.0,3.063900385963147e+17
18.430599558325603,2664230367580995.0,3.3204719736133075e+17,1708805578579146.2,3291682780133715.0,44321437024055.43,198606330779555.12,9838945429493048.0,3.143006054377398e+17
18.899211549492115,2664487992179865.5,3.4037485712653274e+17,1708970815977467.0,3292001078501445.5,45457129389886.94,203696864680788.06,1.0091170186466416e+16,3.223690730593364e+17
19.37719578048196,2664740280188472.5,3.4886871292864256e+17,1709132630548629.0,3292312783437540.5,46615487355919.04,208889066921311.0,1.0348432571495252e+16,3.3059859010869574e+17
19.864739696091597,2664987523370299.5,3.575320798884471e+17,1709291209426311.8,3292618255419423.0,47796962832725.94,214184967564842.9,1.0610833179985588e+16,3.389923677898479e+17
20.36203449001343,2665230000190661.0,3.6636833893254605e+17,1709446731214906.2,3292917838494436.5,49002016702077.17,219586637096008.4,1.087847461064423e+16,3.475536810982038e+17
20.869275179813698,2665467976687190.5,3.75380938095635e+17,1709599366547836.8,3293211861355382.5,50231118994012.766,225096187223052.62,1.1151461505271758e+16,3.562858700795564e+17
21.38666068340997,2665701707277226.0,3.8457339384791763e+17,1709749278605399.8,3293500638338037.0,51484749067350.336,230715771696312.56,1.1429900589337158e+16,3.651923411135959e+17
21.91439389707817,2665931435507408.0,3.9394929244813914e+17,1709896623595560.2,3293784470347286.5,52763395793689.13,236447587142751.0,1.1713900713349494e+16,3.742765682224032e+17
22.452681775019734,2666157394750337.5,4.035122913227513e+17,1710041551200767.5,3294063645717876.5,54067557744976.35,242293873916866.12,1.2003572895041868e+16,3.8354209440437843e+17
23.00173541052013,2666379808852678.5,4.132661204716949e+17,1710184204993651.0,3294338441015117.0,55397743384704.45,248256916968294.16,1.229903036238372e+16,3.9299253299409664e+17
23.561770118730532,2666598892738670.5,4.232145839013311e+17,1710324722824098.2,3294609121780557.0,56754471262806.6,254339046726428.94,1.2600388597437372e+16,4.0263156904856134e+17
24.133005521105144,2666814852972673.0,4.3336156108503475e+17,1710463237180068.2,3294875943227010.0,58138270214320.27,260542640002384.66,1.2907765381075276e+16,4.1246296076036314e+17
24.715665631527248,2667027888284018.5,4.437110084519773e+17,1710599875524223.2,3295139150887008.5,59549679561889.66,266870120908644.94,1.3221280838574464e+16,4.224905408982366e+17
25.309978944157795,2667238190057174.0,4.54266960904644e+17,1710734760608323.8,3295398981218413.5,60989249322178.81,273323961796731.0,1.354105748610535e+16,4.327182182755356e+17
25.91617852304095,2667445942789950.0,4.650335333656302e+17,1710868010767093.8,3295655662170522.5,62457540416268.84,279906684213243.4,1.3867220278132142e+16,4.4314997924714086e+17
26.53450209350177,2667651324522193.0,4.760149223542655e+17,1710999740193205.8,3295909413713745.5,63955124884113.22,286620859874628.44,1.419989665574233e+16,4.53789889235335e+17
27.165192135371807,2667854507237317.0,4.8721540759363885e+17,1711130059194799.5,3296160448335682.5,65482586103126.96,293469111661030.44,1.45392165959233e+16,4.646420942851838e+17
27.808495978079243,2668055657238649.5,4.986393536485964e+17,1711259074436889.8,3296408971506125.0,67040519010986.58,300454114629597.7,1.4885312661804258e+16,4.757108226499702e+17
28.464665897640828,2668254935502618.5,5.1029121159528915e+17,1711386889167857.0,3296655182113406.5,68629530332719.59,307578597047615.1,1.5238320053882066e+16,4.870003864072431e+17
29.133959215593645,2668452498010403.5,5.221755207228679e+17,1711513603432199.0,3296899272874138.5,70250238812161.23,314845341445845.4,1.5598376662249966e+16,4.9851518310604326e+17
29.816638399905518,2668648496059680.5,5.3429691026792806e+17,1711639314270475.0,3297141430718442.5,71903275447861.88,322257185692465.06,1.5965623119848202e+16,5.1025969744589075e+17
30.51297116790363,2668843076558021.0,5.466601011823104e+17,1711764115907472.5,3297381837152392.5,73589283733524.36,329817024087989.6,1.6340202856756516e+16,5.222385029881146e+17
31.223230591261704,2669036382299136.5,5.592699079348874e+17,1711888099929399.2,3297620668599324.5,75308919903057.84,337527808481593.06,1.6722262155548228e+16,5.344562639001266e+17
31.947695203086937,2669228552223338.5,5.7213124034795616e+17,1712011355450940.0,3297858096721652.5,77062853180329.42,345392549409221.4,1.711195020772626e+16,5.469177367332445e+17
32.686649107148675,2669419721663258.5,5.852491054688916e+17,1712133969272854.0,3298094288724457.0,78851766033703.64,353414317253932.0,1.750941917126191e+16,5.596277722346816e+17
33.44038208929165,2669610022575965.5,5.986286094777023e+17,1712256026030852.5,3298329407642261.0,80676354435454.02,361596243428864.75,1.7914824229257258e+16,5.7259131719433216e+17
34.20918973107749,2669799583762373.0,6.122749596311571e+17,1712377608336324.5,3298563612610107.0,82537328126137.98,369941521583288.0,1.8328323649752824e+16,5.85813416326987e+17
34.993373525699035,2669988531074849.5,6.26193466244156e+17,1712498796909505.2,3298797059120102.5,84435410884024.5,378453408832156.75,1.8750078846702244e+16,5.992992141906333e+17
35.793240996213015,2670176987613923.5,6.40389544709024e+17,1712619670705619.5,3299029899264377.0,86371340799667.72,387135227009624.4,1.918025444213609e+16,6.130539571414947e+17
36.60910581613728,2670365073914728.0,6.548687175534308e+17,1712740307034482.0,3299262281965493.0,88345870555717.19,395990363946968.3,1.9619018329537572e+16,6.270829953264755e+17
37.44128793246003,2670552908123975.0,6.696366165376396e+17,1712860781674002.5,3299494353195097.5,90359767712063.31,405022274775388.9,2.00665417384531e+16,6.413917847137059e+17
38.29011369110923,2670740606168110.5,6.846989847917957e+17,1712981168978040.0,3299726256181647.0,92413814996410.97,414234483254156.7,2.052299930036123e+16,6.559858891618566e+17
39.15591596493141,2670928281913193.0,7.000616789939983e+17,1713101541978945.0,3299958131607984.5,94508810600381.52,423630583124581.25,2.098856911582351e+16,6.708709825289494e+17
40.03903428423004,2671116047317141.5,7.15730671589878e+17,1713221972485201.0,3300190117799394.5,96645568481241.5,433214239490292.2,2.1463432822941824e+16,6.86052850821363e+17
40.93981496991464,2671304012574797.0,7.31712053054449e+17,1713342531174480.5,3300422350902863.0,98824918669358.72,442989190224333.2,2.1947775667147076e+16,7.015373943837565e+17
