t(s),Total solute volume 1,Total retention volume 1,Total 1 volume 1,Total 2 volume 1,Total 3 volume 1,Total 4 volume 1,Total 5 volume 1,Total 6 volume 1
0.1,1090211262672958.4,1436790320131653.8,152346489675587.4,194232567783107.2,0.0,0.0,0.0,0.0
0.202,1640334861352815.5,2165094004374820.0,229220948225508.12,292242861842148.25,2509102557.3391976,5960566960.361336,118830067992.61026,3168033216837.4727
0.30604000000000003,2058387133080199.8,2721104526495847.5,287639714203165.7,366723260037864.7,6360005952.60981,15108700375.209064,301213635032.2534,8031736833258.311
0.41216080000000005,2411066661429976.5,3192373635445877.5,336923270832690.8,429556817840710.4,11286506653.144657,26812010408.06498,534540298578.99963,14254246526860.545
0.5204040160000001,2723415303361114.5,3611746817133424.0,380570975731431.3,485205005049176.3,17169022834.41146,40786422383.40599,813146149775.9811,21684431396706.24
0.6308120963200001,3007918670768438.5,3995593007156416.0,420327572542028.0,535892264465646.4,23942224212.902775,56876740846.39807,1133936960599.578,30239743454643.477
0.7434283382464002,3271835402220659.5,4353427785866755.5,457207385877754.0,582911798717471.6,31567618696.59301,74991526736.49664,1495089671159.6272,39871550234280.484
0.8582969050113283,3519815183793121.0,4691348845296710.0,491860164445370.56,627091998163686.8,40022276003.93351,95076309413.11745,1895518282796.6484,50550882026322.625
0.9754628431115548,3755043075904142.5,5013536785553835.0,524730989665942.44,669000314733534.1,49293264096.89796,117100369959.09158,2334610345393.1885,62261401270778.22
1.094972099973786,3979810946607630.5,5323004150505559.0,556140127956994.75,709045068764790.4,59374562552.8391,141049408657.04697,2812080764208.2915,74995502440733.8
1.2168715419732616,4195831309128022.0,5622006591082935.0,586326886496016.9,747531362453905.9,70265203314.22752,166921128201.59445,3327883740196.708,88751962933278.42
1.3412089728127268,4404422489712145.5,5912285334068911.0,615475488638815.0,784694069451733.6,81968080511.22134,194722406347.7621,3882156399968.331,103534439379385.36
1.4680331522689813,4606624175984152.0,6195218414353216.0,643731220685756.1,820718421015290.2,94489152192.20216,224467399568.11578,4475180987770.548,119350459128475.44
1.597393815314361,4803272846785475.0,6471919354104423.0,671210972473141.1,855753444625135.5,107836884897.66147,256176223603.63858,5107358559264.494,136210718552914.53
1.729341691620648,4995052873528444.0,6743303986326338.0,698010378293664.2,889921068227640.8,122021855686.817,289874008056.20184,5779190132715.86,154128580280130.9
1.863928525453061,5182532232362112.0,7010137136252398.0,724208807326542.9,923322482731972.0,137056460137.38278,325590202728.8506,6491262859369.278,173119704309541.28
2.001207095962122,5366188129717326.0,7273066106289099.0,749872944559862.6,956042707469800.8,152954693942.78833,363358058802.90137,7244239679598.837,193201772109769.16
2.1412312378813647,5546425813102831.0,7532645248783395.0,775059419417596.6,988153941535948.8,169731987007.97116,403214234729.8597,8038851465533.238,214394277039744.12
2.284055862638992,5723592655411560.0,7789354360106302.0,799816773905312.6,1019718073055319.4,187405075869.53033,445198493166.22754,8875890978826.945,236718363186243.4
2.4297369798917723,5897988885194315.0,8043612691968893.0,824186962062274.2,1050788590893710.2,205991904664.5321,489353465728.2807,9756208180574.734,260196700267621.6
2.578331719489608,6069875888359632.0,8295789790568104.0,848206510043769.5,1081412063692737.2,225511547749.35916,535724469178.659,10680706566634.818,284853385888392.56
2.7298983538794,6239482719647948.0,8546213998314050.0,871907426036718.0,1111629299957262.5,245984149000.8925,584359361243.6165,11650340293076.92,310713868868792.0
2.884496320956988,6407011273159917.0,8795179205459247.0,895317922791050.4,1141476269239256.5,267430874157.91925,635308427408.8676,12666111919258.182,337804889048190.2
3.0421862473761276,6572640433913762.0,9042950272394956.0,918462997759739.2,1170984841781294.5,289873873489.3293,688624292248.0408,13729070640011.314,366154430134421.6
3.2030299723236504,6736529444961324.0,9289767429006552.0,941364903620722.2,1200183388403587.2,313336252738.0485,744361850411.3855,14840310909803.648,395791683007969.8
3.3670905717701234,6898820663434297.0,9535849877510044.0,964043533407750.6,1229097271522547.2,337842050769.9527,802578213543.2828,16000971384473.21,426747017496670.2
3.5344323832055258,7059641835414400.0,9781398768357580.0,986516738401514.0,1257749250442759.5,363416222710.41675,863332670236.659,17212234122884.969,459051961083067.06
3.7051210308696363,7219107988148589.0,1.0026599677799208e+16,1008800592548415.4,1286159818474984.5,390084627614.658,926686656758.5171,18475324003333.93,492739183339520.7
3.879223451487029,7377323015181073.0,1.0271624685705744e+16,1030909613967490.1,1314347485344045.2,417874019917.09576,992703736753.4329,19791508318945.13,527842485137508.06
4.0568079205167695,7534381012975683.0,1.0516634130053816e+16,1052856951730431.2,1342329015322117.0,446812044056.7881,1061449588492.8601,21162096523517.766,564396791869515.6
4.237944078927105,7690367414863576.0,1.0761778097841976e+16,1074654544319851.5,1370119629253424.5,476927231793.29706,1132991998516.502,22588440104809.676,602438150069992.4
4.422702960505647,7845359958505026.0,1.100719769961174e+16,1096313254822705.5,1397733176917698.0,508249001818.5974,1207400860728.9014,24071932566586.074,642003726937180.4
4.61115701971576,7999429515673258.0,1.1253026165116656e+16,1117842986884573.4,1425182284864858.2,540807661342.4024,1284748180184.8943,25614009504152.902,683131812348259.8
4.803380160110075,8152640807471729.0,1.1499389790247844e+16,1139252784654360.5,1452478483838499.5,574634409385.1652,1365108080932.667,27216148760788.24,725861823032146.6
4.9994477633122765,8305053023659180.0,1.174640875953847e+16,1160550919328992.0,1479632319115133.2,609761341558.4032,1448556817390.9075,28879870654637.094,770234308621549.4
5.199436718578522,8456720361274366.0,1.199419786402565e+16,1181744964421014.2,1506653446465817.2,646221456148.5043,1535172788823.5251,30606738267364.3,816290959352109.4
5.403425452950093,8607692494997062.0,1.2242867130658924e+16,1202841861486992.5,1533550715955934.0,684048661349.8033,1625036556545.4958,32398357787259.875,864074615213789.6
5.611493962009095,8758014989488348.0,1.2492522376582194e+16,1223847977748104.2,1560332245407919.5,723277783516.759,1718230863550.6912,34256378900635.918,913629276390109.6
5.823723841249277,8907729662192842.0,1.2743265699324082e+16,1244769156788211.5,1587005485038283.0,763944576324.8885,1814840656299.641,36182495226287.69,965000114845830.8
6.040198318074262,9056874903665778.0,1.299519591208159e+16,1265610763316512.5,1613577274527251.0,806085730746.3823,1914953108443.7407,38178444788564.63,1018233486944286.2
6.261002284435747,9205485961335126.0,1.32484089317795e+16,1286377722820534.5,1640053893573952.8,849738885759.8654,2018657646294.6812,40246010525238.92,1073376946992595.8
6.486222330124463,9353595191667996.0,1.3502998126364248e+16,1307074556803949.0,1666441106822513.2,894942639725.0205,2126045975874.4985,42387020826889.914,1130479261627301.0
6.715946776726952,9501232284937848.0,1.3759054626783768e+16,1327705414195631.8,1692744203906696.8,941736562362.2614,2237212111404.296,44603350104973.9,1189590424964836.2
6.950265712261491,9648424466152586.0,1.401666760827723e+16,1348274099427414.2,1718968035247350.5,990161207285.5929,2352252405108.368,46896919386123.88,1250761674451339.2
7.18927102650672,9795196675175356.0,1.4275924544910944e+16,1368784097604225.2,1745117044142787.5,1040258125043.4941,2471265578226.661,49269696930539.36,1314045507354788.2
7.433056447036854,9941571728629830.0,1.4536911440724636e+16,1389238597128789.0,1771195295613971.0,1092069876628.4297,2594352753141.819,51723698872606.22,1379495697849674.8
7.681717575977592,1.0087570465815176e+16,1.4799713040374542e+16,1409640510091843.0,1797206502400754.5,1145640047420.4976,2721617486539.1836,54260989882108.67,1447167314650701.0
7.935351927497144,1.0233211880546182e+16,1.5064413021758992e+16,1429992490695513.8,1823154048450561.0,1201013261534.868,2853165803527.501,56883683844600.92,1517116739157046.0
8.194058966047088,1.0378513240574196e+16,1.5331094172772584e+16,1450296951941218.8,1849041010194539.0,1258235196546.324,2989106232657.1333,59593944559677.055,1589401684073754.5
8.45794014536803,1.0523490196024394e+16,1.5599838554050602e+16,1470556080782773.0,1874870175866747.0,1317352598567.4392,3129549841780.096,62393986456024.22,1664081212480339.2
8.72709894827539,1.0668156878097666e+16,1.5870727649320676e+16,1490771851918985.2,1900644063088964.0,1378413297659.5227,3274610274702.3296,65286075322277.53,1741215757320418.8
9.0016409272409,1.081252598912605e+16,1.6143842504773282e+16,1510946040378047.0,1926364934914972.5,1441466223558.0647,3424403788584.9336,68272529052809.2,1820867141289236.8
9.281673745785717,1.0956608884933992e+16,1.6419263858684776e+16,1531080233026724.8,1952034814504117.0,1506561421696.3257,3579049292055.6387,71355718407682.2,1903098597098522.0
9.567307220701432,1.1100415650341344e+16,1.6697072262375678e+16,1551175839121169.2,1977655498572934.5,1573750069512.8713,3738668383996.7666,74538067786093.66,1987974788100615.2
9.85865336511546,1.1243955168542558e+16,1.6977348193454966e+16,1571234100002005.2,2003228569755801.0,1643084493030.2979,3903385392979.4653,77822056012709.45,2075561829255878.5
10.155826432417769,1.1387235185010478e+16,1.7260172162191502e+16,1591256098024245.2,2028755407990034.8,1714618183694.0972,4073327417318.1646,81210217136364.7,2165927308429376.5
10.458942961066125,1.1530262366496784e+16,1.75456248117527e+16,1611242764802026.8,2054237201027477.2,1788405815461.8896,4248624365722.0146,84705141240674.56,2259140308004562.5
10.768121820287448,1.1673042355637046e+16,1.783378701296921e+16,1631194888839182.5,2079674954162936.8,1864503262134.6248,4429408998523.425,88309475266151.34,2355271426803244.5
11.083484256693197,1.1815579821610446e+16,1.812473995420919e+16,1651113122608403.8,2105069499259743.0,1942967614922.4153,4615816969466.551,92025923843491.02,2454392802302753.0
11.405153941827061,1.195787850725499e+16,1.841856522688231e+16,1670997989135159.5,2130421503143848.2,2023857200238.8086,4807986868040.8545,95857250137732.83,2556578133142314.5
11.733257020663602,1.2099941272995844e+16,1.871534490703762e+16,1690849888136240.5,2155731475430077.2,2107231597718.3945,5006060262347.885,99806276703051.56,2661902701912305.5
12.067922161076874,1.2241770137905516e+16,1.9015161633470416e+16,1710669101757542.0,2180999775837467.0,2193151658453.4177,5210181742491.1045,103875886347984.52,2770443398220956.5
12.409280604298411,1.2383366318181836e+16,1.931809868271052e+16,1730455799950962.5,2206226621044490.8,2281679523446.213,5420498964481.238,108069023010939.27,2882278742034367.5
12.75746621638438,1.2524730263299632e+16,1.9624240041225464e+16,1750210045526305.5,2231412091129901.2,2372878642274.9966,5637162694651.463,112388692645873.31,2997488907286808.0
13.112615540712067,1.266586169006619e+16,1.9933670475140364e+16,1769931798910121.2,2256556135640003.5,2466813791971.462,5860326854578.659,116837964118066.95,3116155745759442.0
13.474867851526309,1.2806759614786694e+16,2.024647559774555e+16,1789620922640585.8,2281658579319338.5,2563551096109.4556,6090148566509.619,121419970109967.61,3238362811226380.5
13.844365208556836,1.294742238372638e+16,2.056274193503725e+16,1809277185624252.8,2306719127537779.5,2663158044104.827,6326788199291.933,126137908037102.72,3364195383868339.5
14.221252512727972,1.3087847702036552e+16,2.088255698951338e+16,1828900267178206.0,2331737371444022.0,2765703510727.3125,6570409414812.175,130995040974112.44,3493740494954949.0
14.605677562982532,1.322803266129638e+16,2.1206009302427172e+16,1848489760878751.5,2356712792872473.5,2871257775826.0786,6821179214945.383,135994698590977.08,3627086951797794.5
14.997791114242183,1.336797376580684e+16,2.1533188514680564e+16,1868045178235726.8,2381644769027718.0,2979892544271.5005,7079267989021.563,141140278099566.16,3764325362977444.0
15.397746936527026,1.3507666957760302e+16,2.186418542652588e+16,1887565952209747.0,2406532576968863.5,3091680966116.197,7344849561817.498,146435245210657.62,3905548163848324.0
15.805701875257567,1.3647107641398408e+16,2.219909205622722e+16,1907051440587986.5,2431375397913364.5,3206697656979.5674,7618101242083.01,151883135101625.66,4050849642326712.5
16.221815912762718,1.378629070625806e+16,2.253800169782254e+16,1926500929232616.5,2456172321378702.5,3325018718660.414,7899203871613.587,157487553395020.66,4200325964967863.5
16.64625223101797,1.3925210549598222e+16,2.288100897811313e+16,1945913635214722.5,2480922349177842.0,3446721759983.286,8188341874882.549,163252177148316.7,4354075203339129.5
17.079177275638333,1.4063861098090134e+16,2.322820991299877e+16,1965288709845294.5,2505624399283586.5,3571885917884.932,8485703309248.035,169180755855122.8,4512197360697458.0
17.5207608211511,1.4202235828845314e+16,2.3579701963266708e+16,1984625241613702.2,2530277309574995.5,3700591878747.9795,8791479915752.011,175277112458205.22,4674794398979951.0
17.97117603757412,1.4340327789850018e+16,2.3935584089934116e+16,2003922259043198.2,2554879841477917.0,3832921899989.6655,9105867170530.365,181545144374697.3,4841970266117760.0
18.430599558325603,1.4478129619866876e+16,2.4295956809236484e+16,2023178733471988.2,2579430683510746.5,3968959831914.5864,9429064336854.805,187988824533915.28,5013830923684198.0
18.899211549492115,1.4615633567859112e+16,2.466092224734697e+16,2042393581767587.8,2603928454745023.5,4108791139840.7075,9761274517829.686,194612202428236.4,5190484374889347.0
19.37719578048196,1.4752831511987384e+16,2.503058419490644e+16,2061565668981418.2,2628371708189875.0,4252502926509.235,10102704709768.227,201419405177534.16,5372040692933977.0
19.864739696091597,1.4889714978223672e+16,2.5405048161437812e+16,2080693810949944.2,2652758934108361.5,4400183954789.341,10453565856275.375,208414638607700.22,5558612049737095.0
20.36203449001343,1.5026275158622742e+16,2.5784421429713164e+16,2099776776847927.2,2677088563272680.0,4551924670689.77,10814072903065.164,215602188343828.2,5750312745052235.0
20.869275179813698,1.5162502929287122e+16,2.6168813110138184e+16,2118813291698846.2,2701358970164779.0,4707817226690.14,11184444853543.95,222986420918666.4,5947259235988514.0
21.38666068340997,1.5298388868057108e+16,2.655833419521378e+16,2137802038846931.8,2725568476128103.5,4867955505405.408,11564904825191.658,230571784896995.06,6149570166954009.0
21.91439389707817,1.5433923271955122e+16,2.6953097614131532e+16,2156741662394799.5,2749715352475419.0,5032435143598.245,11955680106775.586,238362812016608.53,6357366400039184.0
22.452681775019734,1.5569096174408354e+16,2.7353218287555588e+16,2175630769610206.0,2773797823557233.0,5201353556554.039,12357002216433.488,246364118346634.66,6570771045860214.0
23.00173541052013,1.5703897362272494e+16,2.77588131826417e+16,2194467933304912.2,2797814069794759.5,5374809962835.218,12769106960664.072,254580405463958.16,6789909494882152.0
23.561770118730532,1.5838316392675026e+16,2.8170001368339748e+16,2213251694188376.2,2821762230680710.0,5552905409431.162,13192234494265.432,263016461648548.78,7014909449243411.0
24.133005521105144,1.5972342609694642e+16,2.858690407102529e+16,2231980563198547.2,2845640407750906.5,5735742797321.809,13626629381263.482,271677163098545.7,7245900955104021.0
24.715665631527248,1.6105965160890466e+16,2.900964473050224e+16,2250653023811664.5,2869446667529159.5,5923426907473.264,14072540656875.025,280567475165963.6,7483016435540631.0
25.309978944157795,1.6239173013692354e+16,2.943834905641753e+16,2269267534332645.5,2893179044447346.5,6116064427284.605,14530221890550.977,289692453613960.56,7726390724013345.0
25.91617852304095,1.6371954971662096e+16,2.98731450851252e+16,2287822530167413.5,2916835543742517.0,6313763977505.979,14999931250147.875,299057245896605.5,7976161098428908.0
26.53450209350177,1.650429969063199e+16,3.031416323703867e+16,2306316426078136.5,2940414144332176.0,6516636139648.917,15481931567277.785,308667092462142.1,8232467315827315.0
27.165192135371807,1.6636195694726878e+16,3.076153637450477e+16,2324747618422139.0,2963912801668742.0,6724793483910.085,15976490403887.348,318527328080785.9,8495451647718433.0
27.808495978079243,1.6767631392272462e+16,3.1215399860234484e+16,2343114487374906.0,2987329450573809.0,6938350597631.096,16483880120119.928,328643383198102.8,8765258916097472.0
28.464665897640828,1.6898595091592338e+16,3.1675891616323236e+16,2361415399137639.0,3010662008052524.5,7157424114317.095,17004377943515.57,339020785315075.94,9042036530167814.0
29.133959215593645,1.7029075016694024e+16,3.2143152183891736e+16,2379648708129140.5,3033908376088256.5,7382132743237.952,17538266039605.137,349665160395983.75,9325934523801490.0
29.816638399905518,1.7159059322842626e+16,3.261732478337885e+16,2397812759162140.0,3057066444417177.0,7612597299636.208,18085831583957.47,360582234305252.25,9617105593768032.0
30.51297116790363,1.7288536112020068e+16,3.3098555375515132e+16,2415905889603561.5,3080134093282486.0,7848940735566.954,18647366835738.375,371777834274475.0,9915705138763246.0
31.223230591261704,1.741749344826604e+16,3.3586992723007124e+16,2433926431518248.5,3103109196167574.0,8091288171394.981,19223169212843.383,383257890400817.25,1.0221891299270216e+16
31.947695203086937,1.7545919372896192e+16,3.408278845295969e+16,2451872713795602.0,3125989622507305.0,8339766927975.493,19813541368666.688,395028437178053.94,1.0535824998285874e+16
32.686649107148675,1.7673801919591458e+16,3.4586097120064116e+16,2469743064258123.0,3148773240376347.5,8594506559545.1045,20418791270569.684,407095615061509.75,1.0857669982946586e+16
33.44038208929165,1.7801129129351932e+16,3.5097076270579748e+16,2487535811751112.0,3171457919153320.5,8855638887350.062,21039232280114.797,419465672068218.3,1.1187592867087676e+16
34.20918973107749,1.792788906530783e+16,3.5615886507133828e+16,2505249288212340.5,3194041532159576.5,9123298034039.676,21675183235130.613,432144965413596.2,1.1525763174771276e+16
34.993373525699035,1.805406982737878e+16,3.614269155436733e+16,2522881830720516.0,3216521959270842.0,9397620458852.893,22326968533675.305,445139963185995.1,1.1872353384818654e+16
35.793240996213015,1.817965956677267e+16,3.667765832545165e+16,2540431783521399.5,3238897089500428.5,9678744993626.65,22994918219967.617,458457246060483.9,1.2227538976383072e+16
36.60910581613728,1.83046465003142e+16,3.722095698950081e+16,2557897500030084.0,3261164823551940.0,9966812879654.434,23679368072353.03,472103509053242.5,1.2591498475599262e+16
37.44128793246003,1.842901892459302e+16,3.777276103990502e+16,2575277344808019.5,3283323076339940.0,10261967805425.146,24380659693376.617,486085563317966.8,1.2964413503347142e+16
38.29011369110923,1.8552765229920548e+16,3.8333247363610024e+16,2592569695513369.0,3305369779476502.5,10564355945270.562,25099140602031.855,500410337985677.44,1.334646882416664e+16
39.15591596493141,1.8675873914084332e+16,3.890259631136695e+16,2609772944823053.5,3327302883721674.5,10874125998951.969,25835164328257.855,515084882049377.75,1.3737852396361378e+16
40.03903428423004,1.8798333595888724e+16,3.9480991768975496e+16,2626885502324928.5,3349120361395968.5,11191429232215.416,26589090509755.02,530116366294965.6,1.4138755423328968e+16
40.93981496991464,1.89201330284703e+16,4.006862122954694e+16,2643905796378458.5,3370820208752542.5,11516419518345.822,27361284991192.668,545512085279842.8,1.4549372406156232e+16
41.85861126931294,1.904126111237554e+16,4.066567586680908e+16,2660832275942221.5,3392400448307151.0,11849253380749.465,28152119925879.754,561279459360668.8,1.4969901197516938e+16
42.7957834946992,1.9161706908389204e+16,4.127235060947863e+16,2677663412366569.5,3413859131123731.5,12190090036595.926,28961973879971.652,577426036771690.6,1.5400543056910842e+16
