t(s),Total solute volume 1,Total retention volume 1,Total 1 volume 1,Total 2 volume 1,Total 3 volume 1,Total 4 volume 1,Total 5 volume 1,Total 6 volume 1
0.1,1323473711248431.8,2617890617675497.5,487117646595586.6,807299259831480.0,0.0,0.0,0.0,-8.892789209081686e-83
0.202,1928474178118042.0,4017439020176424.5,709794104190189.9,1176340767502451.5,42222149282.34408,150138493271.08746,5438579989256.669,197199029733930.84
0.30604000000000003,2349326405336908.5,5149954677202616.0,864692957217987.8,1433054450772530.2,103900424572.59035,369466274329.88654,13391917993967.57,489015579182320.9
0.41216080000000005,2674840602290328.0,6161337742514464.0,984501698479195.0,1631613331283790.0,179223289892.06702,637315784665.6079,23106984376004.664,846458587010595.5
0.5204040160000001,2939822395061955.0,7105995081079260.0,1082030885877496.2,1793248335881122.8,265278289540.02127,943330193187.8138,34207688920337.945,1255477166855615.8
0.6308120963200001,3162214339550623.0,8010637254675166.0,1163884455804588.2,1928904160591133.0,360280978284.3092,1281164017404.8699,46463725487346.21,1707529128245785.0
0.7434283382464002,3352745226958372.0,8890566005469539.0,1234011246642568.2,2045125210119936.0,463025921058.6243,1646530766449.3286,59719538382906.94,2196855226678250.0
0.8582969050113283,3518449559025177.5,9755465231890534.0,1295000376747715.2,2146202426791941.2,572651525954.3948,2036366665595.1985,73863944926342.61,2719339906207812.5
0.9754628431115548,3664237392577035.0,1.0611911625520088e+16,1348659041380984.8,2235130872798355.0,688519538314.9805,2448402131818.9067,88814579358686.38,3271932817734890.5
1.094972099973786,3793694147480156.0,1.1464616707627532e+16,1396306889990186.8,2314097601315539.5,810145830105.8207,2880915659425.1973,104508961409047.58,3852318045943066.5
1.2168715419732616,3909528609398865.5,1.2317102218273924e+16,1438940918084316.8,2384754931596825.5,937157392588.5306,3332580885813.77,120898947358848.1,4458709073556673.5
1.3412089728127268,4013842355181279.5,1.3172094524081514e+16,1477334631927730.0,2448384794487106.5,1069264032307.3096,3802365942582.938,137947078563438.05,5089714033947074.0
1.4680331522689813,4108300983010023.0,1.4031768164054384e+16,1512101071500630.8,2506003180288214.0,1206238914390.6914,4289464267777.4614,155624071503009.06,5744243154570344.0
1.597393815314361,4194247841509489.5,1.4897903154157428e+16,1543734669628276.8,2558429511834739.5,1347904724033.5303,4793245396388.747,173907032631256.62,6421442948433245.0
1.729341691620648,4272782333583204.5,1.5771990422861254e+16,1572640072487175.2,2606334408677707.0,1494123551131.1277,5313218990362.422,192778153505635.4,7120648112066040.0
1.863928525453061,4344815463321280.5,1.6655304711786304e+16,1599152584196789.0,2650273569876901.5,1644789329006.8105,5849007950936.995,212223735375064.94,7841345561736321.0
2.001207095962122,4411110243107025.0,1.7548956334249312e+16,1623553039056988.5,2690712421738397.5,1799822075947.2764,6400327941745.858,232233446308674.47,8583147034020533.0
2.1412312378813647,4472311724714859.5,1.8453928774065884e+16,1646078854792284.8,2728044436340051.5,1959163440046.3665,6966971546468.376,252799746434358.7,9345767876797824.0
2.284055862638992,4528969735549711.0,1.9371106550466916e+16,1666932400850848.8,2762605000301284.0,2122773205603.9705,7548795845760.757,273917437206039.47,1.012901040750766e+16
2.4297369798917723,4581556371570115.0,2.030129623762086e+16,1686287436848820.2,2794682085207366.0,2290626521464.841,8145712561399.927,295583303793834.6,1.0932750701117836e+16
2.578331719489608,4630479647893976.0,2.124524257271447e+16,1704294136811486.2,2824524574277019.0,2462711679711.991,8757680157486.572,317795828466296.94,1.175692799342852e+16
2.7298983538794,4676094285344204.0,2.220364097700375e+16,1721083059268706.0,2852348841995742.0,2639028319566.04,9384697453681.781,340554958823339.25,1.2601536105798498e+16
2.884496320956988,4718710329587801.0,2.3177147415222412e+16,1736768319614744.5,2878344011663196.0,2819585963726.178,10026798420609.982,363861918915266.4,1.3466616451057042e+16
3.0421862473761276,4758600107756607.0,2.416638625167057e+16,1751450150561729.8,2902676198828970.0,3004402817403.3413,10684047909400.617,387719054251643.8,1.435225228954483e+16
3.2030299723236504,4796003894253011.0,2.517195657896823e+16,1765216987495814.2,2925491967350340.0,3193504776928.9585,11356538126487.938,412129703848906.4,1.5258563983116746e+16
3.3670905717701234,4831134563291612.0,2.619443736871818e+16,1778147180891364.0,2946921167373904.0,3386924607024.2456,12044385708175.504,437098094039239.94,1.6185705052806866e+16
3.5344323832055258,4864181438094963.0,2.7234391703778876e+16,1790310413045793.2,2967079283288131.5,3584701254886.784,12747729281732.197,462629249933304.56,1.7133858888880058e+16
3.7051210308696363,4895313497368765.0,2.829237028763872e+16,1801768878254603.2,2986069389625841.0,3786879276078.781,13466727424065.064,488728921309908.5,1.8103235994379468e+16
3.879223451487029,4924682063276542.0,2.936891437971159e+16,1812578272147241.0,3003983790689094.5,3993508352396.356,14201556947486.703,515403520375798.44,1.9094071667923016e+16
4.0568079205167695,4952423067920309.0,3.0464558271022748e+16,1822788625887822.2,3020905403068901.5,4204642885892.151,14952411456295.459,542660069353712.0,2.0106624050449812e+16
4.237944078927105,4978658974762900.0,3.157983138918083e+16,1832445013373756.2,3036908927684523.5,4420341656320.911,15719500128899.047,570506156256342.1,2.114117247531807e+16
4.422702960505647,5003500415719228.0,3.2715260102285892e+16,1841588153783463.2,3052061848384944.5,4640667531700.716,16503046688829.545,598949897516395.4,2.2198016072661296e+16
4.61115701971576,5027047592533620.0,3.3871369276799908e+16,1850254927367243.0,3066425286768426.0,4865687223592.775,17303288534790.25,627999906389346.0,2.3277472587982896e+16
4.803380160110075,5049391481642970.0,3.5048683633189356e+16,1858478818909157.8,3080054737131235.0,5095471080219.961,18120476005269.76,657665266241154.2,2.4379877382179372e+16
4.9994477633122765,5070614874341632.0,3.62477289344721e+16,1866290300570061.2,3093000700952906.5,5330092911756.997,18954871757572.5,687955507989739.6,2.5505582585948416e+16
5.199436718578522,5090793278231013.0,3.746903303603581e+16,1873717163675088.0,3105309236767206.5,5569629843101.316,19806750244583.66,718880591094832.5,2.665495638618001e+16
5.403425452950093,5109995701295964.0,3.871312681977895e+16,1880784807300782.5,3117022438437181.5,5814162190223.019,20676397275396.63,750450887592752.5,2.782838242568664e+16
5.611493962009095,5128285336233431.0,3.998054503141896e+16,1887516490149070.5,3128178852585579.0,6063773356835.551,21564109648214.9,782677168755557.0,2.9026259300690264e+16
5.823723841249277,5145720159663833.0,4.127182703646415e+16,1893933551092954.5,3138813844104942.5,6318549748653.663,22470194845810.49,815570594021843.5,3.0249000142986076e+16
6.040198318074262,5162353458427363.0,4.258751750765849e+16,1900055602885126.2,3148959917190625.0,6578580702938.023,23394970785357.125,849142701902215.1,3.149703227576489e+16
6.261002284435747,5178234293189215.0,4.392816705454708e+16,1905900702792470.0,3158646998133158.0,6843958431382.271,24338765615725.758,883405402608499.6,3.2770796933776612e+16
6.486222330124463,5193407907956108.0,4.529433280405181e+16,1911485503322700.2,3167902685117293.0,7114777974694.3545,25301917556382.004,918370972193963.1,3.4070749039930656e+16
6.715946776726952,5207916092771888.0,4.6686578939520984e+16,1916825385718097.2,3176752469461016.5,7391137167470.308,26284774772901.3,954052048023607.2,3.5397357031605984e+16
6.950265712261491,5221797505756208.0,4.810547720454076e+16,1921934578485033.0,3185219932054398.0,7673136612165.338,27287695284851.832,990461625420191.6,3.675110273092799e+16
7.18927102650672,5235087959732736.0,4.955160737683678e+16,1926826262890350.2,3193326918198575.5,7960879661138.999,28311046902408.586,1027613055354013.0,3.813248125409755e+16
7.433056447036854,5247820677928616.0,5.1025557716793096e+16,1931512667074089.8,3201093693578678.0,8254472405898.101,29355207188581.906,1065520043063205.8,3.95420009555541e+16
7.681717575977592,5260026522585670.0,5.2527925394459304e+16,1936005150192117.8,3208539083713322.5,8554023672783.368,30420563444380.07,1104196647507278.8,4.098018340334373e+16
7.935351927497144,5271734199785370.0,5.405931689835954e+16,1940314277804004.2,3215680598894822.0,8859645024450.582,31507512714598.49,1143657281570087.8,4.244756338256614e+16
8.194058966047088,5282970443334723.0,5.5620348428960856e+16,1944449889554040.0,3222534546356861.5,9171450766585.695,32616461812243.56,1183916712939864.0,4.394468892419653e+16
8.45794014536803,5293760180175401.0,5.721164627926709e+16,1948421160051737.0,3229116131171691.0,9489557959369.764,33747827359867.652,1224990065603762.5,4.547212135694523e+16
8.72709894827539,5304126679451513.0,5.883384720468101e+16,1952236653737672.5,3235439547179234.0,9814086433273.17,34902035846325.6,1266892821902771.8,4.703043538013019e+16
9.0016409272409,5314091687092627.0,6.048759878399789e+16,1955904374418148.0,3241518059080776.0,10145158808816.064,36079523697656.664,1309640825099964.8,4.862021915579992e+16
9.281673745785717,5323675547530567.0,6.217355977316322e+16,1959431810064243.0,3247364076684427.5,10482900519978.258,37280737360971.78,1353250282421313.5,5.024207441858164e+16
9.567307220701432,5332897313964340.0,6.389240045322489e+16,1962825973395928.8,3252989222165122.0,10827439840984.252,38506133400367.91,1397737768533654.8,5.189661660192447e+16
9.85865336511546,5341774848412091.0,6.56448029737422e+16,1966093438707194.0,3258404391094821.5,11178907916224.41,39756178604023.03,1443120229428926.5,5.358447497957883e+16
10.155826432417769,5350324912637579.0,6.743146169276652e+16,1969240375332412.0,3263619807906366.0,11537438793104.56,41031350101732.05,1489414986687917.0,5.530629282130734e+16
10.458942961066125,5358563250907970.0,6.925308351438733e+16,1972272578106222.5,3268645076374503.0,11903169457643.084,42332135492244.13,1536639742100177.2,5.706272756194858e+16
10.768121820287448,5366504665426973.0,7.1110388224725416e+16,1975195495127389.0,3273489225628966.0,12276239872658.357,43659032979840.72,1584812582619859.0,5.88544509830697e+16
11.083484256693197,5374163085187979.0,7.300410882716611e+16,1978014253100927.0,3278160752153939.5,12656793018409.822,45012551519672.14,1633951985639786.8,6.068214940654541e+16
11.405153941827061,5381551628907647.0,7.493499187754509e+16,1980733680501416.2,3282667658176588.5,13044974935574.242,46393210971430.06,1684076824568600.5,6.2546523899483816e+16
11.733257020663602,5388682662624474.0,7.690379781992821e+16,1983358328772736.2,3287017486801351.0,13440934770453.928,47801542260993.48,1735206374697606.5,6.444829049000072e+16
12.067922161076874,5395567852482597.0,7.891130132357147e+16,1985892491755664.2,3291217354207286.0,13844824822328.61,49238087549731.97,1787360319346000.0,6.638818039340784e+16
12.409280604298411,5402218213163261.0,8.095829162158802e+16,1988340223513568.8,3295273979190572.0,14256800592874.047,50703400411196.5,1840558756274570.0,6.836694024844182e+16
12.75746621638438,5408644152376666.0,8.304557285181366e+16,1990705354708069.0,3299193710303875.0,14677020837581.732,52198046014965.6,1894822204359453.2,7.038533236321311e+16
13.112615540712067,5414855511782549.0,8.517396440031451e+16,1992991507660269.2,3302982550817294.5,15105647619123.922,53722601317448.84,1950171610518776.8,7.244413497059904e+16
13.474867851526309,5420861604669080.0,8.734430124794982e+16,1995202110218833.8,3306646181701964.0,15542846362616.03,55277655259480.83,2006628356886079.8,7.454414249285184e+16
13.844365208556836,5426671250685252.0,8.955743432037488e+16,1997340408543628.0,3310189982816296.0,15988785912737.166,56863808970565.31,2064214268225459.2,7.668616581522088e+16
14.221252512727972,5432292807891911.0,9.181423084183966e+16,1999409478902383.0,3313619052456630.5,16443638592675.281,58481675979654.12,2122951619584195.2,7.887103256843214e+16
14.605677562982532,5437734202369169.0,9.411557469311715e+16,2001412238568011.2,3316938225417326.0,16907580264870.32,60131882432367.64,2182863144179481.8,8.109958741988605e+16
14.997791114242183,5443002955594695.0,9.646236677387891e+16,2003351455895456.2,3320152089691135.0,17380790393533.805,61815067314580.484,2243972041516560.8,8.337269237347293e+16
15.397746936527026,5448106209785745.0,9.88555253698098e+16,2005229759649094.8,3323265001927453.0,17863452108928.234,63531882682318.38,2306301985736111.5,8.569122707792013e+16
15.805701875257567,5453050751379232.0,1.0129598652475085e+17,2007049647644787.2,3326281101754841.0,18355752273394.8,65282993897923.125,2369877134189563.0,8.805608914361123e+16
16.221815912762718,5457843032807156.0,1.037847044181337e+17,2008813494764563.8,3329204325063686.5,18857881549120.38,67069079872460.35,2434722136241213.5,9.046819446783546e+16
16.64625223101797,5462489192709759.0,1.0632265174796728e+17,2010523560396259.0,3332038416335980.0,19370034467640.51,68890833314356.375,2500862142296785.0,9.292847756844654e+16
17.079177275638333,5466995074715491.0,1.089108201196246e+17,2012181995345671.0,3334786940100762.0,19892409501076.188,70748960984263.06,2568322813058250.5,9.543789192591915e+16
17.5207608211511,5471366244904531.0,1.1155022044066824e+17,2013790848264204.0,3337453291586698.0,20425209135107.812,72644183956158.9,2637130329005405.0,9.799741033381626e+16
17.97117603757412,5475608008062373.0,1.1424188332194542e+17,2015352071631128.2,3340040706636445.5,20968639943689.324,74577237884706.86,2707311400104711.5,1.0060802525768226e+17
18.430599558325603,5479725422819725.0,1.1698685948518205e+17,2016867527326002.0,3342552270941811.5,21522912665511.23,76548873278897.73,2778893275746682.5,1.0327074920240315e+17
18.899211549492115,5483723315766748.0,1.197862201772906e+17,2018338991823528.0,3344990928653233.5,22088242282221.484,78559855782013.45,2851903754912878.0,1.0598661508806998e+17
19.37719578048196,5487606294621609.0,1.2264105759161318e+17,2019768161040408.2,3347359490412410.5,22664848098416.133,80610966457959.02,2926371196574385.0,1.0875667663440792e+17
19.864739696091597,5491378760526427.0,1.255524852963061e+17,2021156654860952.5,3349660640852643.0,23252953823413.285,82703002084010.77,3002324530323465.0,1.1158200875383517e+17
20.36203449001343,5495044919537150.0,1.2852163867007894e+17,2022506021366063.5,3351896945607461.5,23852787654826.74,84836775450043.72,3079793267240704.0,1.1446370795322282e+17
20.869275179813698,5498608793368329.0,1.315496753454921e+17,2023817740787952.2,3354070857864851.0,24464582363955.945,87013115664299.92,3158807510999860.5,1.1740289274444274e+17
21.38666068340997,5502074229448585.0,1.3463777566001698e+17,2025093229211157.8,3356184724500873.0,25088575383011.367,89232868465770.73,3239397969213067.0,1.2040070406379445e+17
21.91439389707817,5505444910337629.0,1.3778714311506285e+17,2026333842038566.8,3358240791823962.0,25725008894196.812,91496896543268.6,3321595965019200.5,1.2345830570040598e+17
22.452681775019734,5508724362551783.0,1.4099900484316771e+17,2027540877239741.8,3360241210958304.0,26374129920669.277,93806079861270.72,3405433448918340.5,1.2657688473371765e+17
23.00173541052013,5511915964840777.0,1.4427461208356144e+17,2028715578397265.8,3362188042892626.0,27036190419400.883,96161315992621.92,3490943010855511.5,1.2975765198016312e+17
23.561770118730532,5515022955955269.0,1.4761524066629053e+17,2029859137565684.8,3364083263218251.5,27711447375967.094,98563520458186.75,3578157892557005.5,1.330018424491601e+17
24.133005521105144,5518048441941391.0,1.510221915051172e+17,2030972697956299.2,3365928766578633.0,28400162901287.004,101013627073549.3,3667112000122879.5,1.3631071580854317e+17
24.715665631527248,5520995402995422.0,1.544967910993823e+17,2032057356460133.5,3367726370850662.5,29102604330343.324,103512588302858.66,3757839916879116.0,1.3968555685956358e+17
25.309978944157795,5523866699909564.0,1.5804039204503885e+17,2033114166020337.5,3369477821076439.5,29819044322909.625,106061375619928.77,3850376916493460.0,1.4312767602159632e+17
25.91617852304095,5526665080136730.0,1.616543735550596e+17,2034144137864399.0,3371184793162750.5,30549760966315.113,108660979876695.62,3944758976358766.5,1.4663840982669373e+17
26.53450209350177,5529393183500735.0,1.6534014198941395e+17,2035148243605854.8,3372848897364173.0,31295037880276.023,111312411679151.81,4041022791247917.0,1.5021912142413574e+17
27.165192135371807,5532053547575704.0,1.690991313948264e+17,2036127417224216.5,3374471681564464.0,32055164323826.562,114016701770867.06,4139205787244757.0,1.538712010951224e+17
27.808495978079243,5534648612757104.0,1.729328040545159e+17,2037082556931416.0,3376054634369794.0,32830435304380.473,116774901424223.56,4239346135955153.0,1.5759606677777405e+17
28.464665897640828,5537180727044769.0,1.7684265104812886e+17,2038014526932260.0,3377599188026329.5,33621151688957.465,119588082839481.25,4341482769002920.5,1.613951646025941e+17
29.133959215593645,5539652150557069.0,1.8083019282206454e+17,2038924159085898.0,3379106721173807.0,34427620317608.3,122457339551808.64,4445655392815107.0,1.652699694385631e+17
29.816638399905518,5542065059793720.0,1.8489697977041526e+17,2039812254474797.2,3380578561445802.5,35250154119073.86,125383786846403.58,4551904503701453.0,1.692219854500341e+17
30.51297116790363,5544421551663583.0,1.890445928267268e+17,2040679584887219.5,3382015987926593.0,36089072228715.055,128368562181841.69,4660271403232933.0,1.7325274666460608e+17
31.223230591261704,5546723647292483.0,1.9327464406679296e+17,2041526894218719.5,3383420233473921.0,36944700108748.42,131412825621790.86,4770798213924344.0,1.7736381755215286e+17
31.947695203086937,5548973295625221.0,1.9758877732270397e+17,2042354899797911.0,3384792486916135.0,37817369670828.47,134517760275229.05,4883527895226102.0,1.8155679361519264e+17
32.686649107148675,5551172376834639.0,2.0198866880836896e+17,2043164293641199.2,3386133895131682.0,38707419401012.33,137684572745314.05,4998504259830528.0,1.8583330199078458e+17
33.44038208929165,5553322705549906.0,2.0647602775672893e+17,2043955743640982.0,3387445565018293.5,39615194487148.97,140914493587049.4,5115771990297930.0,1.9019500206414755e+17
34.20918973107749,5555426033915273.0,2.110525970688905e+17,2044729894691459.0,3388728565358829.0,40541046948730.03,144208777773899.6,5235376656007990.0,1.946435860941943e+17
34.993373525699035,5557484054489672.0,2.1572015397540355e+17,2045487369755863.5,3389983928589939.0,41485335769248.414,147568705173507.2,5357364730442120.0,1.9918077985118326e+17
35.793240996213015,5559498402997047.0,2.204805107099124e+17,2046228770878743.2,3391212652479757.0,42448427031100.37,150995581032669.28,5481783608802474.0,2.0380834326669005e+17
36.60910581613728,5561470660936352.0,2.25335515195414e+17,2046954680146589.2,3392415701719953.5,43430694053080.7,154490736471732.03,5608681625973377.0,2.0852807109611328e+17
37.44128793246003,5563402358059670.0,2.3028705174336362e+17,2047665660599948.5,3393594009437352.0,44432517530507.984,158055528988574.62,5738108074831267.0,2.1334179359391645e+17
38.29011369110923,5565294974726485.0,2.3533704176585018e+17,2048362257099921.8,3394748478629993.5,45454285678030.01,161691342972333.44,5870113224909119.0,2.1825137720183446e+17
39.15591596493141,5567149944141215.0,2.4048744450110502e+17,2049044997151720.2,3395879983532020.0,46496394375150.98,165399590227056.62,6004748341421604.0,2.2325872525025594e+17
40.03903428423004,5568968654481147.0,2.4574025775256912e+17,2049714391687869.8,3396989370911660.5,47559247314527.77,169181710505443.0,6142065704657174.0,2.2836577867301142e+17
40.93981496991464,5570752450920977.0,2.5109751864177808e+17,2050370935813361.8,3398077461306176.5,48643256153081.75,173039172052854.4,6282118629743676.0,2.335745167357878e+17
41.85861126931294,5572502637560069.0,2.5656130437530944e+17,2051015109514996.8,3399145050197475.5,49748840665974.56,176973472161774.9,6424961486793813.0,2.388869577784154e+17
