t(s),Total solute volume 1,Total retention volume 1,Total 1 volume 1,Total 2 volume 1,Total 3 volume 1,Total 4 volume 1,Total 5 volume 1,Total 6 volume 1
0.1,1038034012882719.0,1307672365282961.0,121693262551923.95,147945089848319.12,0.0,0.0,0.0,0.0
0.202,1563478464341189.2,1969620908712773.5,183293412018750.5,222833705495643.62,15006812.81553475,33134567.679653924,591987175.0226196,14686728637.92348
0.30604000000000003,1963776418957101.8,2473923299109723.0,230222090435692.28,279885899838232.25,38074360.5404303,84067018.40417907,1501970384.558701,37265766933.937904
0.41216080000000005,2302386617461073.0,2900520630411247.5,269918843609879.88,328146088436562.44,67629805.28475337,149324558.1576573,2667895886.9703517,66196053481.7203
0.5204040160000001,2603102777480892.5,3279386532030284.0,305173113059407.3,371005454885088.6,102975051.94209436,227365811.69799376,4062223641.278651,100794040390.48106
0.6308120963200001,2877782618102283.5,3625458486201318.5,337375031013509.6,410154012577265.5,143735755.86331943,317364236.5271128,5670185837.291299,140693222424.52872
0.7434283382464002,3133318670340094.0,3947419200242239.5,367332639003053.56,446574114825668.25,189698015.2443054,418847543.56148607,7483344130.283793,185684183733.69443
0.8582969050113283,3374126621696643.0,4250831251690854.0,395563607369663.5,480895104496701.9,240741271.94143924,531549543.9028919,9496942548.022224,235648894482.5628
0.9754628431115548,3603232461196405.0,4539506594937074.0,422422686029458.44,513548258622662.3,296805252.358501,655337155.223124,11708603310.300154,290528342827.91565
1.094972099973786,3822815145704309.5,4816190171130949.0,448165323617082.3,544844131551605.06,357871660.55151564,790169980.6513511,14117604627.43826,350304611683.65594
1.2168715419732616,4034504532357888.0,5082935219916198.0,472982595406687.94,575015017565435.9,423953178.8623126,936076022.4842083,16724446780.253477,414990110211.82465
1.3412089728127268,4239557103944789.5,5341324643833405.0,497021804365851.8,604239996020226.1,495086451.25459236,1093136189.5919387,19530575316.531845,484620704568.221
1.4680331522689813,4438965590700230.5,5592609100546854.0,520399332597902.0,632660555118544.2,571327399.4947312,1261473955.6800246,22538196277.262608,559251132548.7804
1.597393815314361,4633530510149392.0,5837797122475066.0,543209028270268.1,660390788076957.1,652747985.245746,1441248210.0860543,25750148463.41151,638951833784.9979
1.729341691620648,4823908619588867.0,6077716152875633.0,565527885910597.2,687524298783066.2,739433910.2398622,1632648179.827442,29169812709.35285,723806698304.7651
1.863928525453061,5010646768216700.0,6313055189656636.0,587420015039891.8,714139026547366.6,831482948.527698,1835889747.2562277,32801046091.32434,813911433880.0325
2.001207095962122,5194206182067177.0,6544395377279580.0,608939487201513.6,740300707297079.9,929003718.4704844,2051212738.6538603,36648133483.448105,909372363867.7327
2.1412312378813647,5374980286709610.0,6772232458126019.0,630132425394066.8,766065413744222.8,1032114769.2199272,2278878907.2057204,40715751520.066055,1010305532920.9818
2.284055862638992,5553308049018848.0,6996993579210872.0,651038568185430.5,791481456912357.0,1140943897.6094313,2519170424.71726,45008941647.63301,1116836038261.9744
2.4297369798917723,5729484139911318.0,7219050094255895.0,671692461134730.5,816590834573662.6,1255627637.5310261,2772388754.173688,49533089981.04035,1229097529809.2224
2.578331719489608,5903766795744237.0,7438727466768499.0,692124378418500.9,841430351689517.2,1376310880.9741123,3038853813.005033,54293912353.89287,1347231839194.1155
2.7298983538794,6076383983659647.0,7656313036604856.0,712361045620931.1,866032499121974.9,1503146601.377677,3318903362.2565475,59297443404.972595,1471388708936.0586
2.884496320956988,6247538296795281.0,7872062186554269.0,732426213620800.6,890426151320351.1,1636295657.82548,3612892574.2580514,64550028853.88977,1601725600757.5986
3.0421862473761276,6417410884537064.0,8086203293375217.0,752341119352165.4,914637126477807.5,1775926664.1318965,3921193743.5699434,70058320336.61778,1738407567423.0134
3.2030299723236504,6586164640062048.0,8298941743250425.0,772124859493946.9,938688640833736.6,1922215910.8030398,4244196114.6763234,75829272326.91087,1881607176338.003
3.3670905717701234,6753946809432253.0,8510463218580599.0,791794696345398.6,962601680533088.6,2075347330.7124534,4582305806.198775,81870140782.22722,2031504475942.68
3.5344323832055258,6920891145283207.0,8720936411114564.0,811366310312424.0,986395308579379.0,2235512501.43237,4935945816.044449,88188483235.68085,2188286997987.4785
3.7051210308696363,7087119698413889.0,8930515278954378.0,830854009943498.0,1010086920179804.9,2402910678.729459,5305556095.364619,94792160117.40494,2352149790316.627
3.879223451487029,7252744318835985.0,9139340937577136.0,850270907904228.5,1033692456681298.8,2577748856.9191365,5691593681.816024,101689337135.46156,2523295475943.8335
4.0568079205167695,7417867921733944.0,9347543254724336.0,869629069391380.2,1057226586000600.2,2760241852.6780276,6094532884.617493,108888488582.15819,2701934335091.6475
4.237944078927105,7582585561718419.0,9555242203809184.0,888939638072314.9,1080702855731515.8,2950612409.614601,6514865515.439582,116398401459.25043,2888284407551.037
4.422702960505647,7746985349618681.0,9762549018979422.0,908212943564545.8,1104133823810119.6,3149091321.443751,6953101160.371739,124228180337.05768,3082571613252.722
4.61115701971576,7911149239068884.0,9969567186169362.0,927458593650713.2,1127531170622452.5,3355917572.042145,7409767489.161472,132387252879.50952,3285029889363.166
4.803380160110075,8075153704748932.0,1.017639329767854e+16,946685553791700.9,1150905795670295.0,3571338491.0032096,7885410598.676346,140885375980.63672,3495901342553.12
4.9994477633122765,8239070329939156.0,1.0383117792522592e+16,965902216008250.9,1174267901312056.0,3795609923.585203,8380595388.145616,149732642468.8578,3715436415355.859
5.199436718578522,8402966317751751.0,1.0589825600648718e+16,985116458814857.0,1197627065625637.0,4028996414.1678095,8895905964.228363,158939488344.1675,3943894065748.65
5.403425452950093,8566904937793471.0,1.079659670582348e+16,1004335699583974.9,1220992306068754.8,4271771402.513684,9431946074.354694,168516700520.46548,4181541959269.2153
5.611493962009095,8730945917938316.0,1.1003506639384834e+16,1023566940475263.2,1244372135316082.8,4524217432.279994,9989339567.114334,178475425051.1344,4428656673123.541
5.823723841249277,8895145789222936.0,1.1210626914952242e+16,1042816808869164.1,1267774610415199.5,4786626371.347924,10568730878.739573,188827175820.83447,4685523911862.335
6.040198318074262,9059558190534356.0,1.1418025412496344e+16,1062091593086778.5,1291207376212045.0,5059299643.640881,11170785544.95459,199583843690.5122,4952438734303.803
6.261002284435747,9224234138669168.0,1.16257667187969e+16,1081397274050098.8,1314677703840884.5,5342548472.188498,11796190737.655184,210757706086.0405,5229705791464.575
6.486222330124463,9389222268452962.0,1.1833912430194706e+16,1100739553432237.5,1338192524947200.2,5636694133.266154,12445655826.043491,222361437023.78702,5517639575332.787
6.715946776726952,9554569046878524.0,1.2042521422625052e+16,1120123878761805.2,1361758462207578.0,5942068221.502541,13119912961.979435,234408117568.86417,5816564678377.515
6.950265712261491,9720318964619248.0,1.2251650093160162e+16,1139555465874844.2,1385381856624995.0,6259012925.901483,13819717689.430883,246911246723.92157,6126816063741.935
7.18927102650672,9886514707773924.0,1.24613525766596e+16,1159039319049233.8,1409068792006696.0,6587881316.769928,14545849578.004435,259884752748.20117,6448739346112.848
7.433056447036854,1.0053197312285304e+16,1.2671680940604456e+16,1178580249107859.0,1432825116972544.5,6929037643.586192,15299112880.631712,273343004908.14948,6782691083299.021
7.681717575977592,1.022040630312566e+16,1.2882685360753072e+16,1198182889735918.8,1456656464792355.0,7282857643.8765545,16080337215.562574,287300825662.3258,7129039078586.059
7.935351927497144,1.0388179820051596e+16,1.3094414279888716e+16,1217851712223737.5,1480568271309019.5,7649728863.202036,16890378272.888712,301773503284.5785,7488162693966.366
8.194058966047088,1.055655473148461e+16,1.3306914551620222e+16,1237591038817475.8,1504565791169283.2,8030050986.384241,17730118545.883377,316776804930.60376,7860453174371.433
8.45794014536803,1.0725566737865906e+16,1.3520231570933488e+16,1257405054835842.2,1528654112554256.5,8424236180.126197,18600468087.50072,332326990154.02545,8246313983058.22
8.72709894827539,1.0895250465656374e+16,1.3734409392971224e+16,1277297819690143.0,1552838170576764.2,8832709447.206966,19502365292.43014,348440824879.04205,8646161148325.098
9.0016409272409,1.1065639549823502e+16,1.3949490841444748e+16,1297273276561612.0,1577122759071354.0,9255908992.336668,20436777745.81465,365135615541.37036,9060427685998.484
9.281673745785717,1.1236766724794564e+16,1.41655176072004e+16,1317335263036122.0,1601512543422484.8,9694286600.56338,21404702896.091633,382429145664.37415,9489547812074.576
9.567307220701432,1.1408663876914096e+16,1.4382530339153156e+16,1337487517296230.2,1626012068243657.8,10148308026.82718,22407169157.663334,400339808046.7997,9933981413948.17
9.85865336511546,1.158136212279789e+16,1.4600568727200916e+16,1357733687278774.2,1650625768409389.8,10618453399.078825,23445236640.2374,418886543247.61084,10394198481602.293
10.155826432417769,1.1754891866365932e+16,1.4819671578523476e+16,1378077337368141.0,1675357977217725.5,11105217633.636417,24519998105.87565,438088875212.2655,10870683480734.51
10.458942961066125,1.192928285423902e+16,1.5039876887806878e+16,1398521954890677.2,1700212934285589.5,11609110863.706713,25632579915.16008,457966928177.73584,11363935772630.797
10.768121820287448,1.210456422677644e+16,1.5261221901990092e+16,1419070956098029.8,1725194792822887.8,12130658881.272486,26784143002.871918,478541444104.57574,11874470046723.281
11.083484256693197,1.2280764565173442e+16,1.548374318006178e+16,1439727691688598.0,1750307626345059.0,12670403592.66782,27975883883.892082,499833800648.9658,12402816766546.768
11.405153941827061,1.2457911934991694e+16,1.5707476648378024e+16,1460495451910817.5,1775555434877202.0,13228903488.178192,29209035690.069817,521866029688.0227,12949522629423.844
11.733257020663602,1.2636033926454446e+16,1.5932457651918744e+16,1481377471287122.0,1800942150697152.5,13806734126.016588,30484869238.83206,544660836412.2354,13515151040222.887
12.067922161076874,1.2815157691802828e+16,1.6158721001857124e+16,1502376932993368.0,1826471643659626.5,14404488631.041853,31804694134.343903,568241618999.4774,14100282599546.94
12.409280604298411,1.2995309979977778e+16,1.6386301019775568e+16,1523496972924792.0,1852147726139258.8,15022778208.599277,33169859902.059338,592632488885.5631,14705515606725.303
12.75746621638438,1.3176517168865514e+16,1.6615231578827606e+16,1544740683476263.5,1877974157626363.8,15662232673.87762,34581757157.530975,617858291646.9316,15331466577994.762
13.112615540712067,1.335880529531889e+16,1.684554614211501e+16,1566111117061803.2,1903954649005705.8,16323500997.191303,36041818810.38367,643944628511.5796,15978770780269.0
13.474867851526309,1.3542200083146424e+16,1.7077277798520524e+16,1587611289395879.8,1930092866545620.2,17007251865.610779,37551521304.38365,670917878514.8741,16648082780911.576
13.844365208556836,1.3726726969240994e+16,1.7310459296214978e+16,1609244182556602.2,1956392435621974.8,17714174261.37729,39112385894.56821,698805221317.5453,17340077013938.902
14.221252512727972,1.3912411128004116e+16,1.7545123074034272e+16,1631012747849069.5,1982856944199260.2,18444978057.554325,40725979962.43298,727634660703.6357,18055448363096.12
14.605677562982532,1.4099277494205918e+16,1.7781301290903916e+16,1652919908485323.5,2009489946088632.2,19200394631.38101,42393918370.206116,757435048776.772,18794912762260.754
14.997791114242183,1.4287350784407734e+16,1.801902585347167e+16,1674968562095861.2,2036294964001216.5,19981177495.80805,44117864855.26769,788236110873.7291,19559207813646.152
15.397746936527026,1.4476655517062842e+16,1.8258328442093756e+16,1697161583086093.2,2063275492412899.8,20788102949.711063,45899533465.81171,820068471214.8442,20349093424287.01
15.805701875257567,1.466721603139944e+16,1.849924053530663e+16,1719501824850081.2,2090435000255656.8,21621970747.29324,47740690038.87268,852963679311.3461,21165352461309.496
16.221815912762718,1.4859056505180784e+16,1.8741793432904388e+16,1741992121852675.8,2117776933448762.5,22483604787.199745,49643153721.88191,886954237150.4136,22008791426497.523
16.64625223101797,1.5052200971428994e+16,1.8986018277731656e+16,1764635291590067.0,2145304717282372.0,23373853821.888107,51608798538.944305,922073627179.2305,22880241150686.773
17.079177275638333,1.524667333419104e+16,1.9231946076290536e+16,1787434136438131.2,2173021758664543.8,24293592187.808937,53639555003.065445,958356341110.0366,23780557508529.99
17.5207608211511,1.5442497383418754e+16,1.9479607718253756e+16,1810391445396878.2,2200931448241997.5,25243720556.97048,55737411775.595375,995837909568.7605,24710622154195.04
17.97117603757412,1.5639696809028176e+16,1.972903399496608e+16,1833509995738676.5,2229037162403933.5,26225166710.47591,57904417374.18635,1034554932610.4386,25671343278571.508
18.430599558325603,1.5838295214198434e+16,1.998025561701114e+16,1856792554567354.8,2257342265177401.0,27238886334.638763,60142681930.60332,1074545111125.3514,26663656388578.824
18.899211549492115,1.6038316127964672e+16,2.0233303230912564e+16,1880241880294514.0,2285850110022179.0,28285863840.298435,62454378999.76155,1115847279160.3887,27688525109184.945
19.37719578048196,1.6239783017155828e+16,2.048820743503349e+16,1903860724039042.2,2314564041532090.0,29367113205.975975,64841747421.40149,1158501437180.8835,28746942008762.402
19.864739696091597,1.6442719297722362e+16,2.074499879473389e+16,1927651830955144.5,2343487397049596.0,30483678845.52674,67307093235.853775,1202548786298.8342,29839929448422.777
20.36203449001343,1.664714834549774e+16,2.1003707856838756e+16,1951617941493912.5,2372623508199460.5,31636636500.96524,69852791655.3845,1248031763494.2036,30968540455993.46
20.869275179813698,1.685309350643099e+16,2.1264365163467664e+16,1975761792602966.8,2401975702347235.0,32827094161.155277,72481289092.64952,1294994077856.4915,32133859625312.258
21.38666068340997,1.706057810632758e+16,2.15270012652711e+16,2000086118868397.8,2431547303987465.5,34056193007.076794,75195105247.83263,1343480747874.8562,33337004041538.508
21.91439389707817,1.726962546013042e+16,2.17916467341165e+16,2024593653602852.8,2461341636066581.0,35325108384.401245,77996835256.07857,1393538139805.4553,34579124233195.227
22.452681775019734,1.7480258880772454e+16,2.205833217526176e+16,2049287129883321.8,2491362021244498.0,36635050804.12508,80889151896.87973,1445214007145.7048,35861405151676.61
23.00173541052013,1.7692501687628148e+16,2.232708823905439e+16,2074169281541970.0,2521611783099223.0,37987266972.03116,83874807867.11433,1498557531245.7708,37185067178974.62
23.561770118730532,1.7906377214590152e+16,2.2597945632187532e+16,2099242844112989.2,2552094247277969.5,39383040847.76887,86956638119.48218,1553619363088.5088,38551367164398.02
24.133005521105144,1.8121908817794936e+16,2.287093512854584e+16,2124510555738322.0,2582812742598202.0,40823694734.363365,90137562268.1306,1610451666269.8037,39961599491076.63
24.715665631527248,1.8339119883019868e+16,2.3146087579668396e+16,2149975158034829.0,2613770602101964.5,42310590398.98624,93420587063.30042,1669108161212.1265,41417097173065.3
25.309978944157795,1.85580338327717e+16,2.3423433924856916e+16,2175639396925333.0,2644971164066126.5,43845130225.839294,96808808936.88544,1729644170644.9993,42919232983882.02
25.91617852304095,1.8778674133086356e+16,2.3703005200952372e+16,2201506023435750.5,2676417772971503.0,45428758402.02838,100305416620.82588,1792116666386.8232,44469420617336.1
26.53450209350177,1.900106430005629e+16,2.3984832551804868e+16,2227577794460361.0,2708113780433210.0,47062962137.32449,103913693840.33092,1856584317463.517,46069115881523.38
27.165192135371807,1.922522790610341e+16,2.4268947237456756e+16,2253857473497183.5,2740062546094656.5,48749272918.72927,107637022083.94594,1923107539600.2708,47719817926889.695
27.808495978079243,1.9451188586011188e+16,2.4555380643060308e+16,2280347831355166.0,2772267438487301.0,50489267800.79276,111478883452.56445,1991748546123.504,49423070509283.24
28.464665897640828,1.9678970042730956e+16,2.484416428754761e+16,2307051646834856.5,2804731835858192.5,52284570732.64539,115442863589.50232,2062571400311.319,51180463288940.79
29.133959215593645,1.990859605297536e+16,2.5135329832070864e+16,2333971707384177.0,2837459126967132.0,54136853922.73968,119532654693.83347,2135642069231.4185,52993633166376.67
29.816638399905518,2.014009047261037e+16,2.5428909088229244e+16,2361110809730535.5,2870452711855212.5,56047839242.31118,123752058619.22551,2211028479106.545,54864265656166.016
30.51297116790363,2.037347724185782e+16,2.5724934026096452e+16,2388471760490739.5,2903716002586281.5,58019299668.604355,128104990060.56741,2288800572248.4766,56794096299636.95
31.223230591261704,2.0608780390318504e+16,2.602343678206492e+16,2416057376759891.5,2937252423962867.0,60053060768.92417,132595479830.74725,2369030365602.551,58784912117512.81
31.947695203086937,2.084602404182531e+16,2.6324449666518444e+16,2443870486680337.0,2971065414217849.0,62151002226.60591,137227678229.98232,2451792010945.7427,60838553103567.4
32.686649107148675,2.1085232419135184e+16,2.662800517134516e+16,2471913929991708.5,3005158425683197.5,64315059410.02008,142005858510.1711,2537161856782.386,62956913760383.96
33.44038208929165,2.1326429848467892e+16,2.6934135977303524e+16,2500190558563038.5,3039534925436852.0,66547224985.75244,146934420436.78702,2625218511982.4,65141944678330.43
34.20918973107749,2.1569640763898736e+16,2.7242874961249908e+16,2528703236907743.5,3074198395928768.5,68849550577.13147,152017893950.89615,2716042911208.3574,67395654158890.92
34.993373525699035,2.181488971161162e+16,2.7554255203238024e+16,2557454842682216.0,3109152335587107.5,71224148469.29504,157260942933.93552,2809718382178.312,69720109883517.87
35.793240996213015,2.2062201354017936e+16,2.786830999349834e+16,2586448267168681.0,3144400259405281.0,73673193362.01976,162668369077.95303,2906330714812.6646,72117440629193.64
36.60910581613728,2.2311600473745796e+16,2.818507283930347e+16,2615686415742936.0,3179945699510487.0,76198924171.55957,168245115864.0556,3005968232314.1016,74589838031916.27
37.44128793246003,2.2563111977503384e+16,2.8504577471727096e+16,2645172208327212.0,3215792205714354.0,78803645882.7671,173996272651.8885,3108721864231.0254,77139558399347.0
38.29011369110923,2.2816760899818668e+16,2.882685785229894e+16,2674908579828581.5,3251943346045908.5,81489731452.7962,179927078882.99976,3214685221555.425,79768924573883.42
39.15591596493141,2.3072572406656484e+16,2.9151948179560216e+16,2704898480563073.0,3288402707267150.5,84259623767.70598,186042928401.01666,3323954673907.378,82480327847440.84
40.03903428423004,2.333057179891338e+16,2.947988289551939e+16,2735144876665309.0,3325173895371084.5,87115837653.31583,192349373891.60626,3436629428859.3384,85276229929250.73
40.93981496991464,2.3590784515786892e+16,2.981069669200726e+16,2765650750483580.0,3362260536061997.0,90060961941.67537,198852131445.23157,3552811613453.8745,88159164968001.36
41.85861126931294,2.385323613801677e+16,3.0144424516928292e+16,2796419100959743.0,3399666275217311.0,93097661594.53372,205557085245.7676,3672606357969.573,91131741629664.47
42.7957834946992,2.411795239099019e+16,3.0481101580400444e+16,2827452943993328.0,3437394779330253.5,96228679885.21281,212470292388.07114,3796121881990.3525,94196645232370.06
43.751699164593184,2.438495914770314e+16,3.08207633607747e+16,2858755312788685.0,3475449735931867.5,99456840640.29803,219597987827.62552,3923469582833.908,97356639939693.38
