t(s),Total solute volume 1,Total retention volume 1,Total 1 volume 1,Total 2 volume 1,Total 3 volume 1,Total 4 volume 1,Total 5 volume 1,Total 6 volume 1
0.1,1198922522623410.5,1797285705327306.5,247551059597552.8,350812123106343.5,0.0,0.0,0.0,0.0
0.202,1799940936118906.8,2709934952859225.0,371648111202098.6,526673844544307.1,5108614003.812736,14279389472.978392,363034833751.61694,11289638156682.873
0.30604000000000003,2254672045216351.5,3409500740696798.5,465540058088749.2,659730981588259.0,12926298909.39289,36131151587.06113,918659239084.6765,28589939113855.047
0.41216080000000005,2636421358716389.0,4004597574713735.5,544362873305830.3,771433192358259.8,22899547504.688797,64008112355.33845,1627502095407.3064,50665740577986.98
0.5204040160000001,2972819088156841.0,4536063562872150.0,613821586427002.1,869865248788503.0,34774697628.16503,97201243321.36002,2471530330072.4155,76954133228784.11
0.6308120963200001,3277662478430925.0,5024255096958790.0,676765024314279.2,959064310331106.0,48409127481.43555,135311895596.35567,3440605890906.0215,107138956968490.88
0.7434283382464002,3558980625082323.0,5481007402861738.0,734851018157228.6,1041379740083425.6,63715059183.09718,178094719225.14294,4528489550843.465,141025720209510.53
0.8582969050113283,3821920152004708.0,5913907255911423.0,789142232304294.2,1118317472058495.2,80636398523.8052,225392925942.49432,5731194326357.529,178490175893102.9
0.9754628431115548,4070007886261810.5,6328159581082137.0,840366878774526.1,1190909477680373.2,99137285425.45856,277106285640.06287,7046171542942.042,219452923251420.44
1.094972099973786,4305781937034645.5,6727518900530385.0,889049021145692.6,1259898423398237.2,119195727291.68954,333173330462.843,8471858258438.855,263865291635621.1
1.2168715419732616,4531138558868202.0,7114800498869439.0,935580194166530.2,1325839165021793.5,140799753425.07614,393560605745.1769,10007403905516.031,311700816548226.1
1.3412089728127268,4747536952548252.0,7492181777850217.0,980261690621923.5,1389158673726242.2,163944944904.25085,458255765602.99,11652494710097.797,362949765533193.06
1.4680331522689813,4956127153138981.0,7861390159934464.0,1023330967392689.9,1450193456883856.0,188632770738.9099,527262922215.3255,13407235423482.678,417615451402501.06
1.597393815314361,5157833571466405.0,8223825658110870.0,1064978894929748.6,1509214002819064.5,214869423951.01617,600599392487.3868,15272066590752.28,475711653488473.2
1.729341691620648,5353411628650830.0,8580643852899877.0,1105361451036245.2,1566441352423140.8,242664981961.67343,678293351204.6836,17247704871534.822,537260757584954.0
1.863928525453061,5543487361612780.0,8932813841606189.0,1144607898531154.0,1622058687970242.0,272032785332.21786,760382094525.4061,19335098881714.496,602292379730444.6
2.001207095962122,5728585861573330.0,9281159794712492.0,1182826657172520.5,1676219654398572.0,302988968181.17053,846910727433.4454,21535395816409.805,670842326056047.5
2.1412312378813647,5909152164219012.0,9626391444491966.0,1220109617015855.8,1729054471901829.8,335552096795.615,937931153613.9272,23849915763472.5,742951792341397.0
2.284055862638992,6085566902120280.0,9969126902652960.0,1256535370293381.8,1780674515923680.2,369742887208.5969,1033501286052.887,26280131629911.844,818666738512442.2
2.4297369798917723,6258158238613154.0,1.0309910038238466e+16,1292171675497431.0,1831175809085319.8,405583981573.14594,1133684421984.1484,28827653247582.676,898037393391426.2
2.578331719489608,6427211107974648.0,1.06492239194714e+16,1327077365272932.2,1880641724917971.2,443099769092.60895,1238548742379.3823,31494214645929.844,981117858148445.1
2.7298983538794,6592974469063311.0,1.0987501356158338e+16,1361303844134212.5,1929145110322950.5,482316241248.66205,1348166907306.6958,34281663762602.12,1067965785726730.9
2.884496320956988,6755667070336438.0,1.1325133271833112e+16,1394896278813922.5,1976749972451357.8,523260873803.5464,1462615726128.5083,37191954057171.125,1158642119574301.8
3.0421862473761276,6915482083205288.0,1.1662475427915474e+16,1427894554948721.8,2023512834452452.0,565962529970.4246,1581975886868.7002,40227137629473.55,1253210879262681.5
3.2030299723236504,7072590863838468.0,1.1999853880108118e+16,1460334053808737.0,2069483836200619.5,610451380514.2882,1706331732904.3398,43389359541376.61,1351738983605490.2
3.3670905717701234,7227146035763776.0,1.2337569447950566e+16,1492246288786832.5,2114707636283692.8,656758837538.8158,1835771077912.8894,46680853111340.016,1454296104089468.5
3.5344323832055258,7379284037431506.0,1.2675901407886498e+16,1523659431414280.2,2159224157435748.8,704917499445.7075,1970385052049.2407,50103936003122.31,1560954543050336.0
3.7051210308696363,7529127244119753.0,1.3015110569309286e+16,1554598749487419.0,2203069207419713.8,754961105098.7509,2110267973852.5317,53661006968766.66,1671789132234668.8
3.879223451487029,7676785748110377.0,1.3355441855839934e+16,1585086974634719.0,2246274999917869.2,806924495637.1691,2255517243534.9976,57354543135307.555,1786877148302489.2
4.0568079205167695,7822358862205570.0,1.3697126486542622e+16,1615144612759793.8,2288870594470076.0,860843582697.9609,2406233254186.082,61187097747040.34,1906298242523249.5
4.237944078927105,7965936397518713.0,1.4040383831148666e+16,1644790207877050.2,2330882270363274.5,916755322050.2435,2562519318105.16,65161298292491.7,2030134382456967.8
4.422702960505647,8107599755763424.0,1.4385422997739888e+16,1674040567645292.8,2372333846242051.0,974697691834.4232,2724481606006.5435,69279844958717.52,2158469803832555.5
4.61115701971576,8247422868069378.0,1.473244419939806e+16,1702910957212466.5,2413246954811943.5,1034709674748.2335,2892229097258.0503,73545509366165.4,2291390971166101.0
4.803380160110075,8385473006024435.0,1.5081639937111144e+16,1731415266677990.2,2453641280155322.0,1096831243640.2397,3065873539645.0835,77961133545758.62,2428986545924332.0
4.9994477633122765,8521811485712536.0,1.5433196029053068e+16,1759566156461046.0,2493534763737301.5,1161103350066.0288,3245529417417.2764,82529629126594.12,2571347361248125.0
5.199436718578522,8656494281645319.0,1.5787292510725234e+16,1787375184063929.0,2532943784045896.5,1227567915438.6536,3431313926587.94,87253976708065.66,2718566402419985.5
5.403425452950093,8789572564422502.0,1.6144104425996694e+16,1814852915087048.5,2571883313914776.5,1296267824466.8018,3623346956629.303,92137225394620.75,2870738792396668.0
5.611493962009095,8921093173514867.0,1.6503802525538502e+16,1842009020848204.5,2610367058862481.0,1367246920624.5352,3821751077848.067,97182492474960.9,3027961781839539.5
5.823723841249277,9051099034606202.0,1.6866553886305398e+16,1868852364554482.0,2648407579209292.5,1440550003438.1663,4026651533841.4165,102392963230426.19,3190334743167732.0
6.040198318074262,9179629529349574.0,1.7232522463428624e+16,1895391077648769.0,2686016398270153.0,1516222827409.8125,4238176238529.636,107771890859752.97,3357959168234445.0
6.261002284435747,9306720824110174.0,1.7601869584024406e+16,1921632627687909.5,2723204098546873.5,1594312102425.853,4456455777340.77,113322596509413.66,3530938669290258.5
6.486222330124463,9432406163218898.0,1.7974754390905754e+16,1947583878893097.8,2759980407535964.0,1674865495522.1453,4681623412189.434,119048469400430.66,3709378982949623.5
6.715946776726952,9556716131400438.0,1.8351334242941184e+16,1973251146335484.5,2796354274516672.5,1757931633897.7312,4913815089947.257,124952967043975.92,3893387976920771.5
6.950265712261491,9679678889329412.0,1.8731765077778252e+16,1998640244573363.0,2832333939476247.0,1843560109085.7058,5153169454149.384,131039615539258.27,4083075659296766.5
7.18927102650672,9801320385680686.0,1.911620174180016e+16,2023756531435827.2,2867926995157068.0,1931801482203.8796,5399827859721.42,137312009948211.97,4278554190236439.0
7.433056447036854,9921664548548128.0,1.9504798291475724e+16,2048604947546545.2,2903140443067001.0,2022707290220.1313,5653934390544.405,143773814742350.16,4479937895890950.0
7.681717575977592,1.0040733458697586e+16,1.989770826967373e+16,2073190052096703.5,2937980744174339.0,2116330053177.4373,5915635879704.483,150428764317886.3,4687343284454340.0
7.935351927497144,1.015854750677526e+16,2.0295084960014556e+16,2097516055305024.5,2972453864907858.0,2212723282332.5674,6185081932298.491,157280663575846.84,4900889064235922.0
8.194058966047088,1.0275125536301382e+16,2.069708162191548e+16,2121586847942875.0,3006565318997729.0,2311941489169.735,6462424950687.5205,164333388564427.1,5120696163669173.0
8.45794014536803,1.0390484974035364e+16,2.1103851708632796e+16,2145406028251698.5,3040320205621110.5,2414040195257.1206,6747820162108.847,171590887181321.8,5346887753185941.0
8.72709894827539,1.0504641949087442e+16,2.1515549070302532e+16,2168976926537031.5,3073723244254967.0,2519075942919.863,7041425648572.415,179057179934140.3,5579589268897475.0
9.0016409272409,1.0617611401976364e+16,2.1932328143727296e+16,2192302627686468.0,3106778806587051.5,2627106306707.7134,7343402378981.098,186736360757376.38,5818928438034358.0
9.281673745785717,1.0729407184679254e+16,2.235434413043851e+16,2215385991827760.8,3139490945791077.0,2738189905640.012,7653914243426.391,194632597884690.22,6065035306106639.0
9.567307220701432,1.0840042152589732e+16,2.27817531643753e+16,2238229673316126.2,3171863423434230.0,2852386416214.0874,7973128089620.841,202750134775524.9,6318042265753843.0
9.85865336511546,1.0949528249188196e+16,2.3214712470361436e+16,2260836138216837.0,3203899734252297.0,2969756586166.4976,8301213761437.4795,211093291095303.4,6578084087261162.0
10.155826432417769,1.1057876584132118e+16,2.365338051442242e+16,2283207680429100.5,3235603128999233.5,3090362248979.165,8638344139534.562,219666463748649.72,6845297950724758.0
10.458942961066125,1.1165097505389088e+16,2.409791714686498e+16,2305346436579941.5,3266976635553845.0,3214266339124.9463,8984695184050.092,228474127965250.0,7119823479853711.0
10.768121820287448,1.1271200665964396e+16,2.454848373893821e+16,2327254399802021.5,3298023078444644.5,3341532908049.287,9340445979357.225,237520838438105.7,7401802777401679.0
11.083484256693197,1.1376195085710918e+16,2.5005243313803244e+16,2348933432495976.0,3328745096935850.0,3472227140886.2314,9705778780875.592,246811230514088.34,7691380462224641.0
11.405153941827061,1.1480089208654536e+16,2.546836067246203e+16,2370385278166864.5,3359145161801088.0,3606415373909.042,10080879063939.547,256350021436782.9,7988703707964927.0
11.733257020663602,1.1582890956220182e+16,2.5938002515226024e+16,2391611572414153.5,3389225590897732.0,3744165112716.638,10465935574726.771,266142011641735.75,8293922283364835.0
12.067922161076874,1.1684607776701754e+16,2.6414337559244636e+16,2412613853146219.0,3418988563642070.0,3885545051158.519,10861140383254.701,276192086104291.44,8607188594215868.0
12.409280604298411,1.17852466912828e+16,2.689753665256182e+16,2433393570082547.0,3448436134475226.5,4030625091001.7896,11266688938455.746,286505215740283.56,8928657726951510.0
12.75746621638438,1.1884814336881366e+16,2.738777288512314e+16,2453952093600245.0,3477570245399886.0,4179476362344.889,11682780125343.049,297086458859902.2,9258487493894034.0
13.112615540712067,1.1983317006065712e+16,2.7885221697112788e+16,2474290722975820.5,3506392737659810.0,4332171244783.2837,12109616324283.045,307940962675128.75,9596838480167226.0
13.474867851526309,1.208076068426091e+16,2.839006098496646e+16,2494410694067478.5,3534905362626784.0,4488783389333.057,12547403472390.385,319073964861160.44,9943874092288358.0
13.844365208556836,1.2177151084445688e+16,2.8902471205372852e+16,2514313186479240.0,3563109791953092.0,4649387741119.104,12996351127065.176,330490795172300.94,1.0299760608454344e+16
14.221252512727972,1.2272493679518112e+16,2.9422635477548504e+16,2533999330243769.5,3591007627041893.5,4814060562834.745,13456672531690.898,342196877112818.1,1.0664667230537392e+16
14.605677562982532,1.2366793732492264e+16,2.9950739684045892e+16,2553470212057310.5,3618600407883027.5,4982879458980.365,13928584683515.205,354197729663304.7,1.1038766137807506e+16
14.997791114242183,1.2460056324672652e+16,3.048697257033316e+16,2572726881097112.0,3645889621296960.5,5155923400888.815,14412308403734.67,366498969063105.1,1.1422232542398668e+16
15.397746936527026,1.2552286381939146e+16,3.1031525843362404e+16,2591770354448636.0,3672876708625937.0,5333272752545.624,14908068409806.836,379106310649378.75,1.1815244746536938e+16
15.805701875257567,1.2643488699263214e+16,3.1584594269328464e+16,2610601622167646.0,3699563072907592.5,5515009297212.148,15416093390012.293,392025570753398.3,1.2217984201549344e+16
16.221815912762718,1.2733667963566372e+16,3.2146375770801532e+16,2629221651999971.5,3725950085563446.0,5701216264860.454,15936616080291.666,405262668654697.25,1.2630635568671934e+16
16.64625223101797,1.282282877502047e+16,3.2717071523406212e+16,2647631393779585.0,3752039092631596.0,5891978360428.221,16469873343380.303,418823628593675.5,1.305338678167711e+16
17.079177275638333,1.2910975666883352e+16,3.329688605220326e+16,2665831783524118.5,3777831420570579.5,6087381792902.604,17016106250267.074,432714581843297.5,1.348642911133877e+16
17.5207608211511,1.2998113123952954e+16,3.3886027327923644e+16,2683823747245379.5,3803328381659336.5,6287514305241.713,17575560164000.508,446941768840512.2,1.3929957231756162e+16
17.97117603757412,1.308424559971919e+16,3.4484706863189856e+16,2701608204490687.5,3828531279015843.5,6492465205142.573,18148484825868.316,461511541378031.5,1.4384169288555152e+16
18.430599558325603,1.316937753228412e+16,3.5093139808855076e+16,2719186071630176.0,3853441411255518.5,6702325396664.558,18735134443974.95,476430364857109.44,1.484926696898747e+16
18.899211549492115,1.3253513359117982e+16,3.5711545050577544e+16,2736558264903466.5,3878060076808870.0,6917187412717.081,19335767784242.766,491704820601957.44,1.5325455573948292e+16
19.37719578048196,1.3336657530711594e+16,3.6340145305746e+16,2753725703238663.0,3902388577916347.0,7137145448420.489,19950648263860.684,507341608236445.7,1.581294409193075e+16
19.864739696091597,1.3418814523183362e+16,3.697916722086123e+16,2770689310855412.0,3926428224317142.5,7362295395349.002,20580044047208.355,523347548123721.6,1.6311945274939076e+16
20.36203449001343,1.3499988849893564e+16,3.762884146947342e+16,2787450019662973.5,3950180336647674.0,7592734876664.836,21224228144277.15,539729583869400.6,1.6822675716378898e+16
20.869275179813698,1.3580185072116252e+16,3.8289402850773544e+16,2804008771463740.0,3973646249564236.0,7828563283151.805,21883478511616.56,556494784888948.2,1.7345355930945562e+16
21.38666068340997,1.3659407808815458e+16,3.896109038892634e+16,2820366519971829.5,3996827314603543.0,8069881810158.074,22558078155828.88,573650349039909.2,1.7880210436529458e+16
21.91439389707817,1.3737661745569754e+16,3.96441474332335e+16,2836524232655765.5,4019724902794130.5,8316793495455.969,23248315239638.336,591203605319627.4,1.84274678381591e+16
22.452681775019734,1.3814951642686464e+16,4.033882175920999e+16,2852482892413955.0,4042340407030662.5,8569403258028.496,23954483190558.883,609162016629057.9,1.898736091400115e+16
23.00173541052013,1.3891282342545404e+16,4.104536567064914e+16,2868243499090919.0,4064675244222711.5,8827817937790.71,24676880812186.402,627533182603356.4,1.9560126703436804e+16
23.561770118730532,1.3966658776208296e+16,4.176403610275886e+16,2883807070842064.5,4086730857228710.5,9092146336255.047,25415812398139.883,646324842509837.8,2.0146006597235496e+16
24.133005521105144,1.4041085969330348e+16,4.2495094726435576e+16,2899174645354262.0,4108508716585752.5,9362499258149.533,26171587848676.02,665544878213976.2,2.0745246429844344e+16
24.715665631527248,1.4114569047406736e+16,4.323880805375246e+16,2914347280929117.0,4130010322044712.5,9638989553997.133,26944522790003.94,685201317214055.6,2.1358096573813828e+16
25.309978944157795,1.418711324038665e+16,4.39954475447268e+16,2929326057435722.0,4151237203920368.5,9921732163665.775,27734938696322.79,705302335745135.5,2.1984812036378924e+16
25.91617852304095,1.42587238866855e+16,4.476528971543546e+16,2944112077139028.0,4172190924265403.0,10210844160897.379,28543163014609.945,725856261952949.6,2.262565255821712e+16
26.53450209350177,1.4329406436624904e+16,4.554861624754184e+16,2958706465410155.0,4192873077876920.5,10506444798824.79,29369529292183.098,746871579138419.5,2.3280882714400468e+16
27.165192135371807,1.439916645532859e+16,4.634571409929879e+16,2973110371324312.5,4213285293143847.5,10808655556486.139,30214377307063.094,768356929073378.0,2.3950772017565092e+16
27.808495978079243,1.4468009625101358e+16,4.7156875618088184e+16,2987324968152056.5,4233429232743061.5,11117600186344.96,31078053201162.844,790321115388234.2,2.46355950233161e+16
28.464665897640828,1.453594174731827e+16,4.798239865455965e+16,3001351453749301.0,4253306594192091.0,11433404762825.607,31960909616328.7,812773107032179.4,2.533563143788864e+16
29.133959215593645,1.4602968743848118e+16,4.882258667842487e+16,3015191050851261.5,4272919110265717.0,11756197731873.193,32863305833260.0,835722041806640.5,2.6051166228087976e+16
29.816638399905518,1.4669096658036812e+16,4.967774889596915e+16,3028845007275490.0,4292268549283635.0,12086109961547.098,33785607913334.234,859177229972654.9,2.678248973352564e+16
30.51297116790363,1.4734331655273624e+16,5.054820036933613e+16,3042314596038842.0,4311356715276273.0,12423274793658.113,34728188843364.902,883148157932859.4,2.7529897781177532e+16
31.223230591261704,1.4798680023164106e+16,5.143426213764274e+16,3055601115393096.5,4330185448035247.5,12767828096458.299,35691428683319.62,907644491988787.4,2.829369180228174e+16
31.947695203086937,1.4862148171331082e+16,5.233626133998046e+16,3068705888783920.0,4348756623055177.5,13119908318393.62,36675714717026.06,932676082174228.4,2.907417895160068e+16
32.686649107148675,1.492474263086581e+16,5.325453134035914e+16,3081630264737571.0,4367072151373179.0,13479656542929.477,37681441605895.984,958252966165307.8,2.9871672229068384e+16
33.44038208929165,1.4986470053450444e+16,5.418941185464789e+16,3094375616679607.0,4385133979311945.0,13847216544459.242,38709011545694.195,984385373268139.9,3.0686490603847628e+16
34.20918973107749,1.5047337210171404e+16,5.514124907956806e+16,3106943342690008.0,4402944088132659.0,14222734845306.201,39758834426385.35,1011083728484703.6,3.1518959140817604e+16
34.993373525699035,1.5107350990044456e+16,5.61103958237925e+16,3119334865198492.5,4420504493603340.0,14606360773829.758,40831327995086.63,1038358656657804.2,3.236940912951952e+16
35.793240996213015,1.5166518398269592e+16,5.709721164120553e+16,3131551630624317.5,4437817245488247.5,14998246523646.645,41926918022159.8,1066220986695889.0,3.323817821558166e+16
36.60910581613728,1.5224846554235006e+16,5.810206296637643e+16,3143595108964059.5,4454884426963844.5,15398547213978.404,43046038470472.58,1094681755878545.0,3.4125610534650496e+16
37.44128793246003,1.528234268928819e+16,5.9125323252302424e+16,3155466793331422.5,4471708153966561.5,15807420951136.82,44189131667865.19,1123752214243503.8,3.50320568488537e+16
38.29011369110923,1.533901414429121e+16,6.016737311047172e+16,3167168199452461.5,4488290574477510.0,16225028891158.82,45356648482853.01,1153443829056043.5,3.595787468582046e+16
39.15591596493141,1.5394868366977702e+16,6.1228600453302984e+16,3178700865119869.5,4504633867749064.0,16651535303603.15,46549048503602.76,1183768289361662.0,3.690342848028749e+16
40.03903428423004,1.5449912909127546e+16,6.230940063901254e+16,3190066349609570.0,4520740243478201.0,17087107636521.176,47766800220215.48,1214737510622907.2,3.78690897183176e+16
40.93981496991464,1.5504155423575754e+16,6.341017661896425e+16,3201266233063177.5,4536611940931299.0,17531916582614.629,49010381210355.836,1246363639441367.8,3.885523708415987e+16
41.85861126931294,1.5557603661070262e+16,6.453133908755507e+16,3212302115839151.5,4552251228024648.0,17986136146593.2,50280278328262.69,1278659058365693.8,3.986225660978038e+16
