t(s),Total solute volume 1,Total retention volume 1,Total 1 volume 1,Total 2 volume 1,Total 3 volume 1,Total 4 volume 1,Total 5 volume 1,Total 6 volume 1
0.1,878184692305091.0,1002349173156223.1,60489917771387.09,63674563079745.664,0.0,0.0,0.0,0.0
0.202,1323180723526074.5,1510263637574592.0,91141526360939.08,95939903779985.17,3113361.95727803,5507977.478953305,70588487.62978877,1404697765.4016361
0.30604000000000003,1662078371513929.2,1897079513333601.5,114485011034476.3,120512365607074.89,7899566.707620847,13975451.658336457,179105251.8075085,3564197849.2136073
0.41216080000000005,1948733847569173.5,2224267460210137.8,134230021805134.31,141296902698894.66,14032041.942227071,24824669.32181456,318145835.3460299,6331134389.768598
0.5204040160000001,2203305163960452.5,2514835515681086.5,151765055332758.6,159755112668974.75,21365892.146835513,37799289.70462807,484425026.43049324,9640128696.049917
0.6308120963200001,2435834548670179.5,2780245717847176.0,167781826643262.06,176615127643736.97,29823420.616841763,52761856.30816031,676181213.5445007,13456123506.290148
0.7434283382464002,2652158353602246.5,3027159585608079.5,182682347353186.0,192300124164976.5,39360228.558046415,69633821.36991778,892407746.8333564,17759085873.888493
0.8582969050113283,2856015316278563.5,3259844455918037.5,196724144071465.88,207081186985449.7,49951288.283705264,88370907.367502,1132537175.8675282,22537723187.57368
0.9754628431115548,3049967394181388.0,3481224509474293.0,210083686052390.4,221144076032402.97,61584082.07973889,108950968.69616354,1396285687.5291128,27786387367.379204
1.094972099973786,3235859343816358.0,3693405326779137.5,222888041292638.1,234622549120504.94,74254802.89716353,131367270.15418236,1683566964.6194623,33503360595.649914
1.2168715419732616,3415071012211153.0,3897961849456075.5,235232254529539.03,247616654859081.88,87966071.6476202,155624448.51463863,1994440430.3177283,39689825352.128006
1.3412089728127268,3588666132401763.5,4096108212888104.0,247189596368426.3,260203521370879.25,102725481.0413446,181735936.36815602,2329078232.7709875,46349207389.87078
1.4680331522689813,3757485141050584.0,4288803686638637.5,258817956618971.9,272444086221858.5,118544623.55630414,209722242.4624127,2687743206.3460774,53486737153.21348
1.597393815314361,3922205749449767.0,4476821809127178.5,270164016464268.4,284387488244737.2,135438419.4696833,239609762.89454517,3070773636.1650815,61109146584.79409
1.729341691620648,4083383965781430.0,4660797209703521.0,281266074100093.44,296074041941226.5,153424639.56056517,271429936.7045208,3478572436.4001346,69224453768.65753
1.863928525453061,4241482755293633.5,4841258320854135.0,292156018865993.8,307537315546263.9,172523558.9799389,305218633.5221299,3911599302.510421,77841806756.26628
2.001207095962122,4396892600199716.0,5018650844896023.0,302860747424166.6,318805621765244.75,192757702.37392312,341015702.65386015,4370364932.452754,86971368566.05554
2.1412312378813647,4549946588321164.0,5193354975877253.0,313403203074746.5,329903111806691.56,214151654.2667004,378864637.62346834,4855426727.518014,96624231628.21289
2.284055862638992,4700931708030728.0,5365698291418012.0,323803153758634.4,340850594345032.7,236731917.25541008,418812325.29868007,5367385577.202166,106812353802.22467
2.4297369798917723,4850097451771172.0,5535965572610367.0,334077784673324.7,351666159336196.3,260526805.9961187,460908858.33739984,5906883455.564145,117548510543.35744
2.578331719489608,4997662471254650.0,5704406400143052.0,344242156687250.7,362365660566339.44,285566368.5089881,505207395.9654436,6474601636.988424,128846259395.54842
2.7298983538794,5143819796796532.0,5871241111557429.0,354309565850806.94,372963094090245.75,311882328.7121927,551764062.3109585,7071259393.264406,140719914062.69904
2.884496320956988,5288740981346171.0,6036665531213119.0,364291828842192.75,383470898711264.75,339508045.80999523,600637875.3857054,7697613284.799278,153184554282.5316
3.0421862473761276,5432579427779381.0,6200854767847757.0,374199512143803.94,393900197198740.5,368478486.7389828,651890695.0313435,8354455690.609327,166255900964.616
3.2030299723236504,5575473087104392.0,6363966294505149.0,384042117910958.25,404260991979472.3,398830210.390095,705587199.9518591,9042615714.661701,179950477201.51868
3.3670905717701234,5717546667319942.0,6526142469537073.0,393828236109600.44,414562325260006.5,430601360.0935922,761794871.1307083,9762958175.188066,194285493114.31625
3.5344323832055258,5858913456580287.0,6687512617581158.0,403565670099555.0,424812411227888.2,463831664.1083355,820583993.5162556,10516383825.290634,209278873937.97214
3.7051210308696363,5999676839864747.0,6848194760672039.0,413261541103685.6,435018746020867.25,498562442.49406475,882027668.1798851,11303829508.757277,224949263122.63397
3.879223451487029,6139931569695832.0,7008297068629302.0,422922375735757.4,445188199862888.25,534836619.5530164,946201834.3270874,12126268442.149387,241316027947.17438
4.0568079205167695,6279764837848498.0,7167919082301503.0,432554179820462.9,455327094770560.1,572698741.1350994,1013185299.912836,12984710607.15998,258399267327.161
4.237944078927105,6419257184777245.0,7327152751585126.0,442162501035318.1,465441270492987.4,612194996.2460227,1083059779.8695703,13880203240.532793,276219821564.31885
4.422702960505647,6558483275750350.0,7486083321307072.0,451752482371302.7,475536140786988.25,653373242.5112116,1155909941.1565301,14813831411.402643,294799283835.7122
4.61115701971576,6697512566765095.0,7644790091305640.0,461328908001500.2,485616741700608.75,696283035.1376045,1231823453.9974265,15786718677.943014,314160013261.1648
4.803380160110075,6836409878748937.0,7803347071832092.0,470896242832455.0,495687773206750.2,740975659.0864805,1310891048.7988222,16800027816.817404,334325149419.50006
4.9994477633122765,6975235894996480.0,7961823551335834.0,480458666767936.8,505753635270846.9,787504164.2274313,1393206578.3426478,17854961620.22113,355318628209.86084
5.199436718578522,7114047594000497.0,8120284590510489.0,490020104522618.4,515818459234158.7,835923403.2896388,1478867084.9274821,18952763756.346516,377165198975.1638
5.403425452950093,7252898627627982.0,8278791453958699.0,499584251671084.75,525886135234189.5,886290072.4641069,1567972872.199815,20094719689.953075,399890442821.664
5.611493962009095,7391839652834152.0,8437401988827031.0,509154597496499.06,535960336256290.5,938662754.5414078,1660627581.4709785,21282157660.42457,423520792082.5431
5.823723841249277,7530918623697748.0,8596170958153023.0,518734445106176.56,546044539308262.25,993101964.4949447,1756938272.3605418,22516449715.27357,448083550884.8898
6.040198318074262,7670181049423253.0,8755150335368830.0,528326929202951.3,556142044127339.2,1049670197.4410452,1857015507.6446774,23799012797.53541,473606916789.1208
6.261002284435747,7809670223033262.0,8914389565351673.0,537935031837643.2,566255989761995.0,1108431978.9250827,1960973442.2196116,25131309885.89995,500120003477.88556
6.486222330124463,7949427424719974.0,9073935796551862.0,547561596416036.8,576389369316339.8,1169453917.4979608,2068929916.1170225,26514851186.772396,527652864478.38007
6.715946776726952,8089492103206845.0,9233834088022772.0,557209340191193.25,586545043100133.2,1232804759.5601783,2181006551.531232,27951195377.747578,556236517907.7972
6.950265712261491,8229902037961536.0,9394127594596096.0,566880865436772.4,596725750390353.0,1298555446.4619248,2297328853.8374414,29441950902.233177,585902972236.6617
7.18927102650672,8370693484678572.0,9554857732962144.0,576578669467983.9,606934119979712.8,1366779173.8570685,2418026316.597659,30988777315.177612,616685253069.152
7.433056447036854,8511901306098454.0,9716064331014486.0,586305153652472.0,617172679661969.9,1437551453.317565,2543232530.5655,32593386680.046455,648617430943.2966
7.681717575977592,8653559089935832.0,9877785762482348.0,596062631533298.6,627443864782541.2,1510950176.2220693,2673085296.7144017,34257545017.362297,681734650157.2756
7.935351927497144,8795699255442271.0,1.004005906859124e+16,605853336169045.2,637750025965059.2,1587055679.9391456,2807726743.3253975,35983073805.27003,716073158631.0706
8.194058966047088,8938353149921153.0,1.0202920068256964e+16,615679426781828.6,648093436109379.1,1665950816.3314602,2947303447.1809382,37771851532.72548,751670338815.2847
8.45794014536803,9081551136336298.0,1.0366403458114492e+16,625542994791825.5,658476296743811.0,1747721022.61258,3091966558.920934,39625815306.024155,788564739661.5143
8.72709894827539,9225322673005814.0,1.053054290351451e+16,635446069306649.9,668900743803499.5,1832454394.5929735,3241871932.625502,41546962509.50058,826796109670.6534
9.0016409272409,9369696386245974.0,1.0695371121474258e+16,645390622125097.2,679368852897603.4,1920241762.3561585,3397180259.6972117,43537352521.326355,866405431037.725
9.281673745785717,9514700136720360.0,1.0860919956445138e+16,655378572307321.1,689882644120083.0,2011176768.410282,3558057207.1225305,45599108485.43276,907434954913.6073
9.567307220701432,9660361080156636.0,1.102722044965223e+16,665411790357049.9,700444086452084.9,2105355948.364136,3724673560.1994605,47734419140.67079,949928237805.7532
9.85865336511546,9806705723012602.0,1.119430290267063e+16,675492102055880.1,711055101798123.0,2202878814.1803765,3897205369.824685,49945540708.40292,993930179141.7675
10.155826432417769,9953759973603584.0,1.1362196935822702e+16,685621291984987.8,721717568693196.4,2303847940.0621777,4075834104.439508,52234798839.80301,1039487060021.1626
10.458942961066125,1.01015491891445e+16,1.1530931541913176e+16,695801106765396.0,732433325713623.2,2408369051.032864,4260746806.7402215,54604590624.21455,1086646583182.1798
10.768121820287448,1.0250098219105826e+16,1.1700535135759116e+16,706033258044370.8,743204174620696.4,2516551114.2713156,4452136255.263745,57057386659.98955,1135457914212.0208
11.083484256693197,1.0399431445239352e+16,1.1871035599919356e+16,716319425252421.0,754031883262819.5,2628506433.2690687,4650201130.965346,59595733189.30331,1185971724030.2007
11.405153941827061,1.0549572818589336e+16,1.2042460326984936e+16,726661258152646.2,764918188259060.1,2744350744.877969,4855146188.910066,62222254298.50831,1238240232676.1067
11.733257020663602,1.0700545893769676e+16,1.2214836258750342e+16,737060379201773.0,775864797484512.6,2864203319.3203955,5067182435.205493,64939654185.65594,1292317254433.294
12.067922161076874,1.0852373860758816e+16,1.2388189922552824e+16,747518385740202.5,786873392375617.5,2988187063.236834,5286527309.308022,67750719496.88574,1348258244324.1648
12.409280604298411,1.1005079574435572e+16,1.2562547465035028e+16,758036852026465.1,797945630071758.1,3116428625.8486676,5513404871.840284,70658321733.44437,1406120346010.2583
12.75746621638438,1.1158685582058302e+16,1.2737934683561352e+16,768617331130003.0,809083145407661.1,3249058508.3166585,5748045998.062509,73665419731.16225,1465962441134.4392
13.112615540712067,1.1313214148866674e+16,1.2914377055493094e+16,779261356694622.5,820287552769714.4,3386211176.378896,5990688577.145471,76775062214.2839,1527845200142.7256
13.474867851526309,1.146868728196853e+16,1.3091899765508286e+16,789970444583855.0,831560447827940.1,3528025176.3545294,6241577717.398118,79990390425.60947,1591831134624.749
13.844365208556836,1.1625126752658306e+16,1.3270527731132074e+16,800746094418249.9,842903409154224.2,3674643254.6025414,6500965957.607737,83314640834.97568,1657984651213.138
14.221252512727972,1.1782554117298042e+16,1.3450285626629008e+16,811589791013675.5,854317999736344.4,3826212480.5278482,6769113484.655896,86751147928.1618,1726372107083.408
14.605677562982532,1.1940990736880364e+16,1.3631197905392576e+16,822503005728845.4,865805768396431.5,3982884373.229996,7046288357.57848,90303347078.3855,1797061867097.3462
14.997791114242183,1.2100457795381686e+16,1.381328882095476e+16,833487197729464.6,877368251121686.6,4144815031.892333,7332766738.243435,93974777502.60555,1870124362634.1108
15.397746936527026,1.2260976317001784e+16,1.3996582446727766e+16,844543815175732.0,889006972314381.8,4312165270.012963,7628833128.825118,97769085304.93033,1945632152154.6375
15.805701875257567,1.242256718237982e+16,1.4181102694578292e+16,855674296339302.6,900723445967638.6,4485100753.58145,7934780616.259224,101690026609.48679,2023659983546.3965
16.221815912762718,1.2585251143866398e+16,1.4366873332326724e+16,866880070655224.9,912519176772757.1,4663792143.308636,8250911123.868379,105741470785.18307,2104284858296.752
16.64625223101797,1.2749048839924986e+16,1.4553918000254552e+16,878162559713942.5,924395661163415.0,4848415241.01959,8577535670.3528185,109927403764.86778,2187586097544.7593
17.079177275638333,1.291398080872957e+16,1.474226022669638e+16,889523178197884.4,936354388301604.2,5039151140.323419,8914974636.34766,114251931461.45053,2273645410062.5063
17.5207608211511,1.3080067501019248e+16,1.4931923442785754e+16,900963334766916.6,948396841009665.5,5236186381.676278,9263558038.752224,118719283283.6334,2362546962218.6055
17.97117603757412,1.324732929226503e+16,1.5122930996418566e+16,912484432896385.6,960524496652475.6,5439713111.957672,9623625813.044188,123333815753.96854,2454377449977.908
18.430599558325603,1.3415786494199758e+16,1.5315306165491098e+16,924087871671316.8,972738827973445.9,5649929248.6828785,9995528103.795683,128100016232.03294,2549226172992.9404
18.899211549492115,1.3585459365757014e+16,1.5509072170466406e+16,935775046539886.5,985041303887680.2,5867038648.978218,10379625563.615597,133022506745.58565,2647185110844.0576
19.37719578048196,1.375636812346186e+16,1.5704252186316768e+16,947547350029148.0,997433390235346.4,6091251283.4485855,10776289660.747011,138106047932.65005,2748349001486.8955
19.864739696091597,1.3928532951310932e+16,1.590086935388605e+16,959406172425570.0,1009916550498083.6,6322783415.070616,11185902995.555933,143355543097.53705,2852815421966.9824
20.36203449001343,1.4101974010177624e+16,1.609894679071267e+16,971352902422882.6,1022492246480934.8,6561857783.247822,11608859626.151964,148776042383.90424,2960684871463.199
20.869275179813698,1.4276711446773956e+16,1.6298507601348474e+16,983388927739377.6,1035161938962143.4,6808703793.167432,12045565403.388897,154372747068.02142,3072060856723.0464
21.38666068340997,1.445276540219785e+16,1.6499574887207322e+16,995515635706626.2,1047927088312881.4,7063557710.602234,12496438315.498056,160151013975.48206,3187049979954.1665
21.91439389707817,1.4630156020090936e+16,1.6702171755972114e+16,1007734413831428.6,1060789155088762.5,7326662862.303608,12961908842.613504,166116360024.68546,3305762029238.299
22.452681775019734,1.4808903454430452e+16,1.6906321330586372e+16,1020046650332495.8,1073749600594805.2,7598269842.135465,13442420321.453636,172274466900.4752,3428310071534.775
23.00173541052013,1.4989027876974438e+16,1.7112046757853246e+16,1032453734653299.9,1086809887425254.4,7878636723.101461,13938429320.429005,178631185861.39508,3554810548342.651
23.561770118730532,1.5170549484377268e+16,1.7319371216661046e+16,1044957057952183.2,1099971479979519.5,8168029275.421098,14450406025.451397,185192542684.0827,3685383374091.2446
24.133005521105144,1.535348850498902e+16,1.7528317925850822e+16,1057558013570712.6,1113235844955162.2,8466721190.812399,14978834636.723463,191964742748.3821,3820152037330.3457
24.715665631527248,1.5537865205349288e+16,1.7738910151738136e+16,1070257997480963.6,1126604451818755.8,8774994313.141605,15524213776.792463,198954176266.807,3959243704792.345
25.309978944157795,1.57236998963819e+16,1.795117121529701e+16,1083058408712231.1,1140078773255032.5,9093138875.601664,16087056910.15454,206167423662.02786,4102789328399.0806
25.91617852304095,1.5911012939294052e+16,1.816512449900892e+16,1095960649757359.1,1153660285594629.2,9421453744.582956,16667892774.698267,213611261096.0781,4250923755287.202
26.53450209350177,1.6099824751178144e+16,1.8380793453376564e+16,1108966126958601.9,1167350469220242.5,9760246670.399954,17267265825.277954,221292666155.00644,4403785840925.707
27.165192135371807,1.629015581031121e+16,1.859820160309505e+16,1122076250872640.2,1181150808950884.2,10109834545.037807,17885736689.70569,229218823692.671,4561518565399.46
27.808495978079243,1.648202666114027e+16,1.881737255286868e+16,1135292436613990.8,1195062794403350.0,10470543667.081087,18523882637.450222,237397131837.37057,4724269152931.8545
28.464665897640828,1.6675457918937778e+16,1.903832999285418e+16,1148616104175671.2,1209087920329771.8,10842710013.985613,19182298061.326336,245835208164.95694,4892189194719.161
29.133959215593645,1.687047027410437e+16,1.926109770370517e+16,1162048678725567.2,1223227686929596.5,11226679521.849743,19861594972.45234,254540896041.96066,5065434775146.654
29.816638399905518,1.7067084496089034e+16,1.94856995611838e+16,1175591590876472.2,1237483600133835.5,11622808372.837076,20562403508.74433,263522271142.19482,5244166601455.555
30.51297116790363,1.7265321436890524e+16,1.971215954029752e+16,1189246276927252.5,1251857171858924.0,12031463290.396194,21285372457.203278,272787648140.11813,5428550136925.551
31.223230591261704,1.746520203409443e+16,1.994050171891025e+16,1203014179072047.0,1266349920226928.0,12453021842.412815,22031169790.237823,282345587584.04083,5618755737634.553
31.947695203086937,1.7666747313392326e+16,2.0170750280766084e+16,1216896745573789.8,1280963369748227.2,12887872752.420906,22800483216.24264,292204902952.0297,5814958792852.219
32.686649107148675,1.78699783905201e+16,2.040292951785385e+16,1230895430897729.2,1295699051462030.0,13336416218.984093,23594020744.632687,302374667893.0459,6017339869117.473
33.44038208929165,1.807491647254228e+16,2.0637063832028876e+16,1245011695799872.5,1310558503029510.5,13799064243.343866,24412511265.501778,312864223655.4934,6226084858043.416
34.20918973107749,1.828158285839879e+16,2.087317773579757e+16,1259247007364670.8,1325543268773434.2,14276240965.411549,25256705144.043255,323683186704.9263,6441385127884.134
34.993373525699035,1.8489998938619624e+16,2.111129585215577e+16,1273602838985347.2,1340654899657485.5,14768383008.15893,26127374829.828663,334841456532.16345,6663437678888.121
35.793240996213015,1.8700186194101996e+16,2.135144291336071e+16,1288080670279675.5,1355894953197594.0,15275939830.43647,27025315480.996685,346349223652.4575,6892445302451.411
36.60910581613728,1.8912166193832084e+16,2.159364375850344e+16,1302681986933054.5,1371264993296755.0,15799374088.220013,27951345603.35235,358216977795.73724,7128616744070.012
37.44128793246003,1.9125960591423708e+16,2.183792332973392e+16,1317408280460074.0,1386766589994042.2,16339162004.251602,28906307704.318233,370455516287.15393,7372166870077.02
38.29011369110923,1.9341591120332456e+16,2.208430666697841e+16,1332261047874884.2,1402401319117602.8,16895793746.005163,29891068961.612427,383075952616.35156,7623316838132.267
39.15591596493141,1.955907958759493e+16,2.233281890097786e+16,1347241791259927.5,1418170761830713.0,17469773811.86526,30906521906.457237,396089725192.9214,7882294271414.221
40.03903428423004,1.9778447865930756e+16,2.2583485244461104e+16,1362352017221939.0,1434076504059119.2,18061621425.361557,31953585121.039642,409508606284.49695,8149333436443.203
40.93981496991464,1.9999717884035788e+16,2.283633098125679e+16,1377593236223319.0,1450120135787223.0,18671870937.253,33033203949.859425,423344711132.7721,8424675424442.502
41.85861126931294,2.0222911614885652e+16,2.3091381453138972e+16,1392966961776493.2,1466303250209991.2,19301072235.20018,34146351224.50158,437610507241.57446,8708568336119.843
42.7957834946992,2.0448051061861544e+16,2.334866204418953e+16,1408474709488221.5,1482627442727009.5,19949791160.707497,35294028001.27029,452318823829.70953,9001267469725.045
43.751699164593184,2.0675158242503284e+16,2.360819816245621e+16,1424117995940536.0,1499094309764428.0,20618609932.9532,36477264311.00919,467482861439.9735,9303035512211.666
44.72673314788505,2.0904255169691424e+16,2.3870015218678996e+16,1439898337394502.8,1515705447410554.8,21308127579.06,37697119920.31599,483116201694.15216,9614142733301.084
