t(s),Total solute volume 1,Total retention volume 1,Total 1 volume 1,Total 2 volume 1,Total 3 volume 1,Total 4 volume 1,Total 5 volume 1,Total 6 volume 1
0.1,1360095892163908.8,3176178273173015.0,653029631800972.5,1163052749208134.2,0.0,0.0,0.0,-4.1755110825714755e-98
0.202,2040237856450205.0,4764843780354510.0,979589643180242.9,1744660078370402.2,59097285.781126894,234714197.6400561,9913749053.564398,345994793123.5213
0.30604000000000003,2560375490597732.5,5980062035561486.0,1229325942917248.0,2189443269198994.5,149809467.96097472,595006165.792949,25167092875.62341,891420938997.1306
0.41216080000000005,3000666161903388.0,7008978209667265.0,1440724916193764.8,2565947225156691.0,265997216.42230138,1056485360.8069483,44711972614.645805,1593871958227.5647
0.5204040160000001,3391768470519203.5,7923169910617569.0,1628506832914382.5,2900388930880656.5,404921541.86271423,1608272083.9996798,68085347478.01317,2435577762224.8335
0.6308120963200001,3749029118174401.5,8758466137129848.0,1800040182615570.8,3205891753530360.0,565111446.5743564,2244523451.4554067,95038950871.21735,3407234223744.055
0.7434283382464002,4081384984346554.5,9535731408244704.0,1959615874319531.2,3490097851793199.0,745725128.5847825,2961895805.705336,125430777584.09758,4503559386904.653
0.8582969050113283,4394567132085582.5,1.0268346187849992e+16,2109985592194745.2,3757908006700414.0,946287012.7222625,3758500151.1429696,159180602738.40985,5721571479350.763
0.9754628431115548,4692505330905347.0,1.0965485963160294e+16,2253036156255087.5,4012682666175379.5,1166558075.1850832,4633387071.067569,196248082944.99966,7059761796390.809
1.094972099973786,4978030437477920.0,1.1633761022097242e+16,2390126759953916.5,4256842569168391.0,1406463995.4108133,5586261344.023592,236620633060.4457,8517642138616.213
1.2168715419732616,5253260463495197.0,1.2278117744963306e+16,2522274334894956.5,4492198882364130.0,1666051969.8946922,6617310407.928011,280306142776.96606,10095474703866.324
1.3412089728127268,5519828468583389.0,1.290237061751666e+16,2650262970206188.5,4720148077348563.0,1945463153.0885553,7727094895.664006,327328330227.8314,11794100490238.443
1.4680331522689813,5779024809788159.0,1.3509534303220682e+16,2774712211501659.0,4941793571842904.0,2244914254.094967,8916475537.644732,377723639924.1435,13614825058246.092
1.597393815314361,6031890016619586.0,1.4102040449674352e+16,2896121653444389.0,5158025149567016.0,2564684809.147556,10186562608.58003,431539097745.95575,15559339698181.215
1.729341691620648,6279277716023854.0,1.468188457734227e+16,3014901152229661.5,5369572769015866.0,2905108136.8051467,11538680001.91511,488830786773.18,17629665497979.62
1.863928525453061,6521898608733712.0,1.5250728734133062e+16,3131391940171447.0,5577044168777422.0,3266564774.6647162,12974339160.788189,549662741382.89355,19828112805173.84
2.001207095962122,6760352024688603.0,1.5809975154852062e+16,3245881776564894.5,5780951851390489.0,3649477642.4681134,14495219866.15731,614106132294.1992,22157251378288.51
2.1412312378813647,6995149086149287.0,1.6360820330277186e+16,3358616069109092.0,5981732890724222.0,4054308439.7589455,16103155928.503515,682238659647.0477,24619888170574.42
2.284055862638992,7226730050106270.0,1.6904295489107522e+16,3469806200604796.5,6179763761920956.0,4481554947.897324,17800124471.595882,754144098459.8218,27219050697617.76
2.4297369798917723,7455477520244234.0,1.7441297438539114e+16,3579635872481302.5,6375371639289076.0,4931749008.907405,19588237904.597713,829911958119.9186,29957974579478.676
2.578331719489608,7681726668270397.0,1.797261242419739e+16,3688266012414266.0,6568843136825650.0,5405455020.781069,21469737945.504314,909637228880.8724,32840094265224.938
2.7298983538794,7905773250816862.0,1.849893484469853e+16,3795838623521258.5,6760431163677161.0,5903268833.922033,23446991237.883892,993420195934.807,35869036227265.06
2.884496320956988,8127879975257941.0,1.9020882112500856e+16,3902479840813688.5,6950360367714666.0,6425816964.349519,25522486225.765774,1081366306842.6449,39048614104531.2
3.0421862473761276,8348281610980566.0,1.9539006586667164e+16,4008302385296669.0,7138831506313417.0,6973756060.951888,27698831037.59595,1173586081756.537,42382825407666.34
3.2030299723236504,8567189134935271.0,2.0053805251727684e+16,4113407554393352.0,7326024991320863.0,7547772579.540123,29978752191.586517,1270195058474.1812,45875849494944.586
3.3670905717701234,8784793124965115.0,2.056572764098568e+16,4217886851200890.0,7512103790779901.0,8148582627.663025,32365093979.31719,1371313766253.7559,49532046596901.88
3.5344323832055258,9001266560856448.0,2.1075182377602228e+16,4321823329373096.0,7697215824180030.0,8776931952.398037,34860818417.22396,1477067723708.6692,53355957718587.16
3.7051210308696363,9216767154414554.0,2.1582542616596164e+16,4425292711871309.0,7881495954965123.0,9433596049.4889,37469005680.06798,1587587457138.7207,57352305286324.19
3.879223451487029,9431439301601304.0,2.2088150604918744e+16,4528364328254075.0,8065067659857040.0,10119380376.854324,40192854948.95705,1703008536438.0989,61525994434549.4
4.0568079205167695,9645415728837192.0,2.2592321527895412e+16,4631101905124451.0,8248044436650945.0,10835120659.046911,43035685620.6131,1823471626319.595,65882114850199.05
4.237944078927105,9858818889882912.0,2.309534677371175e+16,4733564236821701.0,8430530998724951.0,11581683271.988916,46000938835.493,1949122551057.2788,70425943109030.88
4.422702960505647,1.007176215783532e+16,2.3597496719890164e+16,4835805757740373.0,8612624294346683.0,12359965699.454878,49092179290.88098,2080112371310.7979,75162945451463.94
4.61115701971576,1.0284350847685764e+16,2.409902312449356e+16,4937877033296337.0,8794414381089340.0,13170897054.459137,52313097311.77759,2216597471879.0215,80098780955899.14
4.803380160110075,1.0496683097873194e+16,2.460016118842013e+16,5039825183191312.0,8975985179670616.0,14015438660.048225,55667511157.738846,2358739659456.606,85239305075743.52
4.9994477633122765,1.0708850633802726e+16,2.5101131342401524e+16,5141694248004845.0,9157415126857114.0,14894584685.072838,59159369548.09034,2506706269648.1787,90590573512962.02
5.199436718578522,1.0920939432011852e+16,2.5602140802311996e+16,5243525508083827.0,9338777743410094.0,15809362831.383078,62792754391.38809,2660670282641.1636,96158846406327.22
5.403425452950093,1.1133030300276132e+16,2.6103384928479164e+16,5345357762071516.0,9520142130148818.0,16760835069.596766,66571883707.80862,2820810447057.336,101950592816874.23
5.611493962009095,1.1345199386244348e+16,2.660504841838448e+16,5447227571121072.0,9701573402897678.0,17750098421.171864,70501114735.45392,2987311411600.8013,107972495496634.55
5.823723841249277,1.1557518625028092e+16,2.7107306357085588e+16,5549169473799052.0,9883133075231566.0,18778285784.991943,74584947213.45782,3160363864200.9355,114231455929668.84
6.040198318074262,1.1770056134422114e+16,2.7610325145614532e+16,5651216175844460.0,1.0064879396439064e+16,19846566807.07316,78828026836.36711,3340164678415.8496,120734599636857.05
6.261002284435747,1.1982876565014034e+16,2.811426332429569e+16,5753398718268768.0,1.0246867650910334e+16,20956148792.33483,83235148875.59557,3526917066918.2607,127489281737966.83
6.486222330124463,1.2196041411283636e+16,2.861927230522305e+16,5855746626725538.0,1.0429150424166068e+16,22108277657.658306,87811261964.87086,3720830741933.2495,134503092766248.64
6.715946776726952,1.2409609288841974e+16,2.912549702592226e+16,5958288044622572.0,1.0611777839931924e+16,23304238925.698727,92561472047.54799,3922122082537.601,141783864732275.22
6.950265712261491,1.2623636182176122e+16,2.963307653438957e+16,6061049852072994.0,1.079479777199144e+16,24545358759.11795,97491046484.47318,4131014308765.1943,149339677435009.4
7.18927102650672,1.283817566661722e+16,3.0142144514188576e+16,6164057772469717.0,1.097825603399658e+16,25833005035.087246,102605418321.79259,4347737662492.559,157178865019164.66
7.433056447036854,1.3053279107707146e+16,3.065282975702032e+16,6267336468208484.0,1.1162196549951534e+16,27168588460.05841,107910190718.70665,4572529595104.756,165310022778874.38
7.681717575977592,1.3268995840688408e+16,3.1165256589130136e+16,6370909626867173.0,1.134666150769882e+16,28553563724.939205,113411141535.70517,4805634961964.34,173742014208504.56
7.935351927497144,1.3485373332461052e+16,3.167954525702602e+16,6474800038967034.0,1.1531691497413248e+16,29989430700.92698,119114228084.29268,5047306223726.063,182483978302179.16
8.194058966047088,1.3702457328031558e+16,3.2195812277239804e+16,6579029668287912.0,1.1717325636833796e+16,31477735676.35924,125025592039.63043,5297803654558.119,191545337104234.16
8.45794014536803,1.3920291983206984e+16,3.271417075422825e+16,6683619715579345.0,1.1903601684734046e+16,33020072635.035477,131151564517.89706,5557395557346.048,200935803513393.3
8.72709894827539,1.4138919985058092e+16,3.323473066997619e+16,6788590676399138.0,1.2090556143933136e+16,34618084576.54848,137498671320.5096,5826358485970.29,210665389343988.12
9.0016409272409,1.4358382661479408e+16,3.3757599148406004e+16,6893962393717003.0,1.2278224354983566e+16,36273464879.24208,144073638347.65045,6104977474761.276,220744413648017.1
9.281673745785717,1.457872008100661e+16,3.428288069730789e+16,6999754105840356.0,1.2466640581527514e+16,37987958706.483315,150883397183.83505,6393546275247.732,231183511302274.25
9.567307220701432,1.4799971143907456e+16,3.481067743016962e+16,7105984490150256.0,1.2655838088191094e+16,39763364457.00037,157935090858.50998,6692367600325.113,241993641865188.66
9.85865336511546,1.502217366543985e+16,3.5341089269996348e+16,7212671703076567.0,1.2845849211780498e+16,41601535260.102585,165236079784.91132,7001753375981.52,253186098708382.97
10.155826432417769,1.5245364452063188e+16,3.5874214136962504e+16,7319833416689625.0,1.3036705426452214e+16,43504380516.652405,172793947880.65146,7322025000727.475,264772518428320.6
10.458942961066125,1.5469579371296892e+16,3.6410148121522616e+16,7427486852241829.0,1.3228437403450944e+16,45473867486.71449,180616508873.70245,7653513612885.879,276764890543730.16
10.768121820287448,1.5694853415840804e+16,3.694898564442195e+16,7535648810954063.0,1.3421075065940646e+16,47512022924.859344,188711812797.65738,7996560365906.297,289175567484831.44
11.083484256693197,1.5921220762501412e+16,3.7490819604883416e+16,7644335702308248.0,1.3614647639393706e+16,49620934764.1459,197088152680.34244,8351516711876.472,302017274880668.2
11.405153941827061,1.6148714826407742e+16,3.803574151810828e+16,7753563570078235.0,1.3809183697952494e+16,51802753849.85595,205754071430.03693,8718744693411.839,315303122151158.5
11.733257020663602,1.6377368310947522e+16,3.858384164310417e+16,7863348116306015.0,1.4004711207131128e+16,54059695724.097496,214718368923.74585,9098617244111.023,329046613410754.8
12.067922161076874,1.6607213253807864e+16,3.913520910174135e+16,7973704723407369.0,1.4201257563185776e+16,56394042462.43991,223990109302.13297,9491518497773.53,343261658690855.06
12.409280604298411,1.6838281069463304e+16,3.96899319898509e+16,8084648474571903.0,1.4398849629447616e+16,58808144563.78583,233578628475.90588,9897844106582.197,357962585488418.3
12.75746621638438,1.7070602588419018e+16,4.0248097481086216e+16,8196194172605099.0,1.4597513769880502e+16,61304422894.72528,243493541848.6063,10318001568460.84,373164150648443.9
13.112615540712067,1.730420809348413e+16,4.080979192420274e+16,8308356357344345.0,1.4797275880099308e+16,63885370689.661835,253744752260.91837,10752410563824.033,388881552588285.6
13.474867851526309,1.7539127353322918e+16,4.137510093433914e+16,8421149321768158.0,1.4998161416060396e+16,66553555608.04062,264342458161.77972,11201503301943.04,405130443871975.06
13.844365208556836,1.7775389653506752e+16,4.194410947883091e+16,8534587126905185.0,1.5200195420614954e+16,69311621850.04605,275297162011.7325,11665724877158.559,421926944143018.8
14.221252512727972,1.801302382526686e+16,4.2516901958033304e+16,8648683615639448.0,1.5403402548096152e+16,72162292332.1793,286619678924.1148,12145533635177.908,439287653424361.56
14.605677562982532,1.8252058272129176e+16,4.309356228158406e+16,8763452425498744.0,1.5607807087095484e+16,75108370924.16705,298321145549.84875,12641401549701.03,457229665794461.56
14.997791114242183,1.8492520994595296e+16,4.367417394050007e+16,8878907000504698.0,1.581343298156779e+16,78152744748.6872,310413029211.7393,13153814609625.727,475770583448670.94
15.397746936527026,1.873443961301624e+16,4.425882007545956e+16,8995060602155429.0,1.6020303850391566e+16,81298386545.44202,322907137294.35614,13683273217090.227,494928531155359.3
15.805701875257567,1.897784138879491e+16,4.484758354159683e+16,9111926319605412.0,1.62284430054994e+16,84548357101.14671,335815626895.7185,14230292596617.1,514722171116464.9
16.221815912762718,1.922275324403709e+16,4.54405469701005e+16,9229517079100714.0,1.643787346868221e+16,87905807747.03929,349151014747.1849,14795403215628.924,535170718242411.56
16.64625223101797,1.9469201779762524e+16,4.603779282688589e+16,9347845652722798.0,1.6648617987162074e+16,91373982925.5589,362926187408.0663,15379151216614.176,556293955851555.6
17.079177275638333,1.9717213292775956e+16,4.663940346858429e+16,9466924666488854.0,1.6860699048019086e+16,94956222827.88133,377154411741.67365,15982098861226.465,578112251804603.6
17.5207608211511,1.9966813791290068e+16,4.724546119607667e+16,9586766607852872.0,1.707413889155065e+16,98655966104.03105,391849345679.6524,16604824986608.783,600646575084669.8
17.97117603757412,2.0218029009382776e+16,4.785604830577475e+16,9707383832647176.0,1.7288959523634682e+16,102476752647.34378,407025049281.61237,17247925474239.57,623918512833887.1
18.430599558325603,2.0470884420365212e+16,4.847124713883867e+16,9828788571500862.0,1.7505182727160664e+16,106422226455.07643,422695996097.22955,17912013731605.66,647950287857766.0
18.899211549492115,2.0725405249130016e+16,4.909114012850685e+16,9950992935768524.0,1.772283007258917e+16,110496138567.0176,438877084838.1439,18597721187012.31,672764776608705.1
19.37719578048196,2.098161648354254e+16,4.971580984569447e+16,1.0074008922999758e+16,1.7941922927692468e+16,114702350083.97417,455583651367.1357,19305697797848.855,698385527660343.0
19.864739696091597,2.1239542884933204e+16,5.034533904301084e+16,1.0197848421976762e+16,1.816248246652726e+16,119044835268.07115,472831481012.2486,20036612572633.39,724836780684681.5
20.36203449001343,2.149920899774398e+16,5.09798106973305e+16,1.0322523217345982e+16,1.838452967768319e+16,123527684726.81961,490636821213.6429,20791154107169.594,752143485944172.0
20.869275179813698,2.1760639158377344e+16,5.161930805104401e+16,1.0448044993866888e+16,1.8608085371850236e+16,128155108682.96555,509016394511.15936,21570031135151.836,780331324311178.5
21.38666068340997,2.2023857503292184e+16,5.226391465210587e+16,1.0574425340298996e+16,1.8833170188741404e+16,132931440332.16435,527987411880.7236,22373973093565.215,809426727827564.6
21.91439389707817,2.228888797638705e+16,5.291371439298669e+16,1.070167575294684e+16,1.905980460340645e+16,137861139290.56757,547567586427.88696,23203730703231.707,839456900817319.9
22.452681775019734,2.2555754335708736e+16,5.356879154863132e+16,1.0829807638881126e+16,1.9288008931968628e+16,142948795134.4515,567775147446.9352,24060076564861.027,870449841565457.5
23.00173541052013,2.282448015951961e+16,5.42292308135176e+16,1.0958832318851636e+16,1.9517803336812836e+16,148199131034.05478,588628854854.2097,24943805770972.316,902434364576662.2
23.561770118730532,2.3095088851755756e+16,5.489511733790013e+16,1.1088761029908128e+16,1.9749207831253244e+16,153617007483.8368,610148014004.3922,25855736534059.09,935440123427421.8
24.133005521105144,2.3367603646904576e+16,5.556653676332474e+16,1.1219604927741994e+16,1.998224228370417e+16,159207426131.40466,632352490898.7126,26796710831376.586,969497634225623.8
24.715665631527248,2.3642047614328076e+16,5.624357525748753e+16,1.1351375088762288e+16,2.021692642137699e+16,164975533707.40317,655262727794.1613,27767595066738.492,1004638299691904.5
25.309978944157795,2.391844366205708e+16,5.692631954851125e+16,1.148408251191718e+16,2.0453279833524704e+16,170926626058.6956,678899759222.985,28769280749715.14,1040894433877242.2
25.91617852304095,2.4196814540077256e+16,5.761485695870627e+16,1.1617738120271996e+16,2.0691321974251948e+16,177066152287.21365,703285228431.8724,29802685192635.043,1078299287531584.1
26.53450209350177,2.447718284312941e+16,5.830927543787992e+16,1.1752352762353408e+16,2.09310721649095e+16,183399718996.88177,728441404250.4418,30868752225794.4,1116887074138547.6
27.165192135371807,2.4759571013040916e+16,5.900966359625401e+16,1.1887937213269122e+16,2.1172549596088092e+16,189933094651.077,754391198398.7482,31968452931290.703,1156692996631495.0
27.808495978079243,2.5044001340607908e+16,5.971611073704673e+16,1.2024502175611418e+16,2.1415773329227596e+16,196672214043.11243,781158183243.7158,33102786395899.035,1197753274806534.2
28.464665897640828,2.5330495967041576e+16,6.042870688877233e+16,1.2162058280151638e+16,2.1660762297854416e+16,203623182882.27905,808766610014.5784,34272780483419.266,1240105173448286.5
29.133959215593645,2.5619076884996064e+16,6.114754283731094e+16,1.230061608633361e+16,2.1907535308459784e+16,210792282498.018,837241427487.5223,35479492626928.09,1283787031184448.0
29.816638399905518,2.590976593918901e+16,6.187271015779448e+16,1.2440186082571886e+16,2.215611104103087e+16,218185974664.83734,866608301149.9255,36724010641375.586,1328838290085525.8
30.51297116790363,2.620258482662895e+16,6.260430124635707e+16,1.2580778686360458e+16,2.2406508049244972e+16,225810906550.61642,896893632854.6842,38007453556975.11,1375299526026278.5
31.223230591261704,2.6497555096459716e+16,6.3342409351791e+16,1.2722404244198366e+16,2.265874476033656e+16,233673915790.9935,928124580975.3586,39330972473836.8,1423212479825759.8
31.947695203086937,2.679469814943274e+16,6.4087128607153416e+16,1.2865073031336492e+16,2.2912839474646212e+16,241782035692.56067,960329081072.9108,40695751438308.67,1472620089182936.0
32.686649107148675,2.7094035237017492e+16,6.4838554061361576e+16,1.3008795251350026e+16,2.3168810364859656e+16,250142500567.61963,993535867085.025,42103008341487.95,1523566521425324.8
33.44038208929165,2.7395587460157924e+16,6.5596781710816504e+16,1.3153581035541536e+16,2.3426675474944308e+16,258762751203.31165,1027774493049.1404,43553995840376.27,1576097207088096.0
34.20918973107749,2.7699375767682944e+16,6.636190853109106e+16,1.3299440442178056e+16,2.3686452718790588e+16,267650440467.9417,1063075355370.4425,45050002302156.516,1630258874341530.2
34.993373525699035,2.8005420954379924e+16,6.713403250872077e+16,1.3446383455565712e+16,2.3948159878563656e+16,276813439057.3683,1099469715646.169,46592352772076.08,1686099584284788.2
35.793240996213015,2.831374365873569e+16,6.7913252673128776e+16,1.3594419984965344e+16,2.4211814602772604e+16,286259841384.36597,1136989724057.8203,48182409965424.54,1743668767124271.0
36.60910581613728,2.862436436035345e+16,6.869966912872093e+16,1.3743559863352318e+16,2.447743440406091e+16,295997971613.88873,1175668443342.8752,49821575284102.3,1803017259255045.5
37.44128793246003,2.8937303377050092e+16,6.949338308718274e+16,1.3893812846022488e+16,2.4745036656724656e+16,306036389847.1892,1215539873357.7769,51511289858279.68,1864197341264030.0
38.29011369110923,2.925258086163917e+16,7.029449690001069e+16,1.4045188609048114e+16,2.501463859396129e+16,316383898457.8129,1256638976244.1494,53253035613652.65,1927262776873776.2
39.15591596493141,2.957021679840549e+16,7.110311409130703e+16,1.4197696747584764e+16,2.5286257304855184e+16,327049548582.45935,1299001702210.1694,55048336364804.695,1992268852846012.8
40.03903428423004,2.989023099927437e+16,7.191933939087043e+16,1.4351346774032166e+16,2.555990973110185e+16,338042646769.78925,1342665015939.2698,56898758935190.086,2059272419864158.5
40.93981496991464,3.0212643099680476e+16,7.274327876761038e+16,1.4506148116050794e+16,2.583561266347515e+16,349372761790.21967,1387666923638.3296,58805914304257.875,2128331934414317.8
