t(s),Total solute volume 1,Total retention volume 1,Total 1 volume 1,Total 2 volume 1,Total 3 volume 1,Total 4 volume 1,Total 5 volume 1,Total 6 volume 1
0.1,1038034012882719.0,1307672365282961.0,121693262551923.95,147945089848319.12,0.0,0.0,0.0,0.0
0.202,1563482502687099.0,1969617247400252.0,183293885451680.6,222834281058118.53,6440842.066661458,14221175.37074537,254077660.29953173,6303463676.456453
0.30604000000000003,1963786670988325.2,2473914015683826.0,230223292326095.1,279887361001949.12,16341350.649114162,36081200.07122665,644639181.3319585,15994305725.55747
0.41216080000000005,2302404832294213.0,2900504145106119.0,269920979014336.2,328148684493169.9,29026497.69256862,64089625.8842602,1145052436.722737,28411135844.07642
0.5204040160000001,2603130515691848.0,3279361434758061.5,305176364931047.8,371009408254599.44,44196686.72007156,97584951.8131499,1743498263.8283436,43260600664.48728
0.6308120963200001,2877821339213249.5,3625423457910742.0,337379570458498.44,410159531277081.8,61691272.29380742,136212477.20826662,2433639236.6366987,60385418924.76676
0.7434283382464002,3133369776127801.5,3947372973902442.0,367338630357798.06,446581398643058.3,81418470.16683835,179769545.04605675,3211854501.060697,79695731267.0202
0.8582969050113283,3374191481376151.5,4250772589580847.5,395571211153228.4,480904348578108.25,103326559.14114732,228141956.3909603,4076103675.290991,101140901161.3389
0.9754628431115548,3603312427680826.0,4539434273974141.0,422432060849757.6,513559655791098.25,127389692.56861298,281272642.5783578,5025367114.169112,124695623012.83157
1.094972099973786,3822911566924231.0,4816102972652211.0,448176627497906.25,544857873919954.8,153600041.3429821,339144317.1603294,6059335952.583081,150352229813.87857
1.2168715419732616,4034618759613158.0,5082831922136299.0,472995986766823.56,575031297726786.6,181963073.20127234,401769052.7365358,7178225876.039304,178116071524.65128
1.3412089728127268,4239690498363446.5,5341204016009624.0,497037442776282.25,604259007968419.9,212494541.3562492,469181631.94046223,8382658323.869704,208002566969.82407
1.4680331522689813,4439119528433868.5,5592469898284134.0,520417379390890.8,632682494988646.4,245218474.36033568,541435109.1164718,9673581190.605059,240035235960.49057
1.597393815314361,4633706386695158.0,5837638083818941.0,543229647046044.2,660415854761242.4,280165786.5408192,618597742.200696,11052214008.570961,274244338955.422
1.729341691620648,4824107853491051.0,6077535994964948.0,565551242971305.0,687552694458587.8,317373291.05037177,700750813.565051,12520009013.424868,310665910876.8885
1.863928525453061,5010870804318417.0,6312852605782069.0,587446279770797.1,714170957139403.8,356882984.2010245,787987049.8473775,14078622911.654255,349341060506.0533
2.001207095962122,5194456494430673.0,6544169034241127.0,608968832413379.0,740336382895345.6,398741518.5349064,880409458.5069306,15729896093.612501,390315454645.13916
2.1412312378813647,5375258381290147.0,6771980993812555.0,630165027636599.5,766105048983954.4,442999810.87412083,978130462.4099326,17475837171.385864,433638934418.5299
2.284055862638992,5553615466154047.0,6996715600346130.0,651074608039146.6,791525271329124.4,489712749.2657473,1081271252.7727065,19318611418.000202,479365228387.47797
2.4297369798917723,5729822456672801.0,7218744174268471.0,671732123486618.5,816639052938517.9,538938973.9614348,1189961305.5710733,21260532127.2356,527551738140.7266
2.578331719489608,5904137628186655.0,7438392143754078.0,692167852725714.0,841483204329549.6,590740714.9109179,1304338022.7308245,23304054202.87072,578259379209.0116
2.7298983538794,6076788988995128.0,7655946811355615.0,712408526165682.2,866090222230202.5,645183673.1739874,1424546470.288934,25451769480.475094,631552464973.013
2.884496320956988,6247979175514621.0,7871663520635827.0,732477899759054.2,890488987258060.0,702336937.036454,1550739193.180106,27706403418.244984,687498624544.2358
3.0421862473761276,6417889382495489.0,8085770607235300.0,752397215758158.4,914705324071823.2,762272925.9840513,1683076091.5329368,30070812886.812195,746168747916.9039
3.2030299723236504,6586682550543672.0,8298473414346419.0,772185576402208.8,938762455670645.9,825067357.3778864,1821724347.0903583,32547984854.608665,807636953343.0183
3.3670905717701234,6754505975204948.0,8509957579515255.0,791860249791657.1,962681375252126.0,890799231.9002464,1966858391.074558,35141035813.70627,871980573082.1841
3.5344323832055258,6921493460653879.0,8720391747770905.0,811436922374554.2,986481153165335.9,959550834.7416226,2118659906.808025,37853211826.63389,939280154560.8712
3.7051210308696363,7087767111292376.0,8929929828622409.0,830929908983482.8,1010179192257202.6,1031407750.1727797,2277317861.8883686,40687889101.22086,1009619474634.5327
3.879223451487029,7253438832815100.0,9138712887065556.0,850352328811999.8,1033791441810827.2,1106458887.6542847,2443028565.8375945,43648575020.58588,1083085565143.9519
4.0568079205167695,7418611598191474.0,9346870738451622.0,869716253831265.4,1057332577978721.5,1184796518.0247781,2615995750.004823,46738909570.7197,1159768748337.7705
4.237944078927105,7583380521947293.0,9554523301869198.0,889032834732746.9,1080816156894048.1,1266516318.6095452,2796430667.1649876,49962667119.96855,1239762681027.276
4.422702960505647,7747833776989694.0,9761781755176540.0,908312408411627.0,1104254745340499.2,1351717426.3256598,2984552208.7735214,53323758513.97313,1323164406568.9978
4.61115701971576,7912053381231009.0,9968749526019398.0,927564590186147.2,1127660032865302.0,1440502498.0446303,3180587038.245546,56826233456.90861,1410074413951.808
4.803380160110075,8076115875870964.0,1.0175523146371596e+16,946798353315609.2,1151042928450943.5,1532977777.6204107,3384769738.9519506,60474283155.67006,1500596703408.7434
4.9994477633122765,8240092912996929.0,1.038219299284415e+16,966022097887295.8,1174413644262502.5,1629253169.1086886,3597342975.8856735,64272243208.29427,1594838858089.4692
5.199436718578522,8404051766864150.0,1.05888439308559e+16,985243710756117.5,1197781768517499.8,1729442315.7984114,3818557670.1611934,68224596721.671684,1692912121422.3794
5.403425452950093,8568055780611095.0,1.0795555877473192e+16,1004470617914976.5,1221156329153704.5,1833662684.7543924,4048673185.682403,72335977646.66302,1794931479871.4456
5.611493962009095,8732164758087696.0,1.100240429511079e+16,1023709830430514.0,1244545849674203.0,1942035656.6336179,4287957527.4545956,76611174321.26024,1901015750855.4973
5.823723841249277,8896435308809663.0,1.1209460626188066e+16,1042967984883620.6,1267958398311761.0,2054686620.5906453,4536687551.133143,81055133214.50525,2011287675649.2173
6.040198318074262,9060921152708194.0,1.1416792677142074e+16,1062251379096559.9,1291401631463068.0,2171745074.1317225,4795149183.498678,85672962865.6332,2125874017128.3464
6.261002284435747,9225673390254038.0,1.1624464958825486e+16,1081566003800807.8,1314882832188008.8,2293344727.8141527,5063637653.630557,90469938014.3532,2244905662257.9263
6.486222330124463,9390740742644856.0,1.1832538989196848e+16,1100917570795258.9,1338408944442183.0,2419623614.718957,5342457734.619624,95451503919.43535,2368517729253.0557
6.715946776726952,9556169766014408.0,1.2041073563288652e+16,1120311538058899.6,1361986603606911.8,2550724204.6516705,5631923995.720566,100623280863.81216,2496849679367.9775
6.950265712261491,9722005043019272.0,1.22501249946824e+16,1139753132211367.5,1385622163795038.8,2686793523.049136,5932361064.89488,105991068845.33228,2630045433291.8345
7.18927102650672,9888289354660762.0,1.245974733208864e+16,1159247368656383.8,1409321722339718.0,2827983274.5901613,6244103901.740092,111560852453.07411,2768253492148.976
7.433056447036854,1.00550638347828e+16,1.2669992554108192e+16,1178799069694207.2,1433091141814094.5,2974449971.525583,6567498080.839113,117338805929.83672,2911627063119.04
7.681717575977592,1.0222368109339876e+16,1.2880910744812196e+16,1198412880848628.8,1456936069880419.8,3126355066.758479,6902900085.597883,123331298422.02101,3060324189706.934
7.935351927497144,1.0390240422237446e+16,1.3092550252411438e+16,1218093285619800.0,1480861957225339.2,3283865091.7192965,7250677612.6699505,129544899418.65962,3214507886706.418
8.194058966047088,1.0558717749301048e+16,1.3304957832975582e+16,1237844618845313.8,1504874073803256.2,3447151799.092715,7611209887.093795,135986384381.85127,3374346279913.111
8.45794014536803,1.0727835901722072e+16,1.3518178780901114e+16,1257671078827622.8,1528977523579907.0,3616392310.464445,7984887988.293055,142662740571.27664,3540012750653.461
8.72709894827539,1.089762962015285e+16,1.373225704760393e+16,1277576738365191.0,1553177257943152.8,3791769268.966412,8372115187.113154,149581173065.89688,3711686085206.609
9.0016409272409,1.1068132659085866e+16,1.394723534977402e+16,1297565554651686.5,1577478087762805.5,3973470997.6043477,8773307312.983461,156749119476.75778,3889552375890.1543
9.281673745785717,1.123937787072398e+16,1.4163155268057424e+16,1317641379080318.2,1601884695209132.8,4161691659.7982035,9188893038.50025,164174222619.4967,4073798236670.7754
9.567307220701432,1.1411397268328292e+16,1.4380057337679024e+16,1337807964712642.0,1626401642984364.2,4356631431.123972,9619314362.826351,171864387476.10303,4264621320459.0615
9.85865336511546,1.1584222097478112e+16,1.4597981131333142e+16,1358068974604446.8,1651033384343466.8,4558496670.567338,10065026920.761414,179827754691.7329,4462223628808.476
10.155826432417769,1.1757882895018726e+16,1.4816965335380088e+16,1378427988723537.8,1675784271529561.8,4767500100.227335,10526500396.685415,188072715929.7102,4666813391851.03
10.458942961066125,1.1932409544572246e+16,1.503704781996576e+16,1398888510457515.5,1700658563685591.5,4983860990.083175,11004218932.519337,196607921160.4953,4878605249334.622
10.768121820287448,1.2107831327692964e+16,1.5258265703659336e+16,1419453972610936.2,1725660434145193.5,5207805348.541441,11498681548.448044,205442286178.57715,5097820437146.56
11.083484256693197,1.228417697108643e+16,1.5480655413138684e+16,1440127742941013.8,1750793977162542.0,5439566118.903758,12010402576.716246,214585000352.93094,5324686979632.8125
11.405153941827061,1.2461474690264684e+16,1.5704252738392516e+16,1460913129275514.8,1776063214134336.5,5679383381.902044,12539912108.821274,224045534616.83777,5559439887856.672
11.733257020663602,1.263975222997055e+16,1.5929092883858282e+16,1481813384251869.8,1801472099361188.8,5927504564.45468,13087756456.441206,233833649703.10037,5802321363946.794
12.067922161076874,1.281903690166649e+16,1.615521051586899e+16,1502831709712172.5,1827024525390737.8,6184184654.802931,13654498626.450762,243959404630.96753,6053581011690.99
12.409280604298411,1.2999355618353536e+16,1.638263980674309e+16,1523971260785126.0,1852724327980166.8,6449686424.193673,14240718810.391298,254433165451.30084,6313476053538.046
12.75746621638438,1.3180734926957568e+16,1.661141447581644e+16,1545235149682843.0,1878575290712051.5,6724280655.280426,14847014888.774603,265265614256.76642,6582271554176.025
13.112615540712067,1.3363201038495604e+16,1.6841567827685418e+16,1566626449237393.8,1904581149293780.5,7008246377.421011,15474002950.614103,276467758464.0997,6860240650861.503
13.474867851526309,1.354677985621428e+16,1.7073132787901824e+16,1588148196199553.2,1930745595567994.5,7301871109.05638,16122317828.59154,288050940375.7122,7147664790680.505
13.844365208556836,1.3731497001872492e+16,1.7306141936337764e+16,1609803394320084.5,1957072281258464.8,7605451107.361373,16792613650.279585,300026847028.1707,7444833974927.965
14.221252512727972,1.3917377840323862e+16,1.7540627538416332e+16,1631595017231600.8,1983564821473718.8,7919291625.364671,17485564405.85636,312407520335.32654,7752047010798.43
14.605677562982532,1.4104447502539634e+16,1.7776621574385518e+16,1653526011147688.2,2010226797988371.8,8243707176.741279,18201864532.760925,325205367534.12665,8069611770587.576
14.997791114242183,1.4292730907199368e+16,1.8014155766795566e+16,1675599297394019.5,2037061762320284.5,8579021808.487741,18942229517.7533,338433171941.377,8397845458609.721
15.397746936527026,1.4482252780964102e+16,1.82532616063252e+16,1697817774785117.8,2064073238620024.5,8925569381.696388,19707396516.85743,352104104030.02606,8737074886043.774
15.805701875257567,1.4673037677537022e+16,1.8493970376088948e+16,1720184321858901.8,2091264726387464.2,9283693860.651814,20498124993.67924,366231732833.7342,9087636753925.262
16.221815912762718,1.4865109995606736e+16,1.8736313174545304e+16,1742701798980245.8,2118639703029121.2,9653749610.47968,21315197376.607563,380830037688.8318,9449877944510.342
16.64625223101797,1.5058493995759314e+16,1.8980320937114476e+16,1765373050323661.5,2146201626268533.8,10036101703.584082,22159419735.421406,395913420322.9844,9824155821243.086
17.079177275638333,1.5253213816437648e+16,1.9226024456606412e+16,1788200905744282.8,2173953936420884.2,10431126235.117725,23031622477.839836,411496717300.18286,10210838537564.096
17.5207608211511,1.544929348902108e+16,1.947345440254834e+16,1811188182545722.5,2201900058542187.8,10839210647.735285,23932661066.570133,427595212831.9573,10610305354807.26
17.97117603757412,1.564675695208967e+16,1.9722641339496516e+16,1834337687152321.5,2230043404462303.8,11260754065.888258,24863416757.422825,444224651964.9876,11022946969435.783
18.430599558325603,1.5845628064934036e+16,1.9973615744406476e+16,1857652216692976.0,2258387374710416.0,11696167639.92633,25824797359.079746,461401254155.575,11449165849878.008
18.899211549492115,1.6045930620365442e+16,2.0226408023132524e+16,1881134560502900.8,2286935360340782.0,12145874900.278683,26817738015.117317,479141727241.7549,11889376583230.291
19.37719578048196,1.6247688356876532e+16,2.0481048526119844e+16,1904787501549326.2,2315690744665942.0,12610312121.995104,27843202008.906063,497463281824.1122,12344006232100.998
19.864739696091597,1.6450924970199152e+16,2.0737567563347764e+16,1928613817786441.0,2344656904903985.5,13089928699.936049,28902181592.020874,516383646066.65436,12813494701878.465
20.36203449001343,1.6655664124301632e+16,2.09959954185782e+16,1952616283444650.5,2373837213745921.0,13585187534.907595,29995698836.818123,535921080929.48505,13298295118712.453
20.869275179813698,1.686192946186479e+16,2.1256362362958556e+16,1976797670258734.2,2403235040848762.0,14096565431.045647,31124806513.85162,556094395845.2361,13798874218508.057
21.38666068340997,1.7069744614272268e+16,2.1518698668025332e+16,2001160748639053.2,2432853754259411.0,14624553504.762987,32290588994.817776,576922964851.6394,14315712747237.158
21.91439389707817,1.7279133211148956e+16,2.1783034618149744e+16,2025708288789790.5,2462696721774107.5,15169657605.579727,33494163181.740135,598426743192.8961,14849305872883.133
22.452681775019734,1.7490118889477682e+16,2.2049400522465136e+16,2050443061777727.0,2492767312237775.0,15732398749.167948,34736679463.12226,620626284402.8756,15400163609340.752
23.00173541052013,1.770272530232267e+16,2.2317826726311656e+16,2075367840554929.8,2523068896787310.0,16313313562.948711,36019322697.81638,643542757883.5154,15968811252604.168
23.561770118730532,1.7916976127185634e+16,2.2588343622231148e+16,2100485400938389.5,2553604850042567.5,16912954744.590742,37343313227.37763,667197966992.1351,16555789829582.412
24.133005521105144,1.8132895074018984e+16,2.2860981660543776e+16,2125798522549430.5,2584378551248406.5,17531891533.766205,38709907917.691376,691614367651.791,17161656559892.855
24.715665631527248,1.8350505892918372e+16,2.313577135953487e+16,2151309989715531.0,2615393385371059.0,18170710197.532337,40120401230.684814,716815087499.0924,17786985330991.027
25.309978944157795,1.8569832381515052e+16,2.341274331527731e+16,2177022592337019.0,2646652744151788.5,18830014529.713974,41576126326.95318,742823945584.3822,18432367187005.27
25.91617852304095,1.8790898392088212e+16,2.3691928211116284e+16,2202939126720776.8,2678160027120450.5,19510426364.67379,43078456200.15298,769665472639.477,19098410831653.914
26.53450209350177,1.9013727838413468e+16,2.3973356826836916e+16,2229062396383222.2,2709918642571673.0,20212586105.866524,44628804844.039215,797364931928.6224,19785743145632.742
27.165192135371807,1.9238344702365856e+16,2.425706004753742e+16,2255395212824361.5,2741932008505906.5,20937153269.584137,46228628453.042656,825948340698.6932,20495009718870.406
27.808495978079243,1.9464773040291664e+16,2.4543068872227972e+16,2281940396274781.0,2774203553537553.5,21684807044.308537,47879426657.308685,855442492245.1094,21226875398059.625
28.464665897640828,1.9693036989163416e+16,2.4831414422172e+16,2308700776417242.0,2806736717772235.0,22456246866.099895,49582743793.143936,885874978610.3173,21982024849882.223
29.133959215593645,1.9923160772531948e+16,2.5122127948988996e+16,2335679193084452.5,2839534953655067.5,23252193010.459736,51340170209.83694,917274213932.1759,22761163140356.88
29.816638399905518,2.015516870628723e+16,2.541524084253345e+16,2362878496934447.5,2872601726791743.0,24073387201.118565,53153343613.84796,949669458459.9524,23565016330749.168
30.51297116790363,2.0389085204239604e+16,2.571078463856587e+16,2390301550104868.5,2905940516743991.5,24920593236.208256,55023950451.3868,983090843256.1499,24394332090494.363
31.223230591261704,2.062493478353202e+16,2.600879102622869e+16,2417951226847546.5,2939554817800955.5,25794597632.293594,56953727330.41917,1017569395602.8003,25249880327593.99
31.947695203086937,2.086274206989355e+16,2.6309291855340604e+16,2445830414144280.5,2973448139727910.5,26696210286.745907,58944462483.17638,1053137065131.3043,26132453836960.09
32.686649107148675,2.1102531802742108e+16,2.6612319143521144e+16,2473942012305125.5,3007624008493593.0,27626265158.956253,60997997270.25844,1089826750695.428,27042868967189.676
33.44038208929165,2.1344328840145684e+16,2.691790508315585e+16,2502288935550022.0,3042085966977234.0,28585620970.89531,63116227727.45739,1127672328007.4658,27981966306266.613
34.20918973107749,2.158815816364892e+16,2.722608204821289e+16,2530874112574595.5,3076837575656488.5,29575161927.54108,65301106156.44701,1166708678058.092,28950611386697.473
34.993373525699035,2.1834044882971904e+16,2.7536882600918224e+16,2559700487101051.5,3111882413277137.5,30595798457.706905,67554642760.51615,1206971716340.91,29949695410599.812
35.793240996213015,2.2082014240586736e+16,2.7850339498300256e+16,2588771018414687.0,3147224077505341.5,31648467975.813972,69878907326.54755,1248498422903.176,30980135995274.125
36.60910581613728,2.2332091616177172e+16,2.81664856986068e+16,2618088681886714.5,3182866185563229.5,32734135665.166412,72276030954.47266,1291326873244.641,32042877939801.617
37.44128793246003,2.2584302530984444e+16,2.8485354367602936e+16,2647656469483748.5,3218812374848337.0,33853795283.295925,74748207835.45793,1335496270086.9165,33138894013220.113
38.29011369110923,2.2838672652042612e+16,2.8806978884752092e+16,2677477390264344.5,3255066303537208.5,35008469989.95867,77297697080.10413,1381046976036.336,34269185764844.32
39.15591596493141,2.309522779630468e+16,2.913139284928309e+16,2707554470862691.5,3291631651173466.0,36199213198.37552,79926824597.96863,1428020547163.5266,35434784357304.65
40.03903428423004,2.335399393465913e+16,2.94586300861438e+16,2737890755959513.5,3328512119240261.5,37427109450.31895,82637985029.73727,1476459767523.583,36636751422890.78
40.93981496991464,2.3614997195835252e+16,2.9788724651839596e+16,2768489308739904.5,3365711431716902.5,38693275315.65868,85433643733.40709,1526408684640.9207,37876179943796.53
41.85861126931294,2.38782638701932e+16,3.0121710840151828e+16,2799353211337633.0,3403233335619010.5,39998860316.992165,88316338825.8468,1577912645983.4043,39154195156867.26
42.7957834946992,2.4143820413392616e+16,3.045762318773034e+16,2830485565265261.0,3441081601521374.5,41345047879.985825,91288683281.13353,1631018336450.571,40471955483464.445
43.751699164593184,2.4411693449931116e+16,3.07964964795477e+16,2861889491828936.0,3479260024062275.0,42733056310.06875,94353367087.07112,1685773816901.0913,41830653485063.6
