t(s),Total solute volume 1,Total retention volume 1,Total 1 volume 1,Total 2 volume 1,Total 3 volume 1,Total 4 volume 1,Total 5 volume 1,Total 6 volume 1
0.1,964857416365797.9,1154672529873703.2,88762465329957.31,101052648177948.16,0.0,0.0,0.0,0.0
0.202,1453481304581812.8,1739537716652599.2,133713626539210.83,152227815015139.28,159362665.4187949,318061069.01779824,4884005375.459841,109609087324.61055
0.30604000000000003,1825621782495004.2,2185065631429316.0,167948847031994.72,191203295407271.12,404325197.4371449,806965271.6154072,12391460793.57319,278103743783.32806
0.41216080000000005,2140368954311981.8,2561959030246224.0,196904146065975.34,224167788458680.84,718169208.0634274,1433345451.7358387,22009965499.15923,493979929427.1995
0.5204040160000001,2419858267669086.5,2896702681980515.0,222615883511845.56,253439611518222.6,1093472077.2764826,2182387308.6994386,33512031957.23634,752131390019.3945
0.6308120963200001,2675119002458272.0,3202492767876693.0,246098702635738.03,280173896886362.72,1526250395.9021103,3046140636.899572,46775577926.10734,1049817927367.1377
0.7434283382464002,2912561609918635.5,3486999214130381.0,267942335608444.06,305042031935493.7,2014224882.3642993,4020056386.0164614,61730748944.33732,1385471637595.3564
0.8582969050113283,3136292695588006.0,3755135583961814.5,288524571341586.06,328474114796185.1,2556107507.535317,5101563880.795701,78338070158.5774,1758206494493.5376
0.9754628431115548,3349126287250869.0,4010269037526480.0,308104287510106.06,350764867733931.94,3151250259.1323943,6289369813.41874,96577681726.83643,2167576729773.8062
1.094972099973786,3553088590879790.0,4254824247471245.0,326867885788460.7,372126501878040.56,3799450627.4675393,7583070025.614716,116443377402.91348,2613443026896.2764
1.2168715419732616,3749695098491789.0,4490614937515270.0,344954784504983.4,392717739627185.7,4500834721.96107,8982916228.83227,137939022332.1276,3095892118034.304
1.3412089728127268,3940114026767013.0,4719039420323211.0,362472454246669.75,412660932106605.7,5255782696.823845,10489667166.448683,161076267526.61035,3615185485534.208
1.4680331522689813,4125268272413660.5,4941202574486828.0,379505797286054.8,432052737284472.9,6064878958.5468855,12104489236.32687,185873023845.39038,4171725110600.6484
1.597393815314361,4305901948123281.0,5157995445166036.0,396123268584532.5,450971088498506.3,6928877732.782416,13828887768.151638,212352406703.6314,4766029787513.089
1.729341691620648,4482625445668212.5,5370149154734779.0,412381021391045.4,469479914060466.25,7848678595.517453,15664658187.829273,240541986163.7567,5398718292113.632
1.863928525453061,4655946919787344.0,5578272567638853.0,428325803615455.2,487632434665707.75,8825308717.597233,17613850580.61293,270473242774.6747,6070497168275.942
2.001207095962122,4826294874055284.0,5782879310111619.0,443997035625115.75,505473528884587.56,9859909779.20678,19678743574.686222,302181166533.9977,6782151726735.537
2.1412312378813647,4994034736538154.0,5984407599704341.0,459428335129330.6,523041469184701.8,10953728223.52154,21861824889.172794,335703958187.7664,7534539340854.145
2.284055862638992,5159481267958928.0,6183235089226047.0,474648658673772.7,540369221478325.56,12108107956.204882,24165776763.650726,371082805489.46173,8328584424819.45
2.4297369798917723,5322908013198042.0,6379690173678408.0,489683171135269.0,557485435008750.56,13324484875.238823,26593465040.709606,408361715554.35425,9165274670881.81
2.578331719489608,5484554612427608.0,6574060736760434.0,504553918312678.9,574415208069103.5,14604382797.255424,29147931035.694588,447587390013.23267,10045658247204.68
2.7298983538794,5644632534817644.0,6766601010402502.0,519280354401625.56,591180688512018.6,15949410468.44474,31832385571.087322,488809133405.82965,10970841741763.602
2.884496320956988,5803329630939714.0,6957537021219409.0,533879760794791.1,607801550537641.2,17361259431.801384,34650204720.00166,532078787819.00256,11941988695295.48
3.0421862473761276,5960813787693225.0,7147070963422257.0,548367582318402.1,624295377485926.1,18841702581.09253,37604926920.265564,577450688571.3197,12960318606622.35
3.2030299723236504,6117235892455039.0,7335384745461055.0,562757699920432.9,640677972281651.6,20392593273.748158,40700251204.0244,624981637027.3347,14027106322440.584
3.3670905717701234,6272732259221771.0,7522642893151860.0,577062653864580.8,656963611532174.1,22015864905.197357,43940036348.3194,674730887554.1395,15143681744524.766
3.5344323832055258,6427426631180471.0,7708994946181865.0,591293827957610.8,673165255263161.6,23713530869.49524,47328300796.64452,726760146316.8943,16311429802648.588
3.7051210308696363,6581431846487162.0,7894577451802678.0,605461602793350.9,689294721380977.9,25487684847.73631,50869223234.71658,781133580120.2736,17531790652979.217
3.879223451487029,6734851233805541.0,8079515635322738.0,619575484135860.9,705362831831991.4,27340501378.331615,54567143728.80709,837917833888.5082,18806260070358.27
4.0568079205167695,6887779789177519.0,8263924809090904.0,633644211186150.1,721379535860040.0,29274236672.8441,58426565354.173584,897182055671.2732,20136390009493.062
4.237944078927105,7040305174574443.0,8447911568236075.0,647675848444296.1,737354014587940.0,31291229648.50178,62452156255.95329,958997928290.362,21523789315194.98
4.422702960505647,7192508569977835.0,8631574811261477.0,661677864096996.4,753294770258686.4,33393903154.30601,66648752096.44699,1023439706919.6938,22970124565785.348
4.61115701971576,7344465404338882.0,8815006615815718.0,675657197262474.8,769209702791178.8,35584765372.215324,71021358851.8364,1090584262031.1273,24477121036930.977
4.803380160110075,7496245979298380.0,8998292994262138.0,689620315374025.0,785106175121958.0,37866411356.04678,75575156014.61115,1160511173731.9968,26046571726667.84
4.9994477633122765,7647916040878765.0,9181514547150024.0,703573266756360.2,800991073010029.0,40241524830.23488,80315499662.962,1233302599123.9739,27680306881241.086
5.199436718578522,7799537215276935.0,9364747033731756.0,717521720741744.9,816870850784924.9,42712879905.040054,85247926661.83223,1309043605200.3435,29380242516392.406
5.403425452950093,7951167449716908.0,9548061869347004.0,731471008209528.2,832751577447522.2,45283343143.6187,90378158272.69025,1387822046179.4397,31148350425456.5
5.611493962009095,8102861369518388.0,9731526562124222.0,745426154439070.6,848638974084869.1,47955875643.71391,95712104436.89085,1469728673601.8389,32986667428223.79
5.823723841249277,8254670598117054.0,9915205097562930.0,759391908550144.2,864538447386963.5,50733535261.07953,101255868213.51353,1554857204477.2446,34897296900818.613
6.040198318074262,8406644039664985.0,1.0099158278417574e+16,773372769500879.0,880455119244398.5,53619478948.91864,107015750448.75424,1643304392986.7263,36882410384933.35
6.261002284435747,8558828129399191.0,1.0283444026090394e+16,787373009120515.0,896393852970281.5,56616965210.44429,112998254671.10843,1735170105652.111,38944249274878.53
6.486222330124463,8711267056139050.0,1.0468117648750058e+16,801396692578159.0,912359276603108.5,59729356662.43693,119210092208.10104,1830557399907.4434,41085126580984.34
6.715946776726952,8864002960593774.0,1.0653232080580672e+16,815447696626156.6,928355803676150.2,62960122708.32106,125658187521.60663,1929572606027.1055,43307428768338.41
6.950265712261491,9017076112600964.0,1.0838838095895082e+16,829529725905225.6,944387651780217.5,66312842319.83176,132349683759.91995,2032325412382.2676,45613617670220.71
7.18927102650672,9170525069952696.0,1.1024984501291864e+16,843646327555738.8,960458859198039.6,69791206926.82271,139291948525.67294,2138928954011.846,48006232475927.16
7.433056447036854,9324386821079508.0,1.121171830857223e+16,857800904343985.1,976573299848019.4,73399023415.18224,146492579859.53418,2249499904507.0273,50487891792958.81
7.681717575977592,9478696913538982.0,1.139908489074748e+16,871996726482544.5,992734696741250.6,77140217233.1824,153959412440.34348,2364158571219.2944,53061295783800.25
7.935351927497144,9633489569984642.0,1.1587128123142032e+16,886236942298882.1,1008946634127338.1,81018835606.90736,161700524002.96814,2483028993811.7466,55729228377733.516
8.194058966047088,9788797793062062.0,1.1775890511325214e+16,900524587885316.2,1025212568480474.8,85039050865.69313,169724241975.74463,2606239046182.369,58494559558324.125
8.45794014536803,9944653460485406.0,1.1965413307371582e+16,914862595845630.6,1041535838457153.0,89205163878.75575,178039150339.85693,2733920541795.292,61360247727396.59
8.72709894827539,1.010108741138359e+16,1.215573661575482e+16,929253803238516.5,1057919673939450.9,93521607604.4237,186654096713.47595,2866209342463.532,64329342146465.81
9.0016409272409,1.0258129524865182e+16,1.2346899490011512e+16,943700958805183.1,1074367204263398.1,97992950753.5918,195578199663.88672,3003245470632.5254,67404985456741.05
9.281673745785717,1.0415808791630872e+16,1.253894002116945e+16,958206729557399.4,1090881465719200.9,102623901569.19984,204820856251.2114,3145173225220.209,70590416278943.06
9.567307220701432,1.057415337936114e+16,1.2731895418810336e+16,972773706792821.6,1107465408399463.4,107419311723.72324,214391749807.69193,3292141301074.1646,73888971894300.84
9.85865336511546,1.0733190692516282e+16,1.292580208553351e+16,987404411596352.9,1124121902462275.2,112384180336.81995,224300857956.8041,3444302912111.6245,77304091008201.17
10.155826432417769,1.0892947427111924e+16,1.3120695685494404e+16,1002101299879223.6,1140853743868011.5,117523658115.42572,234558460876.79492,3601815918212.9443,80839316598071.81
10.458942961066125,1.1053449620965516e+16,1.3316611207613368e+16,1016866767001461.0,1157663659641827.8,122843051618.74167,245175149813.5151,3764842955942.948,84498298847176.44
10.768121820287448,1.1214722699853562e+16,1.351358302398226e+16,1031703152018105.1,1174554312707828.2,128347827650.68747,256161835847.6758,3933551573179.4746,88284798166092.89
11.083484256693197,1.1376791519967924e+16,1.3711644943936808e+16,1046612741585028.9,1191528306335677.8,134043617782.5214,267529758921.93808,4108114367731.706,92202688303732.4
11.405153941827061,1.1539680407017896e+16,1.3910830264209934e+16,1061597773556135.8,1208588188235878.8,139936223008.45782,279290497133.47687,4288709130035.1226,96255959549848.94
11.733257020663602,1.1703413192285342e+16,1.411117181553745e+16,1076660440300269.9,1225736454335940.2,146031618537.2265,291455976297.89746,4475518990013.381,100448722031061.25
12.067922161076874,1.1868013245907992e+16,1.4312702006046582e+16,1091802891763121.6,1242975552266263.5,152335958722.63733,304038479790.62134,4668732568200.924,104785209102497.22
12.409280604298411,1.2033503507636208e+16,1.4515452861723578e+16,1107027238296722.9,1260307884581364.5,158855582136.32242,317050658672.07965,4868544131223.735,109269780837243.23
12.75746621638438,1.2199906515282958e+16,1.4719456064225674e+16,1122335553276691.2,1277735811739560.5,165597016785.9427,330505542103.27026,5075153751738.898,113906927615858.53
13.112615540712067,1.2367244431064134e+16,1.4924742986276012e+16,1137729875525442.2,1295261654861667.0,172566985482.24625,344416548058.44507,5288767472936.8545,118701273818284.06
13.474867851526309,1.253553906600655e+16,1.5131344724855462e+16,1153212211557607.0,1312887698287335.8,179772411358.48407,358797494341.91705,5509597477713.685,123657581620559.9
13.844365208556836,1.2704811902582674e+16,1.5339292132385514e+16,1168784537662312.5,1330616191945632.0,187220423545.77298,373662609916.17224,5737862262623.784,128780754898821.48
14.221252512727972,1.2875084115715738e+16,1.5548615846075748e+16,1184448801835562.8,1348449353555028.5,194918363008.12054,389026546548.69025,5973786816726.622,134075843243124.0
14.605677562982532,1.3046376592285152e+16,1.57593463155945e+16,1200206925574661.5,1366389370666194.5,202873788540.915,404904390785.059,6217602805444.031,139548046083720.52
14.997791114242183,1.3218709949248958e+16,1.5971513829205616e+16,1216060805545365.2,1384438402560080.2,211094482936.78952,421311676256.21014,6469548759548.217,145202716932475.5
15.397746936527026,1.3392104550489708e+16,1.6185148538500802e+16,1232012315131658.2,1402598582012216.2,219588459322.8704,438264396327.763,6729870269403.17,151045367742175.03
15.805701875257567,1.3566580522479652e+16,1.6400280481845808e+16,1248063305876857.5,1420872016933388.2,228363967673.51407,455779017099.67944,6998820184585.513,157081673386559.88
16.221815912762718,1.3742157768852602e+16,1.6616939606647784e+16,1264215608824160.5,1439260791895762.5,237429501502.7549,473872490764.6613,7276658819013.999,163317476263983.38
16.64625223101797,1.391885598396155e+16,1.683515579054176e+16,1280471035763899.0,1457766969552875.5,246793804740.7596,492562269333.8509,7563654161719.616,169758791027647.78
17.079177275638333,1.4096694665494254e+16,1.7054958861585594e+16,1296831380394091.5,1476392591960865.5,256465878798.70947,511866318738.695,7860082093391.553,176411809445460.75
17.5207608211511,1.4275693126212418e+16,1.7276378617545392e+16,1313298419400405.0,1495139681807956.2,266454989826.6066,531803133317.9188,8166226608837.44,183282905392616.03
17.97117603757412,1.445587050487413e+16,1.7499444844345946e+16,1329873913460985.8,1514010243558417.0,276770676168.6305,552391750698.8528,8482380045498.914,190378639980056.72
18.430599558325603,1.463724577639429e+16,1.7724187333755502e+16,1346559608181141.5,1533006264516701.8,287422756020.7369,573651767082.4991,8808843318166.988,197705766822076.88
18.899211549492115,1.481983776129316e+16,1.7950635900367296e+16,1363357234962585.2,1552129715816970.8,298421335295.31055,595603352941.9266,9145926160044.625,205271237446346.72
19.37719578048196,1.5003665134477838e+16,1.8178820397936932e+16,1380268511811286.0,1571382553342896.8,309776815697.79,618267269143.8063,9493947370307.049,213082206849760.53
19.864739696091597,1.5188746433399434e+16,1.84087707351276e+16,1397295144087891.8,1590766718581898.2,321499903020.24786,641664883503.0824,9853235068313.033,221146039203527.62
20.36203449001343,1.5375100065623228e+16,1.864051689071457e+16,1414438825204147.5,1610284139418063.2,333601615657.0547,665818187780.9529,10224126954623.791,229470313711031.78
20.869275179813698,1.5562744315847462e+16,1.8874088928292748e+16,1431701237268590.5,1629936730867190.0,346093293347.81866,690749815136.5856,10606970578989.443,238062830622032.84
21.38666068340997,1.5751697352402432e+16,1.9109517010530892e+16,1449084051684444.8,1649726395757493.5,358986606152.8972,716483058043.1154,11002123615464.713,246931617406851.53
21.91439389707817,1.5941977233259584e+16,1.93468314130104e+16,1466588929702429.5,1669655025358957.8,372293563666.89844,743041886678.7451,11409954144820.45,256084935094260.1
22.452681775019734,1.6133601911577784e+16,1.9586062537686496e+16,1484217522930964.0,1689724499964181.0,386026524475.65063,770450967803.8906,11830840944418.764,265531284776847.38
23.00173541052013,1.6326589240810902e+16,1.9827240926003776e+16,1501971473806097.0,1709936689423361.2,400198205862.2516,798735684135.5825,12265173785723.67,275279414287710.5
23.561770118730532,1.6520956979400564e+16,2.0070397271699464e+16,1519852416023157.8,1730293453635738.2,414821693767.87115,827922154230.4481,12713353739621.855,285338325052380.7
24.133005521105144,1.6716722795073904e+16,2.0315562433321452e+16,1537861974932176.8,1750796642999738.5,429910453013.10815,858037252887.8593,13175793489730.373,295717279119955.94
24.715665631527248,1.6913904268766242e+16,2.056276744648998e+16,1556001767898719.5,1771448098823782.5,445478337785.76794,889108632084.9506,13652917653872.11,306425806377487.06
25.309978944157795,1.7112518898185696e+16,2.0812043535927652e+16,1574273404631837.8,1792249653699649.0,461539602401.0298,921164742455.4619,14145163113901.684,317473711951694.06
25.91617852304095,1.731258410103602e+16,2.1063422127280504e+16,1592678487480551.5,1813203131840007.2,478108912340.0714,954234855324.4695,14652979354067.355,328871083802208.3
26.53450209350177,1.7514117217912374e+16,2.131693485875376e+16,1611218611700236.0,1834310349381668.5,495201355573.2765,988349085311.2933,15176828808097.582,340628300510516.4
27.165192135371807,1.7717135514882516e+16,2.157261359258038e+16,1629895365690087.5,1855573114655965.8,512832454174.2586,1023538413513.0026,15717187215202.938,352756039268901.1
27.808495978079243,1.7921656185765982e+16,2.1830490426342616e+16,1648710331202797.2,1876993228427430.8,531018176231.0047,1059834711281.0961,16274543985186.195,365265284073698.06
28.464665897640828,1.8127696354121016e+16,2.2090597704162972e+16,1667665083527335.2,1898572484101904.5,549774948060.4883,1097270764604.0643,16849402572856.133,378167334127233.4
29.133959215593645,1.8335273074948748e+16,2.2352968027780172e+16,1686761191645745.5,1920312667905008.0,569119666733.204,1135880299108.71,17442280861942.16,391473812452837.0
29.816638399905518,1.8544403336121892e+16,2.2617634267522936e+16,1706000218364539.2,1942215559031794.2,589069712914.0814,1175698005693.1345,18053711558708.18,405196674727406.56
30.51297116790363,1.8755104059544064e+16,2.2884629573195864e+16,1725383720421389.0,1964282929768140.2,609642964026.3158,1216759566804.436,18684242595465.9,419348218335950.6
31.223230591261704,1.8967392102044356e+16,2.3153987384884176e+16,1744913248567410.2,1986516545584470.5,630857807744.6691,1259101683374.169,19334437544188.164,433941091652633.25
31.947695203086937,1.9181284256009744e+16,2.3425741443688496e+16,1764590347625323.8,2008918165201964.2,652733155824.7444,1302762102424.688,20004876040422.902,448988303552771.5
32.686649107148675,1.939679724975595e+16,2.369992580239256e+16,1784416556523603.2,2031489540631404.2,675288458274.8436,1347779645359.415,20696154217708.28,464503233160282.5
33.44038208929165,1.961394774763537e+16,2.397657483606873e+16,1804393408306364.8,2054232417184472.0,698543717876.8368,1394194236949.969,21408885152688.51,480499639835022.06
34.20918973107749,1.9832752349877996e+16,2.4255723252619532e+16,1824522430118790.2,2077148533457119.8,722519505062.5033,1442046935033.0625,22143699321126.234,496991673404391.44
34.993373525699035,2.0053227592159184e+16,2.45374061032534e+16,1844805143167295.0,2100239621284259.5,747236973151.6466,1491379960929.7136,22901245065006.043,513993884643546.8
35.793240996213015,2.027538994488351e+16,2.4821658792885852e+16,1865243062653700.8,2123507405664759.8,772717873958.1199,1542236730599.0771,23682189070917.285,531521236008407.75
36.60910581613728,2.0499255812172016e+16,2.5108517090455204e+16,1885837697682022.8,2146953604655417.2,798984573769.7655,1594661886538.8545,24487216859898.56,549589112625534.2
37.44128793246003,2.0724841530535788e+16,2.5398017139136124e+16,1906590551136496.5,2170579929231988.2,826060069707.9037,1648701330443.5647,25317033288918.848,568213333542753.1
38.29011369110923,2.0952163367213244e+16,2.5690195466428376e+16,1927503119528568.2,2194388083115073.8,853968006471.7539,1704402256631.455,26172363064159.34,587410163244194.4
39.15591596493141,2.1181237518145508e+16,2.598508899409324e+16,1948576892810653.8,2218379762558057.8,882732693472.7296,1761813186249.8896,27053951266247.156,607196323433092.6
40.03903428423004,2.1412080105557252e+16,2.6282735047902224e+16,1969813354153596.0,2242556656093760.5,912379122363.0707,1820984002268.1555,27962563887578.242,627589005085406.5
40.93981496991464,2.1644707175105068e+16,2.6583171367154096e+16,1991213979684328.8,2266920444235748.5,942932984962.6202,1881965985265.3381,28898988381846.293,648605880776837.2
41.85861126931294,2.1879134692549096e+16,2.6886436113911436e+16,2012780238179657.5,2291472799129757.0,974420691586.9404,1944811850019.6035,29864034225875.66,670265117285409.0
42.7957834946992,2.2115378539896e+16,2.719256788189484e+16,2034513590711447.2,2316215384149723.5,1006869389779.0328,2009575782903.4495,30858533493827.59,692585388471138.1
43.751699164593184,2.2353454510954456e+16,2.75016057049656e+16,2056415490237771.2,2341149853432326.5,1040306983446.0156,2076313480087.6794,31883341443821.52,715585888433687.9
44.72673314788505,2.2593378306236484e+16,2.7813589065117324e+16,2078487381133804.2,2366277851342940.0,1074762152400.982,2145082186554.5535,32939337116978.57,739286344948145.2
