t(s),Total solute volume 1,Total retention volume 1,Total 1 volume 1,Total 2 volume 1,Total 3 volume 1,Total 4 volume 1,Total 5 volume 1,Total 6 volume 1
0.1,1301436301972856.8,2401541677724917.5,422763850992510.6,677341524759550.8,0.0,0.0,0.0,-2.162416271574588e-76
0.202,1956060266461850.0,3610434885937766.5,635414573453575.2,1018045233717383.8,219656133.6152035,741504631.7980578,24915393427.14987,888935750766.5269
0.30604000000000003,2455519549436907.0,4533502680333738.0,797660960574655.6,1277992324486043.8,556996002.1697357,1880295044.3802738,63203455815.64564,2264205089269.847
0.41216080000000005,2877988958872271.0,5314900588716364.0,934897642941724.5,1497869488688582.5,989055320.3152239,3338842078.1583037,112247281781.58151,4027923034606.188
0.5204040160000001,3253070770752657.5,6009210047553965.0,1056740745035165.0,1693083443872601.0,1505598866.4644656,5082592746.465765,170883565715.90897,6137616136215.721
0.6308120963200001,3595549056648167.5,6643688750515307.0,1167992784987023.8,1871328664953831.0,2101118995.9417071,7092954007.569815,238486592372.16483,8570563260910.895
0.7434283382464002,3914024880133134.0,7234194846628628.0,1271447767342118.5,2037081636133145.0,2772451737.8313737,9359244767.158333,314696955383.06445,11313734368342.002
0.8582969050113283,4214010892700603.0,7790893210523685.0,1368896444264916.0,2193211455651319.0,3517796227.311177,11875385578.072832,399310091373.9666,14359714633670.6
0.9754628431115548,4499285581264481.0,8320752381608170.0,1461566234829491.8,2341684663554651.0,4336231279.853467,14638266656.28323,492221349741.05804,17704706111858.383
1.094972099973786,4772569891510552.0,8828792002136755.0,1550341022109071.8,2483917395112300.5,5227447539.338968,17646843650.989162,593395564015.4349,21347423549624.695
1.2168715419732616,5035898929741752.0,9318768037285444.0,1635881898318668.0,2620968835666212.0,6191586446.074402,20901594024.976437,702848760582.055,25288431617762.3
1.3412089728127268,5290841293068225.0,9793577070604438.0,1718698412927654.5,2753655372573587.0,7229137434.494243,24404170010.197063,820636482566.6494,29529722244982.22
1.4680331522689813,5538635937396239.0,1.025550857635279e+16,1799193033414782.0,2882621829114473.5,8340869241.859689,28157166717.00878,946845988451.0406,34074432402878.676
1.597393815314361,5780281521058358.0,1.0706409584539806e+16,1877690168016810.8,3008387964011765.5,9527782359.242006,32163961616.50901,1081590852085.1674,38926648856825.48
1.729341691620648,6016596927847379.0,1.1147796221281174e+16,1954455826277324.5,3131379971069203.5,10791075197.771177,36428600323.43438,1225007120422.9673,44091269291317.34
1.863928525453061,6248263559515802.0,1.1580931647373362e+16,2029711357514366.5,3251952490599340.5,12132119494.080317,40955713569.095436,1377250520560.6868,49573901390222.18
2.001207095962122,6475855679841311.0,1.2006881975552006e+16,2103643307910254.2,3370404402205329.0,13552442141.040253,45750455865.03899,1538494396474.0515,55380788300619.0
2.1412312378813647,6699862686588338.0,1.2426557311679578e+16,2176410655426180.8,3486990416379339.0,15053711610.87393,50818459669.82412,1708928167281.556,61518752947148.625
2.284055862638992,6920705785376042.0,1.2840742479956836e+16,2248150226209377.0,3601929752534079.5,16637727740.028654,56165800904.529945,1888756167271.1628,67995156141425.22
2.4297369798917723,7138750691371623.0,1.3250120428884594e+16,2318980820662854.0,3715412749688034.5,18306414027.693825,61798972953.907745,2078196771372.5369,74817865003718.27
2.578331719489608,7354317455116019.0,1.3655290338467268e+16,2389006405306620.5,3827605980385297.5,20061811850.015327,67724867134.60101,2277481738169.027,81995229242178.47
2.7298983538794,7567688168621979.0,1.4056781822148602e+16,2458318616057926.0,3938656261388267.5,21906076159.92725,73950758178.55563,2486855721608.7007,89536063524499.22
2.884496320956988,7779113083883922.0,1.4455066204107628e+16,2526998745792912.0,4048693838098958.0,23841472357.75806,80484293668.76689,2706575915660.944,97449634650143.77
3.0421862473761276,7988815525121032.0,1.4850565574579726e+16,2595119340059636.5,4157834941170296.0,25870374098.48905,87333486637.00168,2936911805332.0693,105745652562685.36
3.2030299723236504,8196995872483433.0,1.5243660134953492e+16,2662745491161413.5,4266183859853932.0,27995261859.122078,94506710727.52396,3178145003992.532,114434264478140.31
3.3670905717701234,8403834822506296.0,1.5634694210886522e+16,2729935897296004.5,4373834638926374.5,30218722131.362823,102012697471.77448,3430569161709.028,123526051576510.42
3.5344323832055258,8609496079097960.0,1.6023981216782696e+16,2796743736707108.0,4480872479232588.0,32543447135.548267,109860535322.68498,3694489932764.054,133032027829806.47
3.7051210308696363,8814128591690103.0,1.6411807786503366e+16,2863217394734193.5,4587374902546930.0,34972234974.66592,118059670174.66748,3970224993147.7134,142963640633843.6
3.879223451487029,9017868430000278.0,1.6798437235104904e+16,2929401072818014.5,4693412727306428.0,37507990164.61937,126619907153.74724,4258104100772.235,153332772982096.44
4.0568079205167695,9220840364726452.0,1.7184112479305374e+16,2995335301979800.0,4799050891294360.0,40153724490.11788,135551413506.94704,4558469192660.866,164151746974123.7
4.237944078927105,9423159208410940.0,1.7569058516594172e+16,3061057378393005.0,4904349149502182.0,42912558145.77293,144864722454.48645,4871674514522.0625,175433328492934.2
4.422702960505647,9624930959288336.0,1.7953484541853456e+16,3126601734955506.5,5009362669453249.0,45787721129.94459,154570737895.2172,5198086779023.328,187190732918296.47
4.61115701971576,9826253782195656.0,1.833758576426563e+16,3192000259932402.0,5114142541724385.0,48782554865.13635,164680739876.85916,5538085349790.019,199437631768652.66
4.803380160110075,1.0027218853877804e+16,1.872154497485552e+16,3257282571548570.5,5218736219890973.0,51900514023.71062,175206390759.3541,5892062448718.366,212188160184670.94
4.9994477633122765,1.0227911094770868e+16,1.910553390534259e+16,3322476255704054.0,5323187901388727.0,55145168541.66255,186159742013.08548,6260423384643.119,225456925183751.84
5.199436718578522,1.0428409805222584e+16,1.94897144113853e+16,3387607072646529.5,5427538858639082.0,58520205806.39723,197553241604.5,6643586801763.671,239259014627931.97
5.403425452950093,1.0628789220850026e+16,1.9874239507294644e+16,3452699137375964.5,5531827728088949.0,62029433007.04933,209399741930.45508,7041984946527.911,253610006858275.34
5.611493962009095,1.0829118999137076e+16,2.025925427451124e+16,3517775077712927.0,5636090763463857.0,65676779638.01221,221712508269.7688,7456063951913.495,268525980957553.1
5.823723841249277,1.102946464729312e+16,2.064489666230525e+16,3582856173285912.0,5740362058449941.0,69466300148.08452,234505227726.36377,7886284138245.285,284023527610160.0
6.040198318074262,1.1229887899712886e+16,2.103129819606477e+16,3647962478146972.5,5844673743145555.0,73402176729.0913,247792018643.2505,8333120329851.147,300119760534155.8
6.261002284435747,1.1430447052015234e+16,2.1418584606026424e+16,3713112929282206.0,5949056157914101.0,77488722239.03769,261587440470.67734,8797062186995.297,316832328465229.94
6.486222330124463,1.163119725752395e+16,2.180687638725192e+16,3778325442921813.5,6053538007689617.0,81730383255.85928,275906504075.1588,9278614552642.533,334179427676540.4
6.715946776726952,1.1832190791141952e+16,2.219628929997303e+16,3843617000258031.0,6158146499311808.0,86131743258.68597,290764682478.9652,9778297813702.719,352179815021816.75
6.950265712261491,1.2033477284814738e+16,2.258693481804013e+16,3909003723934070.0,6262907464074758.0,90697525934.24046,306177922022.063,10296648276487.088,370852821492107.6
7.18927102650672,1.2235103938156778e+16,2.29789205320582e+16,3974500946464829.5,6367845467348868.0,95432598606.6223,322162653940.5779,10834218556175.781,390218366279005.0
7.433056447036854,1.2437115707292832e+16,2.337235051284e+16,4040123271580899.5,6472983906864655.0,100341975789.22871,338735806357.5832,11391577980157.092,410296971339336.75
7.681717575977592,1.263955547453318e+16,2.3767325640003956e+16,4105884629346518.0,6578345101021378.0,105430822858.02492,355914816683.5494,11969313005147.898,431109776458179.06
7.935351927497144,1.2842464201135578e+16,2.4163943899872972e+16,4171798325783434.0,6683950368393116.0,110704459845.75812,373717644425.0849,12568027648049.64,452678554808564.44
8.194058966047088,1.304588106510004e+16,2.4562300656265684e+16,4237877087632661.0,6789820099444983.0,116168365357.04561,392162784401.736,13188343930532.465,475025729007714.2
8.45794014536803,1.3249843585681696e+16,2.496248889728939e+16,4304133102801823.0,6895973821336798.0,121828180604.55353,411269280371.5722,13830902337372.05,498174387670737.9
8.72709894827539,1.3454387736086926e+16,2.5364599460842212e+16,4370578056973763.5,7002430256576427.0,127689713566.74672,431056739067.1866,14496362288593.727,522148302463874.44
9.0016409272409,1.3659548045628202e+16,2.5768721241179864e+16,4437223166790927.0,7109207376187154.0,133758943267.90468,451545344644.4503,15185402625503.543,546971945660173.6
9.281673745785717,1.3865357692453672e+16,2.6174941378610972e+16,4504079209978099.0,7216322447969328.0,140042024181.299,472755873547.059,15898722110707.47,572670508201423.8
9.567307220701432,1.4071848587828368e+16,2.658334543412771e+16,4571156552720564.0,7323792080365158.0,146545290756.60413,494709709790.4604,16637039942241.307,599269918270770.1
9.85865336511546,1.427905145282589e+16,2.699401755056209e+16,4638465174576997.0,7431632262373386.0,153275262072.75967,517428860669.31854,17401096281949.535,626796860381131.1
10.155826432417769,1.4486995888186074e+16,2.7407040601668484e+16,4706014691172294.0,7539858399907281.0,160238646617.6542,540935972893.0891,18191652798268.555,655278794985116.2
10.458942961066125,1.469571043800677e+16,2.7822496330370216e+16,4773814374887481.0,7648485348943414.0,167442347196.09744,565254349154.7136,19009493223582.414,684743978612594.2
10.768121820287448,1.490522264785986e+16,2.824046547726672e+16,4841873173738312.0,7757527445768561.0,174893465967.68976,590407965137.8157,19855423926331.996,715221484542548.2
11.083484256693197,1.5115559117855074e+16,2.866102790037595e+16,4910199728612837.0,7866998534597114.0,182599309616.26556,616421486968.0905,20730274498070.332,746741224016272.8
11.405153941827061,1.5326745551117404e+16,2.908426268697652e+16,4978802389018883.0,7976911992801539.0,190567394652.69327,643320289114.8927,21634898355665.28,779333967999287.9
11.733257020663602,1.5538806798092154e+16,2.9510248258323908e+16,5047689227476366.0,8087280753971219.0,198805452852.8855,671130472749.2883,22570173358861.156,813031369499693.1
12.067922161076874,1.5751766897047552e+16,2.9939062467929936e+16,5116868052674283.0,8198117328992306.0,207321436832.94626,699878884565.0667,23537002443417.96,847865986451002.5
12.409280604298411,1.5965649111105298e+16,3.0370782694025456e+16,5186346421499941.0,8309433825320604.0,216123525763.43857,729593136069.421,24536314270054.156,883871305167725.1
12.75746621638438,1.6180475962095712e+16,3.080548592675998e+16,5256131650036438.0,8421241964601608.0,225220131224.8278,760301623350.2188,25569063889425.773,921081764382179.9
13.112615540712067,1.6396269261502246e+16,3.1243248850638388e+16,5326230823615021.0,8533553098775864.0,234619903206.1781,792033547326.9048,26636233423380.348,959532779871329.6
13.474867851526309,1.6613050138735202e+16,3.1684147922644896e+16,5396650805999442.0,8646378224794243.0,244331736249.2621,824818934492.2952,27738832762727.49,999260769682480.4
13.844365208556836,1.6830839066949178e+16,3.212825944645919e+16,5467398247772708.0,8759727998054670.0,254364775740.24463,858688658152.5778,28877900281775.9,1040303179966974.1
14.221252512727972,1.7049655886597974e+16,3.257565964313395e+16,5538479593988761.0,8873612744661729.0,264728424351.15698,893674460173.0094,30054503569886.66,1082698511431064.8
14.605677562982532,1.726951982690351e+16,3.3026424718565424e+16,5609901091146439.0,8988042472599957.0,275432348633.41187,929808973236.8805,31269740180297.883,1126486346413346.8
14.997791114242183,1.7490449525395858e+16,3.34806309280608e+16,5681668793537035.0,9103026881903872.0,286486485765.61237,967125743625.3932,32524738396480.37,1171707376598198.8
15.397746936527026,1.7712463045669272e+16,3.393835463827655e+16,5753788569012216.0,9218575373899064.0,297901050457.9527,1005659254526.1523,33820658016281.21,1218403431374728.5
15.805701875257567,1.7935577893484738e+16,3.4399672386779464e+16,5826266104214795.0,9334697059582952.0,309686542015.5031,1045444949878.0975,35158691154120.062,1266617506850958.8
16.221815912762718,1.815981103133721e+16,3.4864660939459108e+16,5899106909310831.0,9451400767206396.0,321853751562.71045,1086519258760.6432,36540063061500.33,1316393795532808.0
16.64625223101797,1.838517889159667e+16,3.533339734600161e+16,5972316322258451.0,9568695049112982.0,334413769431.41797,1128919620334.8955,37966032966099.92,1367777716677644.8
17.079177275638333,1.8611697388320668e+16,3.580595899361693e+16,6045899512645077.0,9686588187887160.0,347377992714.7561,1172684509344.8235,39437894929705.35,1420815947332189.5
17.5207608211511,1.8839381927829764e+16,3.628242365919546e+16,6119861485122796.0,9805088201857994.0,360758132989.208,1217853462186.2014,40956978725256.58,1475556454064439.2
17.97117603757412,1.90682474181276e+16,3.6762869560058376e+16,6194207082468358.0,9924202850002006.0,374566224207.2043,1264467103551.256,42524650733265.15,1532048525399422.8
18.430599558325603,1.9298308277241224e+16,3.724737540344876e+16,6268940988292566.0,1.0043939636284286e+16,388814630762.5347,1312567173656.744,44142314857869.586,1590342804968484.5
18.899211549492115,1.9529578440552484e+16,3.77360204349042e+16,6344067729421783.0,1.0164305813473584e+16,403516055730.9166,1362196556063.3496,45811413462792.8,1650491325381821.5
19.37719578048196,1.97620713671826e+16,3.822888448563713e+16,6419591677971974.0,1.0285308386465786e+16,418683549287.98846,1413399306094.098,47533428327459.07,1712547542833827.8
19.864739696091597,1.9995800045490996e+16,3.872604801904286e+16,6495517053134866.0,1.0406954115145306e+16,434330517307.0169,1466220679859.453,49309881623533.19,1776566372450929.0
20.36203449001343,2.0230776997740932e+16,3.9227592176445736e+16,6571847922693615.0,1.052924951681374e+16,450470730138.56805,1520707163896.7583,51142336912135.81,1842604224391256.2
20.869275179813698,2.046701428398349e+16,3.973359882218391e+16,6648588204284591.0,1.0652200868211196e+16,467118331574.3674,1576906505431.5146,53032400161988.55,1910719040705703.8
21.38666068340997,2.0704523505206868e+16,4.0244150588131784e+16,6725741666420244.0,1.07758142071552e+16,484287847997.5441,1634867743267.8372,54981720788740.86,1980970332969444.5
21.91439389707817,2.0943315805793436e+16,4.0759330917746424e+16,6803311929287329.0,1.0900095333819676e+16,501994197721.4293,1694641239315.5715,56991992715722.17,2053419220693220.5
22.452681775019734,2.1183401875325624e+16,4.1279224109724936e+16,6881302465333554.0,1.1025049811674838e+16,520252700519.02185,1756278710761.0383,59064955456363.586,2128128470523287.0
23.00173541052013,2.142479194977824e+16,4.1803915361348424e+16,6959716599654926.0,1.1150682968107628e+16,539079087345.2152,1819833262888.6025,61202395218524.78,2205162536238855.8
23.561770118730532,2.16674958121328e+16,4.233349081158907e+16,7038557510195224.0,1.1276999894741608e+16,558489510253.811,1885359422559.8184,63406146030958.984,2284587599555666.0
24.133005521105144,2.191152279244635e+16,4.286803758404852e+16,7117828227768431.0,1.1404005447472486e+16,578500552511.3164,1952913172356.958,65678090892141.21,2366471611744171.5
24.715665631527248,2.2156881767406676e+16,4.340764382979428e+16,7197531635914170.0,1.1531704246236944e+16,599129238909.4445,2022551985397.3809,68020162941681.59,2450884336070541.0
25.309978944157795,2.2403581159402164e+16,4.395239877015636e+16,7277670470595706.0,1.16601006745284e+16,620393046278.2065,2094334860825.1013,70434346654534.98,2537897391068422.5
25.91617852304095,2.2651628935135896e+16,4.450239273954277e+16,7358247319749515.0,1.1789198878675666e+16,642309914201.39,2168322359985.6604,72922679058216.58,2627584294649298.0
26.53450209350177,2.2901032603807876e+16,4.505771722833113e+16,7439264622695022.0,1.1919002766896962e+16,664898255936.1838,2244576643290.1846,75487250973217.67,2720020509058851.5
27.165192135371807,2.3151799214892684e+16,4.561846492588919e+16,7520724669412528.0,1.2049516008143248e+16,688176969538.6034,2323161507774.302,78130208276817.88,2815283486686559.5
27.808495978079243,2.3403935355534948e+16,4.618472976377548e+16,7602629599697237.0,1.2180742030742698e+16,712165449196.3367,2404142425357.2812,80853753190471.28,2913452716735422.5
28.464665897640828,2.3657447147586452e+16,4.675660695916953e+16,7684981402196683.0,1.2312684020858492e+16,736883596770.5115,2487586581806.5977,83660145590943.33,3014609772758330.5
29.133959215593645,2.391234024430572e+16,4.733419305857846e+16,7767781913338667.0,1.2445344920771342e+16,762351833547.8229,2573562916412.618,86551704345359.78,3118838361067437.5
29.816638399905518,2.4168619826742544e+16,4.7917585981864296e+16,7851032816156869.0,1.2578727426997642e+16,788591112204.3856,2662142162378.1753,89530808670323.47,3226224370022298.0
30.51297116790363,2.4426290599827092e+16,4.850688506663586e+16,7934735639020280.0,1.2712833988253998e+16,815622928982.5398,2753396887927.097,92599899515241.81,3336855920202349.0
31.223230591261704,2.4685356788183456e+16,4.910219111304831e+16,8018891754273257.0,1.2847666803278476e+16,843469336081.7776,2847401538135.6304,95761480969997.45,3450823415468881.0
31.947695203086937,2.494582213168726e+16,4.97036064290483e+16,8103502376792611.0,1.298322781851835e+16,872152954264.8848,2944232477490.4946,99018121697083.39,3568219594921164.0
32.686649107148675,2.5207689880785784e+16,5.031123487610593e+16,8188568562467258.0,1.3119518725694742e+16,901696985680.1997,3043968033176.5923,102372456388313.17,3689139585751099.5
33.44038208929165,2.5470962791599744e+16,5.092518191547202e+16,8274091206606953.0,1.3256540959252818e+16,932125226900.8802,3146688539097.4062,105827187246202.84,3813680957000191.0
34.20918973107749,2.5735643120823856e+16,5.154555465499351e+16,8360071042285985.0,1.3394295693708288e+16,963462082181.9039,3252476380630.486,109385085490109.75,3941943774222414.5
34.993373525699035,2.6001732620444828e+16,5.217246189652989e+16,8446508638627236.0,1.3532783840897946e+16,995732576935.4259,3361416040120.1797,113048992887199.06,4074030655055692.0
35.793240996213015,2.6269232532294212e+16,5.280601418399931e+16,8533404399032663.0,1.3672006047144894e+16,1028962371424.9943,3473594143109.368,116821823308299.75,4210046825704652.5
36.60910581613728,2.6538143582453572e+16,5.3446323852091256e+16,8620758559365930.0,1.3811962690346504e+16,1063177774679.0294,3589099505311.382,120706564308690.95,4350100178336589.0
37.44128793246003,2.6808465975529132e+16,5.409350507568136e+16,8708571186092599.0,1.395265387699478e+16,1098405758623.807,3708023180323.0723,124706278733851.66,4494301329392076.5
38.29011369110923,2.708019938881375e+16,5.474767391997696e+16,8796842174383521.0,1.409407943913781e+16,1134673972436.0874,3830458508079.562,128824106350188.98,4642763678811160.0
39.15591596493141,2.7353342966352996e+16,5.540894839142943e+16,8885571246187384.0,1.4236238931291478e+16,1172010757115.3794,3956501164050.526,133063265500748.17,4795603470175650.0
40.03903428423004,2.7627895312932644e+16,5.6077448489442856e+16,8974757948277509.0,1.4379131627310106e+16,1210445160275.7852,4086249209177.7036,137427054785889.39,4952939851767235.0
40.93981496991464,2.790385448800501e+16,5.675329625891103e+16,9064401650278942.0,1.4522756517225576e+16,1250006951157.0137,4219803140552.763,141918854768903.22,5114894938540933.0
41.85861126931294,2.8181217999571896e+16,5.743661584361412e+16,9154501542681194.0,1.466711230406329e+16,1290726635854.3628,4357265942834.124,146542129706520.03,5281593875012484.0
