t(s),Total solute volume 1,Total retention volume 1,Total 1 volume 1,Total 2 volume 1,Total 3 volume 1,Total 4 volume 1,Total 5 volume 1,Total 6 volume 1
0.1,1198922522623410.5,1797285705327306.5,247551059597552.8,350812123106343.5,0.0,0.0,0.0,0.0
0.202,1412658990358010.5,3223597983874912.5,291682932457585.25,413352771146397.4,483807719366.21423,1352411825231.0076,34384904970100.645,1069682165398222.8
0.30604000000000003,1497703945686533.0,4616409175687381.0,309242841304528.5,438237457151831.5,1036062094975.5388,2896266340511.34,73646182279645.38,2293646420829358.0
0.41216080000000005,1542556566193466.2,6014158581913211.0,318503918800430.94,451361614090023.7,1616590736767.842,4519275139128.578,114921696976041.92,3580678919977351.0
0.5204040160000001,1569969063023779.8,7428515848540320.0,324163995168946.6,459382681883189.2,2215696868875.232,6194340478342.513,157521700044395.16,4909068371072786.0
0.6308120963200001,1588333909662568.0,8864549754913194.0,327955931205290.3,464756350743071.9,2830128841582.1606,7912380617227.432,201215059720012.34,6271545994123435.0
0.7434283382464002,1601436599055331.5,1.0325031394875622e+16,330661347761408.94,468590279541085.5,3458630245790.026,9669891329065.473,245912593568201.84,7665302053374738.0
0.8582969050113283,1611224241350456.2,1.181175249120074e+16,332682280163289.8,471454204859291.7,4100714119553.273,11465519544271.402,291579864884126.1,9089245666279742.0
0.9754628431115548,1618796246275015.8,1.3326028806635406e+16,334245732285531.6,473669820845441.44,4756237690472.168,13298874671506.066,338206932103477.1,1.054305496276395e+16
1.094972099973786,1624818335264827.0,1.4868923196022008e+16,335489160930350.0,475431921746988.06,5425230131166.851,15170047148012.342,385796096537839.25,1.2026792404262846e+16
1.2168715419732616,1629716189864581.8,1.6441355720504302e+16,336500459953633.06,476865064641394.7,6107814513984.376,17079390299415.533,434356350902506.56,1.3540730450328786e+16
1.3412089728127268,1633774161632246.8,1.804416269761746e+16,337338341684330.2,478052452570035.5,6804169304753.521,19027412721492.066,483900640458070.94,1.5085265519246554e+16
1.4680331522689813,1637189130196201.8,1.967813052358847e+16,338043457426052.56,479051693741748.06,7514508054315.026,21014721530109.52,534444418693813.25,1.6660872593946204e+16
1.597393815314361,1640101559206853.0,2.1344016123618796e+16,338644809826514.25,479903888698049.3,8239068102278.691,23041990803530.77,586004844148392.8,1.826807996283319e+16
1.729341691620648,1642614244359756.5,2.3042559896397044e+16,339163623931048.25,480639116101693.94,8978104019040.984,25109943270293.105,638600314337306.5,1.9907454550377936e+16
1.863928525453061,1644804077873174.0,2.477449424030306e+16,339615776287897.7,481279875096231.4,9731883666264.168,27219339317292.887,692250185990467.6,2.1579593102071764e+16
2.001207095962122,1646729679312191.0,2.6540549372276388e+16,340013370545192.56,481843318132766.9,10500685766792.242,29370970218074.09,746974602704838.6,2.3285116745596508e+16
2.1412312378813647,1648436489159703.0,2.8341457429953508e+16,340365789161084.75,482342741380640.56,11284798376890.162,31565653884296.23,802794386821499.6,2.5024667571169416e+16
2.284055862638992,1649960255107447.0,3.01779554526248e+16,340680413245996.0,482788604837942.94,12084517915244.482,33804232174464.562,859730970943175.0,2.6798906458400556e+16
2.4297369798917723,1651329471621705.8,3.2050787610984708e+16,340963126279168.6,483189246163676.6,12900148545259.398,36087569191205.64,917806354616990.8,2.86085116945667e+16
2.578331719489608,1652567120956589.0,3.396070692223104e+16,341218673589526.44,483551390109114.2,13732001787233.629,38416550222142.31,977043077402568.2,3.0454178108163884e+16
2.7298983538794,1653691937701073.5,3.5908476605672788e+16,341450923456769.56,483880518532165.56,14580396283569.475,40792081109586.63,1037464202858398.8,3.2336616545731212e+16
2.884496320956988,1654719341924114.5,3.789487118296297e+16,341663059785268.5,484181143441459.94,15445657668029.57,43215087912163.7,1099093309962153.5,3.425655358226974e+16
3.0421862473761276,1655662137715454.8,3.992067739427125e+16,341857726337345.94,484457011393757.4,16328118507160.604,45686516769288.6,1161954489697395.8,3.621473139385084e+16
3.2030299723236504,1656531042970031.5,4.198669498015567e+16,342037136122079.3,484711258512173.6,17228118292741.496,48207333909440.88,1226072345303400.0,3.821190774504585e+16
3.3670905717701234,1657335096000988.5,4.409373736444698e+16,342203155351927.2,484946529463689.6,18146003470997.49,50778525762422.61,1291471995174606.5,4.024885605922234e+16
3.5344323832055258,1658081971046877.0,4.624263226359722e+16,342357368588006.94,485165069778527.75,19082127498816.062,53401099148354.164,1358179077716118.2,4.232636554982061e+16
3.7051210308696363,1658778225561250.5,4.84342222411035e+16,342501129799950.5,485368798208637.94,20036850920186.965,56076081524510.57,1426219757674199.8,4.444524139741475e+16
3.879223451487029,1659429495843413.2,5.066936522079158e+16,342635602759339.4,485559363970472.5,21010541458102.35,58804521276733.58,1495620733604154.2,4.660630496187938e+16
4.0568079205167695,1660040653139651.8,5.294893496930555e+16,342761793271169.7,485738192421186.75,22003574118532.582,61587488046011.79,1566409246236113.2,4.881039402207291e+16
4.237944078927105,1660615929202415.8,5.5273821555651224e+16,342880575099055.94,485906521798036.75,23016331304048.72,64426073083495.484,1638613087567394.8,5.105836303759677e+16
4.422702960505647,1661159018038304.2,5.764493179381922e+16,342992710973944.3,486065432990478.8,24049202935334.668,67321389629091.98,1712260610557909.8,5.3351083428694104e+16
4.61115701971576,1661673158936100.8,6.0063189673159416e+16,343098869737574.8,486215873834691.0,25102586579306.58,70274573310120.3,1787380739339067.2,5.568944387142256e+16
4.803380160110075,1662161204661646.5,6.252953678016871e+16,343199640423220.94,486358679067821.5,26176887582902.215,73286782557463.7,1864002979871042.5,5.807435060600465e+16
4.9994477633122765,1662625677812835.0,6.504493271458874e+16,343295543891750.3,486494586817807.3,27272519211846.973,76359199037353.42,1942157431000965.8,6.050672775681614e+16
5.199436718578522,1663068817658516.8,6.76103555021296e+16,343387042502826.8,486624252308735.3,28389902793887.184,79493028097422.75,2021874795887562.8,6.298751766288066e+16
5.403425452950093,1663492619279394.8,7.022680200568822e+16,343474548196645.0,486748259313712.1,29529467866113.49,82689499226052.4,2103186393767314.8,6.551768121803892e+16
5.611493962009095,1663898866443447.2,7.289528833658125e+16,343558429281979.25,486867129774418.8,30691652326096.15,85949866524301.94,2186124172044409.0,6.8098198220186584e+16
5.823723841249277,1664289159352388.5,7.561685026704779e+16,343639016165215.7,486981331919898.7,31876902586629.598,89275409189937.38,2270720718692075.0,7.073006772914157e+16
6.040198318074262,1664664938166574.2,7.839254364505827e+16,343716606207728.75,487091287150090.2,33085673733938.562,92667432013223.16,2357009274957000.5,7.341430843282974e+16
6.261002284435747,1665027503037255.0,8.122344481230534e+16,343791467862094.4,487197375897391.2,34318429689240.656,96127265884267.58,2445023748361629.5,7.615195902157334e+16
6.486222330124463,1665378031235064.8,8.411065102611146e+16,343863844208753.7,487299942638562.1,35575643373593.85,99656268311808.53,2534798726001543.5,7.894407857034213e+16
6.715946776726952,1665717591853126.8,8.705528088589269e+16,343933955991874.7,487399300196946.2,36857796875981.31,103255823953394.42,2626369488137015.5,8.17917469288844e+16
6.950265712261491,1666047158475343.0,9.005847476471746e+16,344002004235075.2,487495733449290.5,38165381624604.5,106927345156977.88,2719772022079286.0,8.469606511969677e+16
7.18927102650672,1666367620130397.8,9.312139524644642e+16,344068172503184.3,487589502530955.06,39498898561374.35,110672272513983.02,2815043036373250.5,8.76581557438331e+16
7.433056447036854,1666679790795684.2,9.624522756887088e+16,344132628864595.1,487680845616823.8,40858858319595.195,114492075423940.86,2912219975279281.0,9.067916339457107e+16
7.681717575977592,1666984417669996.0,9.943118007323005e+16,344195527599389.0,487769981341941.75,42245781404853.016,118388252670823.56,3011341033557511.5,9.376025507898562e+16
7.935351927497144,1667282188396922.2,1.0268048466044315e+17,344257010690813.4,487857110915128.75,43660198379121.11,122362333011226.83,3112445171558705.5,9.690262064749122e+16
8.194058966047088,1667573737390925.8,1.0599439725436987e+17,344317209131471.3,487942419970029.94,45102650048103.71,126415875774570.12,3215572130626214.5,1.0010747323142843e+17
8.45794014536803,1667859651393494.2,1.0937419827238102e+17,344376244070549.8,488026080190878.94,46573687651843.78,130550471475506.4,3320762448814064.0,1.0337604968878458e+17
8.72709894827539,1668140474366551.2,1.1282119310350506e+17,344434227824196.2,488108250744339.6,48073873058623.34,134767742438742.45,3428057476926527.0,1.0670961105814611e+17
9.0016409272409,1668416711813634.5,1.163367125943956e+17,344491264767750.5,488189079543911.5,49603778962187.22,139069343436483.4,3537499394884900.0,1.1010944302098686e+17
9.281673745785717,1668688834605575.2,1.1992211354335446e+17,344547452125660.75,488268704369348.25,51163989082325.23,143456962338732.03,3649131228427531.5,1.1357685637240523e+17
9.567307220701432,1668957282375873.5,1.2357877920263114e+17,344602880672556.0,488347253860163.44,52755098368846.61,147932320776675.25,3762996866149292.0,1.1711318750042762e+17
9.85865336511546,1669222466541391.8,1.2730811978921099e+17,344657635356949.3,488424848399505.9,54377713208985.516,152497174819408.03,3879141076887050.0,1.2071979887399754e+17
10.155826432417769,1669484772995950.8,1.3111157300429566e+17,344711795857410.56,488501600902321.94,56032451638273.82,157153315664242.06,3997609527457940.5,1.2439807953977952e+17
10.458942961066125,1669744564517669.5,1.3499060456167307e+17,344765437079625.06,488577617519760.5,57719943554920.37,161902570340870.5,4118448800757228.0,1.2814944562790296e+17
10.768121820287448,1670002182925150.0,1.3894670872516974e+17,344818629601601.8,488652998270083.56,59440830937736.02,166746802429649.44,4241706414223111.0,1.3197534086678237e+17
11.083484256693197,1670257951012844.2,1.4298140885537277e+17,344871440073278.75,488727837604964.8,61195768067644.43,171687912794277.4,4367430838675655.0,1.35877237107144e+17
11.405153941827061,1670512174291788.5,1.4709625796580384e+17,344923931575951.9,488802224918845.75,62985421752817.07,176727840329158.22,4495671517537483.0,1.3985663485539789e+17
11.733257020663602,1670765142558496.2,1.5129283928873094e+17,344976163946213.75,488876245007998.56,64810471557473.06,181868562721733.75,4626478886443938.0,1.4391506381649525e+17
12.067922161076874,1671017131311724.5,1.555727668507897e+17,345028194068485.75,488949978485081.7,66671610034384.414,187112097230085.53,4759904393250648.0,1.4805408344640954e+17
12.409280604298411,1671268403034368.5,1.5993768605859587e+17,345080076139699.56,489023502154231.25,68569542961124.66,192460501476112.34,4896000518446474.0,1.5227528351438394e+17
12.75746621638438,1671519208355545.0,1.6438927429452202e+17,345131861909244.1,489096889351092.3,70504989580100.55,197915874254589.5,5034820795980394.0,1.5658028467509117e+17
13.112615540712067,1671769787106006.8,1.689292415228131e+17,345183600896883.3,489170210251643.5,72478682842407.39,203480356358433.34,5176419834510468.0,1.609707390508472e+17
13.474867851526309,1672020369278476.0,1.7355933090621117e+17,345235340591045.3,489243532153191.5,74491369655544.1,209156131420488.0,5320853339083811.0,1.6544833082402864e+17
13.844365208556836,1672271175903040.5,1.7828131943326454e+17,345287126629571.7,489316919730519.94,76543811135026.92,214945426772176.0,5468178133256256.0,1.700147768398378e+17
14.221252512727972,1672522419846559.2,1.830970185564892e+17,345339002964775.75,489390435269802.25,78636782859940.62,220850514319337.53,5618452181660859.0,1.746718272195679e+17
14.605677562982532,1672774306544006.8,1.8800827484155523e+17,345391012014451.06,489464138882593.7,80771075132460.19,226873711435616.47,5771734613034371.0,1.794212659845115e+17
14.997791114242183,1673027034668692.2,1.9301697062766752e+17,345443194800258.7,489538088701944.8,82947493241382.47,233017381873735.88,5928085743711253.0,1.842649116906701e+17
15.397746936527026,1673280796747603.8,1.9812502469931158e+17,345495591074775.56,489612341062454.7,85166857729700.45,239283936695025.94,6087567101594693.0,1.892046180744072e+17
15.805701875257567,1673535779727331.5,2.0333439296953315e+17,345548239438353.06,489686950665860.1,87430004666254.02,245675835217573.3,6250241450614690.0,1.9424227470920288e+17
16.221815912762718,1673792165495457.0,2.0864706917491987e+17,345601177446766.44,489761970733603.25,89737785921491.36,252195585983359.38,6416172815682967.0,1.9937980767365626e+17
16.64625223101797,1674050131361786.5,2.1406508558245885e+17,345654441710582.9,489837453147638.25,92091069447370.83,258845747744773.94,6585426508155282.0,2.046191802308917e+17
17.079177275638333,1674309850503283.8,2.195905137084317e+17,345708067987027.9,489913448580624.5,94490739561436.6,265628930470891.16,6758069151811377.0,2.099623935195174e+17
17.5207608211511,1674571492376191.0,2.2522546504952192e+17,345762091265078.8,489990006616514.6,96937697235090.78,272547796373908.56,6934168709363363.0,2.154114872562918e+17
17.97117603757412,1674835223098426.5,2.309720918263002e+17,345816545844425.94,490067175862447.6,99432860386100.03,279605060956143.88,7113794509503494.0,2.209685404506493e+17
18.430599558325603,1675101205805064.5,2.3683258773925606e+17,345871465408863.9,490145004052760.44,101977164175349.78,286803494078016.56,7297017274502385.0,2.2663567213123376e+17
18.899211549492115,1675369600979371.0,2.4280918873754134e+17,345926883094650.06,490223538145857.25,104571561307881.83,294145921047422.1,7483909148369233.0,2.3241504208459696e+17
19.37719578048196,1675640566761667.0,2.4890417380059853e+17,345982831554274.7,490302824414580.8,107217022338230.97,301635223730935.56,7674543725585435.0,2.383088516062131e+17
19.864739696091597,1675914259238039.8,2.5511986573282848e+17,346039343016073.94,490382908530690.56,109914535980082.53,309274341687283.0,7868996080423665.0,2.4431934426395267e+17
20.36203449001343,1676190832710702.2,2.6145863197148077e+17,346096449340052.56,490463835643975.9,112665109420271.92,317066273323521.9,8067342796864544.0,2.5044880667417776e+17
20.869275179813698,1676470439951699.0,2.6792288540791197e+17,346154182070269.06,490545650456485.4,115469768637138.88,325014077074390.9,8269661999123124.0,2.5669956929059872e+17
21.38666068340997,1676753232441385.0,2.7451508522239008e+17,346212572484078.7,490628397292315.06,118329558723253.8,333120872605291.25,8476033382797987.0,2.6307400720604573e+17
21.91439389707817,1677039360593097.2,2.812377377326035e+17,346271651638519.25,490712120163342.56,121245544212524.58,341389842039372.56,8686538246655726.0,2.69574540967301e+17
22.452681775019734,1677328973965203.5,2.8809339725603293e+17,346331450414096.25,490796862831274.25,124218809411697.44,349824231209211.25,8901259525064247.0,2.7620363740313725e+17
23.00173541052013,1677622221461621.8,2.950846669863514e+17,346391999556184.7,490882668866323.94,127250458736253.08,358427350933566.7,9120281821087970.0,2.8296381046570928e+17
23.561770118730532,1677919251521886.2,3.0221419988400634e+17,346453329714277.3,490969581702818.4,130341617050706.14,367202578319722.6,9343691440259000.0,2.898576220854374e+17
24.133005521105144,1678220212301605.2,3.0948469958114477e+17,346515471479241.0,491057644692014.06,133493430013305.31,376153358091922.75,9571576425038216.0,2.968876830395288e+17
24.715665631527248,1678525251844240.2,3.168989213010371e+17,346578455418784.75,491146901152343.5,136707064425133.42,385283203946425.9,9804026589980482.0,3.0405665383426995e+17
25.309978944157795,1678834518244856.0,3.244596727921432e+17,346642312111276.5,491237394417344.3,139983708583600.02,394595699933716.0,1.0041133557618762e+16,3.1136724560123386e+17
25.91617852304095,1679148159806668.8,3.3216981527698426e+17,346707072178059.0,491329167881457.2,143324572640319.22,404094501868394.9,1.0282990795082104e+16,3.1882222100752736e+17
26.53450209350177,1679466325190938.5,3.40032264415961e+17,346772766314404.9,491422265043890.3,146730888963354.9,413783338767333.9,1.0529693651462544e+16,3.264243951802183e+17
27.165192135371807,1679789163560840.5,3.480499912862611e+17,346839425319222.6,491516729550713.9,150203912503822.12,423666014316632.2,1.0781339395946772e+16,3.341766366450634e+17
27.808495978079243,1680116824719853.0,3.5622602337600774e+17,346907080123625.9,491612605235355.44,153744921166818.7,433746408367960.6,1.1038027256728354e+16,3.4208186827966605e+17
28.464665897640828,1680449459245136.8,3.6456344559377376e+17,346975761818478.9,491709936157627.2,157355216186661.78,444028478464886.44,1.1299858460716702e+16,3.501430682811846e+17
29.133959215593645,1680787218616390.8,3.730654012936108e+17,347045501680999.56,491808766641427.7,161036122506401.7,454516261399765.6,1.1566936274059496e+16,3.583632711487067e+17
29.816638399905518,1681130255340581.5,3.8173509331571424e+17,347116331200513.7,491909141311242.2,164788989161577.06,465213874801818.6,1.1839366043495416e+16,3.667455686804031e+17
30.51297116790363,1681478723072954.5,3.90575785042856e+17,347188282103442.75,492011105127546.7,168615189668168.66,476125518757014.0,1.2117255238554662e+16,3.752931109855723e+17
31.223230591261704,1681832776734666.5,3.995908014727081e+17,347261386377588.4,492114703421234.75,172516122414709.44,487255477460385.5,1.240071349462459e+16,3.840091075116749e+17
31.947695203086937,1682192572627401.0,4.0878353030616864e+17,347335676295802.7,492219981927146.75,176493211058498.84,498608120901442.0,1.2689852656898948e+16,3.9289682808645984e+17
32.686649107148675,1682558268545241.0,4.1815742305181466e+17,347411184439084.5,492326986816809.2,180547904925868.1,510187906583310.7,1.2984786825228776e+16,4.019596039752757e+17
33.44038208929165,1682930023884113.2,4.277159961465693e+17,347487943719177.0,492435764730457.9,184681679416427.8,521999381276306.8,1.328563239989389e+16,4.1120082895364896e+17
34.20918973107749,1683307999749048.5,4.3746283209270784e+17,347565987400718.75,492546362808424.2,188896036411232.6,534047182806596.56,1.3592508128314374e+16,4.206239603952173e+17
34.993373525699035,1683692359059534.5,4.474015806112774e+17,347645349122989.4,492658828721959.1,193192504684789.28,546336041880655.56,1.3905535152721422e+16,4.30232520375086e+17
35.793240996213015,1684083266653160.2,4.575359598120279e+17,347726062921317.7,492773210703561.9,197572640320824.53,558870783946245.3,1.4224837058807606e+16,4.400300967886754e+17
36.60910581613728,1684480889387791.2,4.6786975737993414e+17,347808163248173.6,492889557576879.1,202038027131718.56,571656331090611.6,1.455053992537724e+16,4.500203444861214e+17
37.44128793246003,1684885396242474.8,4.784068317783757e+17,347891684994005.0,493007918786226.6,206590277081517.78,584697703976666.0,1.4882772375017566e+16,4.6020698642227686e+17
38.29011369110923,1685296958417251.8,4.8915111346904915e+17,347976663507844.06,493128344425795.1,211231030712410.3,598000023817880.4,1.522166562581199e+16,4.7059381482235565e+17
39.15591596493141,1685715749432070.8,5.0010660614865766e+17,348063134617734.56,493250885268597.0,215961957574560.6,611568514392686.1,1.556735354411746e+16,4.8118469236325466e+17
40.03903428423004,1686141945224962.8,5.1127738800243974e+17,348151134651001.3,493375592795190.8,220784756659177.34,625408504099135.4,1.5919972698427912e+16,4.919835533705827e+17
40.93981496991464,1686575724249645.8,5.2266761297455136e+17,348240700454401.0,493502519222238.3,225701156834684.66,639525428050637.1,1.6279662414346814e+16,5.0299440503139245e+17
41.85861126931294,1687017267572686.0,5.3428151205535354e+17,348331869414187.2,493631717530938.75,230712917285859.75,653924830213574.5,1.664656483069158e+16,5.142213286226448e+17
