t(s),Total solute volume 1,Total retention volume 1,Total 1 volume 1,Total 2 volume 1,Total 3 volume 1,Total 4 volume 1,Total 5 volume 1,Total 6 volume 1
0.1,839524706393360.9,941664656952722.2,50673114377222.37,51466836182138.266,0.0,0.0,0.0,0.0
0.202,1265003923278318.5,1418912329546096.2,76354737483924.94,77550725366595.2,7459122.884174064,12489740.110758208,147385102.7322636,2776083291.761863
0.30604000000000003,1589018741781071.0,1782352618581688.0,95912041588997.73,97414366726838.12,18926287.21824664,31690646.197048668,373965685.35147405,7043902165.395839
0.41216080000000005,1863081891568954.2,2089765190872145.2,112454298476415.38,114215734448010.67,33618946.75891108,56292402.53172948,664279169.7581557,12512188245.079409
0.5204040160000001,2106468588705764.0,2362770225765593.0,127144946488716.94,129136490482012.67,51189907.253918536,85713658.33553913,1011465289.9380038,19051720242.17312
0.6308120963200001,2328780700038709.5,2612137718364637.5,140563547483612.31,142765274697516.88,71452986.06498916,119642664.77165174,1411845238.8571315,26593203911.23344
0.7434283382464002,2535598505435749.0,2844126825833561.0,153046923187130.38,155444184652569.8,94301781.867917,157901260.85009763,1863316620.0203385,35097038452.25027
0.8582969050113283,2730496652476776.0,3062747078075459.5,164810836786042.88,167392363156406.4,119676305.31553112,200388998.964912,2364694097.112426,44540896831.504265
0.9754628431115548,2915924633281866.5,3270745970424294.0,176003137883391.38,178759975665076.3,147546539.5318353,247055618.17137071,2915384563.446245,54913607238.16209
1.094972099973786,3093646210475814.0,3470101848346752.5,186730285937349.28,189655149172188.1,177903336.851239,297885801.4575152,3515207269.4482846,66211764997.92885
1.2168715419732616,3264980641552301.5,3662294477974074.0,197071910392368.56,200158760403751.22,210752949.36309078,352890017.5508658,4164285751.0197353,78437696935.23997
1.3412089728127268,3430944945667425.0,3848464620268774.0,207089397801705.2,210333157445725.2,246113539.85452285,412098678.7538976,4862978888.848706,91598162807.92975
1.4680331522689813,3592342647992644.0,4029513571453286.0,216831248373472.94,220227600192727.6,284012852.72791964,475558241.0701593,5611834887.8059,105703488464.89215
1.597393815314361,3749821692230174.5,4206168120759454.5,226336571528906.6,229881810659227.9,324486603.86217475,543328508.1479454,6411559462.037013,120766966582.0885
1.729341691620648,3903913662199935.5,4379024543420085.5,235637453289467.5,239328377448392.03,367577336.8999152,615480716.2192883,7262993236.220127,136804430993.96088
1.863928525453061,4055061183870064.0,4548579336213265.0,244760610243921.5,248594435626194.66,413333593.8051322,692096145.2612511,8167095356.528297,153833947990.58636
2.001207095962122,4203637582639194.0,4715251266087762.0,253728576047928.5,257702871805829.72,461809304.0568652,773265096.2468787,9124931421.646067,171875588987.1263
2.1412312378813647,4349961309521228.0,4879397551315959.0,262560572178294.97,266673208541086.94,513063330.1982645,859086130.2015473,10137664503.229261,190951261385.83368
2.284055862638992,4494306740130251.5,5041325974233455.0,271273159753949.34,275522266361653.0,567159128.0711344,949665500.5247853,11206548702.034107,211084614278.4249
2.4297369798917723,4636912400570049.0,5201304107659564.0,279880736037000.3,284264668032976.4,624164492.1239014,1045116721.6054691,12332923039.353802,232300815298.44775
2.578331719489608,4777987330187255.0,5359566451939750.0,288395918495838.1,292913228662823.0,684151367.5158445,1145560261.5747736,13518209355.464005,254626672861.9355
2.7298983538794,4917716071856808.0,5516320032150785.0,296829846007194.9,301479261602515.8,747195711.7320402,1251123305.6859474,14763908502.956116,278090456759.17474
2.884496320956988,5056262634027341.0,5671748842187148.0,305192418004435.94,309972821345902.6,813377397.0499281,1361939594.2270663,16071598687.28302,302721893786.3127
3.0421862473761276,5193773671766188.0,5826017412798827.0,313492486483161.06,318402898542447.3,882780145.1191076,1478149312.9802566,17442934174.12015,328552143397.55774
3.2030299723236504,5330381066662082.0,5979273705360053.0,321738011722309.06,326777578157486.9,955491487.8134944,1599899027.6720865,18879644515.84411,355613783134.997
3.3670905717701234,5466204038542150.0,6131651480499238.0,329936189745888.75,335104168930465.1,1031602749.800219,1727341654.7870724,20383534207.115936,383940802140.9776
3.5344323832055258,5601350888595723.0,6283272253298750.0,338093557536695.75,343389310236677.44,1111209049.3145192,1860636462.865707,21956482700.19772,413568601446.40955
3.7051210308696363,5735920449428356.0,6434246919774468.0,346216080560536.9,351639060982430.44,1194409314.4094346,1999949099.7139704,23600444726.03902,444534000018.4981
3.879223451487029,5870003299964147.0,6584677119599952.0,354309226096877.94,359858974084310.3,1281306312.5382926,2145451641.9376376,25317450878.80696,476875245770.6897
4.0568079205167695,6003682790078534.0,6734656385416180.0,362378025084941.44,368054159284018.2,1372006691.7783003,2297322663.9687333,27109608430.434814,510632030905.2022
4.237944078927105,6137035910074602.0,6884271118112476.0,370427124604691.5,376229336451385.8,1466621032.35144,2455747324.3341265,28979102348.63651,545845511088.0303
4.422702960505647,6270134032720362.0,7033601419166717.0,378460832665661.75,384388881074765.4,1565263907.370607,2620917467.3711133,30928196497.20374,582558328057.3833
4.61115701971576,6403043549906522.0,7182721804788900.0,386483156635178.7,392536863291163.94,1668053951.9527025,2793031738.952871,32959235001.62771,620814635346.1682
4.803380160110075,6535826421617812.0,7331701821712763.0,394497836373868.7,400677081540786.44,1775113940.010799,2972295715.072032,35074643766.45252,660660126862.4508
4.9994477633122765,6668540651510910.0,7480606580667484.0,402508372941213.94,408813091722209.3,1886570868.1737015,3158922042.3585415,37276932133.45979,702142068122.6041
5.199436718578522,6801240700723332.0,7629497220568183.0,410518053572758.0,416948232560825.56,2002556046.3916357,3353130589.792981,39568694671.96648,745309329972.9036
5.403425452950093,6933977849427347.0,7778431314095971.0,418529973503243.0,425085647773807.44,2123205194.876693,3555148611.0270295,41952613094.29129,790212424668.7856
5.611493962009095,7066800513961965.0,7927463223454199.0,426547055108469.94,433228305511799.8,2248658547.1003823,3765210916.8461876,44431458290.90576,836903544208.4635
5.823723841249277,7199754526028211.0,8076644413574788.0,434572064757331.2,441379015474912.1,2379060958.631892,3983560057.4122815,47008092480.99276,885436600840.3115
6.040198318074262,7332883379346023.0,8226023728829515.0,442607627699842.06,449540444033948.9,2514562021.6514397,4210446514.0086474,49685471475.13933,935867269682.43
6.261002284435747,7466228448287762.0,8375647638310697.0,450656241263701.8,457715127633685.5,2655316185.0160327,4446128900.08233,52466647047.74247,988253033408.682
6.486222330124463,7599829182283470.0,8525560453938198.0,458720286588465.3,465905484710821.25,2801482879.7909746,4690874171.438494,55354769417.41297,1042653228969.0173
6.715946776726952,7733723279201704.0,8675804524986089.0,466802039090675.2,474113826323054.3,2953226650.191672,4944957845.493967,58353089834.28319,1099129096323.3577
6.950265712261491,7867946840422103.0,8826420412075781.0,474903677823945.4,482342365655757.0,3110717289.906593,5208664229.541051,61464963273.64092,1157743829178.2603
7.18927102650672,8002534509912105.0,8977447043229239.0,483027293873516.8,490593226548034.6,3274129983.7952523,5482286658.011745,64693851235.772316,1218562627724.0742
7.433056447036854,8137519599283484.0,9128921854198614.0,491174897904599.8,498868451159296.0,3443645454.975476,5766127738.765758,68043324652.290825,1281652753377.8655
7.681717575977592,8272934200523868.0,9280880914972998.0,499348426966748.25,507170006880210.75,3619450117.3315325,6060499608.455602,71517066899.57956,1347083585543.8674
7.935351927497144,8408809287861242.0,9433359044098850.0,507549750642343.75,515499792577497.9,3801736233.490784,6365724197.048189,75118876920.28726,1414926680409.264
8.194058966047088,8545174810021637.0,9586389912226442.0,515780676615199.2,523859644249754.1,3990702078.3302426,6682133501.60627,78852672454.09216,1485255831798.019
8.45794014536803,8682059773970965.0,9740006136106812.0,524042955725155.0,532251340161225.8,4186552108.0876245,7010069869.4537945,82722493379.20483,1558147134110.6587
8.72709894827539,8819492321089255.0,9894239364102780.0,532338286565903.7,540676605511650.5,4389497135.162487,7349886290.869491,86732505166.30615,1633679047381.7546
9.0016409272409,8957499796603972.0,1.0049120354140904e+16,540668319675935.94,549137116692843.5,4599754508.70425,7701946701.469887,90887002446.82707,1711932464491.1843
9.281673745785717,9096108813004540.0,1.0204679044914934e+16,549034661366193.0,557634505176317.25,4817548301.093468,8066626294.4603195,95190412697.67609,1792990780568.7246
9.567307220701432,9235345308071276.0,1.0360944621050654e+16,557438877222651.75,566170361070714.8,5043109500.431864,8444311842.947556,99647300044.69841,1876939964635.0693
9.85865336511546,9375234598074430.0,1.0517945572855984e+16,565882495317395.4,574746236383181.8,5276676209.165864,8835402032.522009,104262369187.32243,1963868633525.4626
10.155826432417769,9515801426634282.0,1.067570975120596e+16,574367009157743.4,583363648014704.9,5518493848.975646,9240307804.332043,109040469447.0176,2053868128145.441
10.458942961066125,9657070009673262.0,1.0834264418047854e+16,582893880399563.9,592024080515898.5,5768815372.070938,9659452708.885103,113986598942.33606,2147032592110.8208
10.768121820287448,9799064076844574.0,1.0993636292955676e+16,591464541347853.8,600728988626771.5,6027901479.040824,10093273270.824114,119105908893.46681,2243459052827.168
11.083484256693197,9941806909775406.0,1.1153851596115014e+16,600080397265076.9,609479799621218.1,6296020843.413815,10542219364.939005,124403708059.36974,2343247505066.5317
11.405153941827061,1.0085321377427236e+16,1.1314936088076892e+16,608742828505494.0,618277915474777.0,6573450343.090117,11006754603.685955,129885467310.7114,2446500997101.9673
11.733257020663602,1.0229629968842148e+16,1.147691510658178e+16,617453192491690.0,627124714872119.6,6860475298.816135,11487356736.49821,135556824341.93874,2553325719463.0127
12.067922161076874,1.0374754823514018e+16,1.1639813600723476e+16,626212825547784.1,636021555068973.0,7157389719.877424,11984518061.184027,141423588525.99878,2663831096377.7427
12.409280604298411,1.0520717759600532e+16,1.1803656162692704e+16,635023044602259.6,644969773621623.5,7464496557.193943,12498745847.718958,147491745915.30756,2778129879969.7163
12.75746621638438,1.0667540300166732e+16,1.1968467057316968e+16,643885148772020.5,653970689995787.1,7782107964.006969,13030562774.750687,153767464392.7386,2896338247280.5293
13.112615540712067,1.0815243697633574e+16,1.213427024958914e+16,652800420838085.4,663025607065416.1,8110545564.355435,13580507379.1459,160257098976.51855,3018575900191.267
13.474867851526309,1.0963848956585732e+16,1.2301089430359778e+16,661770128622256.9,672135812510927.5,8450140729.544402,14149134518.920925,166967197283.0468,3144966168318.615
13.844365208556836,1.1113376855079004e+16,1.2468948040348486e+16,670795526273212.1,681302580125446.6,8801234862.81702,14737015849.907148,173904505151.80228,3275636114963.8857
14.221252512727972,1.126384796457245e+16,1.2637869292617412e+16,679877855469591.0,690527171036737.0,9164179692.446186,15344740316.516024,181075972436.63174,3410716646195.876
14.605677562982532,1.1415282668599366e+16,1.2807876193632522e+16,689018346546973.2,699810834851829.4,9539337573.470428,15972914656.97777,188488758967.82928,3550342623150.7007
14.997791114242183,1.1567701180280064e+16,1.2978991563029664e+16,698218219554930.5,709154810730627.1,9927081798.304539,16622163923.440948,196150240689.58527,3694652977634.723
15.397746936527026,1.172112355876924e+16,1.3151238052189244e+16,707478685249781.1,718560328394216.0,10327796916.46294,17293132017.330112,204068015977.4888,3843790831118.779
15.805701875257567,1.1875569724722618e+16,1.3324638161714462e+16,716800946028141.8,728028609073039.6,10741879063.639948,17986482240.371883,212249912140.9229,3997903617214.8984
16.221815912762718,1.2031059474859484e+16,1.349921425789904e+16,726186196805915.1,737560866399650.0,11169736300.399055,18702897861.71052,220703992115.32315,4157143207729.0527
16.64625223101797,1.2187612495690656e+16,1.367498858826325e+16,735635625846900.9,747158307250300.1,11611788960.729479,19443082701.54582,229438561349.41028,4321666042386.225
17.079177275638333,1.2345248376475168e+16,1.3851983296228216e+16,745150415544839.9,756822132539243.0,12068470010.736044,20207761731.73902,238462174892.64685,4491633262326.651
17.5207608211511,1.2503986621462916e+16,1.4030220434993872e+16,754731743162396.8,766553537969276.9,12540225417.73501,20997681693.842525,247783644688.3078,4667210847474.583
17.97117603757412,1.266384666147549e+16,1.4209721980678546e+16,764380781530146.8,776353714741690.1,13027514530.03567,21813611735.023064,257412047077.69757,4848569757884.0
18.430599558325603,1.2824847864872446e+16,1.439050984477374e+16,774098699708499.0,786223850228558.2,13530810467.694553,22656344062.35782,267356730521.17685,5035886079167.581
18.899211549492115,1.2987009547945156e+16,1.4572605885960946e+16,783886663615068.8,796165128609922.9,14050600524.536304,23526694615.99567,277627323541.80255,5229341172118.437
19.37719578048196,1.3150350984776816e+16,1.4756031921334816e+16,793745836619820.4,806178731478277.0,14587386581.740854,24425503761.6866,288233742897.517,5429121826636.383
19.864739696091597,1.3314891416602744e+16,1.494080973706974e+16,803677380110029.8,816265838412364.5,15141685533.304688,25353637003.19266,299186201987.9556,5635420420072.564
20.36203449001343,1.3480650060700236e+16,1.5126961098564382e+16,813682454026894.0,826427627522201.0,15714029723.688301,26311985715.10543,310495219502.041,5848435080109.163
20.869275179813698,1.364764611883486e+16,1.5314507760092948e+16,823762217375330.5,836665275966857.5,16304967397.968836,27301467896.60185,322171628312.66754,6068369852292.539
21.38666068340997,1.3815898785284612e+16,1.550347147398837e+16,833917828708311.4,846979960446378.5,16915063164.821064,28323028946.68132,334226584624.86646,6295434872339.806
21.91439389707817,1.3985427254459474e+16,1.5693873999376768e+16,844150446586773.0,857372857668894.1,17544898472.654476,29377642461.43182,346671577383.91473,6529846543341.109
22.452681775019734,1.4156250728130302e+16,1.5885737110479132e+16,854461230015952.2,867845144793797.5,18195072099.236942,30466311053.878746,359518437949.92676,6771827717980.219
23.00173541052013,1.432838842227561e+16,1.6079082604489526e+16,864851338858644.4,878397999851469.1,18866200655.13713,31590067196.97321,372779350045.49634,7021607885896.977
23.561770118730532,1.4501859573550004e+16,1.6273932309034996e+16,875321934225644.2,889032602139834.0,19558919101.319157,32749974090.27709,386466859982.9561,7279423366315.7295
24.133005521105144,1.4676683445373478e+16,1.6470308089215492e+16,885874178843281.0,899750132597659.2,20273881281.2193,33947126550.89824,400593887177.7999,7545517506062.255
24.715665631527248,1.4852879333633892e+16,1.6668231854216108e+16,896509237397620.6,910551774154137.6,21011760467.633213,35182651929.22531,415173734954.72797,7820140883091.228
25.309978944157795,1.503046657199011e+16,1.6867725563476972e+16,907228276854568.6,921438712054011.8,21773249924.733513,36457711049.99728,430220101652.6623,8103551515643.319
25.91617852304095,1.5209464536755368e+16,1.7068811232398708e+16,918032466754597.6,932412134156923.1,22559063485.52895,37773499179.23044,445747092034.86096,8396015077147.597
26.53450209350177,1.5389892651333684e+16,1.7271510937552808e+16,928922979480566.2,943473231209406.4,23369936145.064407,39131247017.50241,461769229010.04486,8697805116980.102
27.165192135371807,1.5571770390174864e+16,1.7475846821357834e+16,939900990496405.0,954623197087332.2,24206624669.64186,40532221720.0619,478301465670.0789,9009203287183.217
27.808495978079243,1.5755117282203484e+16,1.7681841096172784e+16,950967678554105.4,965863229006137.0,25069908222.322475,41977727944.202385,495359197649.35583,9330499575242.332
28.464665897640828,1.5939952913670322e+16,1.7889516047748506e+16,962124225865834.1,977194527695615.2,25960589004.943893,43469108924.2888,512958275810.4768,9661992543006.44
29.133959215593645,1.6126296930363588e+16,1.8098894037968016e+16,973371818237377.2,988618297535481.6,26879492916.85346,45007747574.77516,531115019260.2217,10003989571827.78
29.816638399905518,1.6314169039107488e+16,1.8309997506793904e+16,984711645158624.8,1000135746647241.9,27827470230.520725,46595067621.485596,549846228699.037,10356807113980.803
30.51297116790363,1.650358900846591e+16,1.8522848973330796e+16,996144899846018.0,1011748086937329.6,28805396284.148903,48232534761.36063,569169200106.3779,10720770950404.943
31.223230591261704,1.6694576668557388e+16,1.8737471035898156e+16,1007672779231395.1,1023456534085761.5,29814172191.35125,49921657850.7773,589101738763.2405,11096216454795.734
31.947695203086937,1.6887151909876722e+16,1.895388637099483e+16,1019296483890856.8,1035262307473901.9,30854725567.90133,51663990122.46036,609662173612.0343,11483488864047.29
32.686649107148675,1.7081334681007806e+16,1.9172117731027496e+16,1031017217906727.1,1047166630044242.0,31928011275.496902,53461130430.88102,630869371952.6246,11882943555023.67
33.44038208929165,1.7277144985100882e+16,1.939218794065902e+16,1042836188654902.9,1059170728084438.2,33035012182.403664,55314724525.92241,652742754471.891,12294946327609.473
34.20918973107749,1.7474602874976976e+16,1.961411989162437e+16,1054754606509375.8,1071275830927195.0,34176739940.759502,57226466354.44196,675302310602.459,12719873693957.402
34.993373525699035,1.7673728446712044e+16,1.9837936535847132e+16,1066773684454972.9,1083483170556936.8,35354235780.227776,59198099389.210495,698568614204.4725,13158113173817.398
35.793240996213015,1.7874541831543694e+16,2.0063660876680924e+16,1078894637598853.2,1095793981113663.8,36568571317.586586,61231417984.53599,722562839562.2279,13610063595792.938
36.60910581613728,1.8077063185935292e+16,2.0291315958090036e+16,1091118682570774.4,1108209498283813.4,37820849381.73076,63328268757.6964,747306777685.3369,14076135404330.281
37.44128793246003,1.828131267962402e+16,2.0520924851575244e+16,1103447036801694.2,1120730958567562.4,39112204853.442825,65490551995.1031,772822852901.6892,14556750972200.51
38.29011369110923,1.8487310481474044e+16,2.0752510640641976e+16,1115880917669873.5,1133359598411564.5,40443805519.16338,67720223081.907196,799134139727.0469,15052344918188.303
39.15591596493141,1.869507674295185e+16,2.098609640260773e+16,1128421541503453.8,1146096653195894.2,41816852937.85444,70019293953.52953,826264379993.2904,15563364429649.814
40.03903428423004,1.8904631579036916e+16,2.1221705187536624e+16,1141070122428248.0,1158943356063795.0,43232583319.90665,72389834567.35986,854238000214.6635,16090269589549.393
40.93981496991464,1.9115995046381844e+16,2.1459359994093644e+16,1153827871049496.0,1171900936582781.5,44692268416.890205,74833974392.6146,883080129168.2585,16633533707528.19
41.85861126931294,1.93291871185369e+16,2.1699083742109656e+16,1166695992956429.8,1184970619225791.2,46197216420.79486,77353903916.08408,912816615661.991,17193643654501.176
42.7957834946992,1.9544227658057588e+16,2.1940899241653268e+16,1179675687038725.0,1198153621661242.0,47748772871.2407,79951876161.22891,943474046460.0526,17771100200216.66
43.751699164593184,1.9761136385321624e+16,2.218482915841458e+16,1192768143604293.5,1211451152841375.2,49348321568.977516,82630208217.80801,975079764332.637,18366418353153.047
44.72673314788505,1.9979932843889296e+16,2.2430895975212988e+16,1205974542288471.2,1224864410878671.2,50997285493.82057,85391282778.93665,1007661886193.2941,18980127702063.33
