t(s),Total solute volume 1,Total retention volume 1,Total 1 volume 1,Total 2 volume 1,Total 3 volume 1,Total 4 volume 1,Total 5 volume 1,Total 6 volume 1
0.1,1225891390677807.5,1918426285810987.5,281662698191601.44,410872196941578.9,0.0,0.0,0.0,0.0
0.202,1802001613241203.8,2935517278475993.0,414030678336356.5,603962487498233.6,43592661706.63328,127394733131.95605,3460764170657.2837,111890747834700.03
0.30604000000000003,2211573946616083.5,3747710025856538.0,508134652285146.56,741235582191150.4,108069935445.5709,315824086186.29694,8580623678128.153,277761327064395.94
0.41216080000000005,2535116416896863.0,4465566250736198.5,582472271476601.4,849674732569979.4,187681644744.1938,548483631865.9445,14902543700463.826,482664120815677.1
0.5204040160000001,2803781079795773.5,5130154713963849.0,644201080669553.2,939720926030110.0,279543870569.1972,816945590447.9904,22197470383270.87,719157667624127.5
0.6308120963200001,3033523077713807.0,5761702694654531.0,696986958116936.0,1016721720573463.1,381874341871.80133,1116001646341.3438,30323866107165.805,982649196154945.6
0.7434283382464002,3233851250163010.0,6371846510514571.0,743014669509109.5,1083864118085693.8,493453003463.4791,1442086497468.5557,39184846430577.53,1269996086825253.2
0.8582969050113283,3410996503957065.5,6967980590153362.0,783715837638318.5,1143236481859914.2,613393541309.1124,1792610161584.2607,48710031529136.55,1578915731466042.2
0.9754628431115548,3569315406876315.0,7555144941790245.0,820091434257696.9,1196298967924108.5,741027308450.9603,2165618763658.8906,58846327264009.92,1907686159396003.0
1.094972099973786,3712000702559737.0,8136960685432608.0,852875029084245.9,1244121662657827.8,875837032761.638,2559600805493.727,69552660452401.46,2254975192840136.5
1.2168715419732616,3841476965051479.5,8716139964657467.0,882623696000295.6,1287517191171686.0,1017415730922.6276,2973367097646.7065,80796716092481.23,2619734613512948.5
1.3412089728127268,3959637317978452.5,9294784497903042.0,909772402018218.2,1327120056585244.8,1165439663595.227,3405971725027.1807,92552789714319.4,3001130520218193.5
1.4680331522689813,4067993229405444.5,9874570448490614.0,934668424378167.9,1363436845572733.8,1319649693400.2246,3856657568620.6133,104800307038360.64,3398495334833877.5
1.597393815314361,4167773664557701.5,1.0456868180646324e+16,957594132031018.8,1396879460589237.2,1479837959959.4158,4324817365618.525,117522765874252.52,3811293502268533.5
1.729341691620648,4259993185030207.5,1.1042822770534098e+16,978782632218023.1,1427787944138652.5,1645838072919.935,4809965050371.453,130706957384335.95,4239096248639592.0
1.863928525453061,4345500182994001.0,1.1633409845754554e+16,998428852836666.1,1456446645047211.8,1817517718999.922,5311714149982.612,144342379042257.84,4681562553965443.0
2.001207095962122,4425011947408402.0,1.2229475355029522e+16,1016697599307795.2,1483095971325621.0,1994772976444.7974,5829761169568.398,158420783173569.12,5138424519668119.0
2.1412312378813647,4499140732706379.0,1.2831764549071432e+16,1033729544157092.0,1507941127401958.0,2177523868331.3726,6363872597877.141,172935823869730.4,5609475924470069.0
2.284055862638992,4568413516673195.0,1.3440943526213614e+16,1049645766615808.1,1531158736211918.2,2365710834531.1514,6913874597561.131,187882776849755.66,6094563144430842.0
2.4297369798917723,4633287230011591.0,1.4057615535661312e+16,1064551251789213.6,1552901943570444.0,2559291897811.834,7479644723973.208,203258314440838.5,6593577859227430.0
2.578331719489608,4694160670993452.0,1.4682333509466426e+16,1078537628185379.2,1573304411510273.0,2758240363074.243,8061105201981.64,219060322893262.97,7106451130319008.0
2.7298983538794,4751383950153138.0,1.5315609832721946e+16,1091685337742517.6,1592483483784272.0,2962542931986.4644,8658217416732.486,235287752680512.44,7633148548012787.0
2.884496320956988,4805266065391069.0,1.5957924058801616e+16,1104065376296497.0,1610542724752369.5,3172198145416.904,9270977362367.684,251940494828814.97,8173666222025067.0
3.0421862473761276,4856081041827125.0,1.6609729073557388e+16,1115740704283030.8,1627573977227092.0,3387215087487.116,9899411855301.166,269019278021193.1,8728027445256170.0
3.2030299723236504,4904072955761196.0,1.727145607361347e+16,1126767401050657.5,1643659046314304.0,3607612300559.299,10543575363935.145,286525582451423.56,9296279900371390.0
3.3670905717701234,4949460081019154.0,1.7943518627264548e+16,1137195617531561.8,1658871089110791.5,3833416871862.1733,11203547339979.887,304461567307618.94,9878493308083582.0
3.5344323832055258,4992438337844416.0,1.8626316018092876e+16,1147070368664250.2,1673275770641697.2,4064663660949.589,11879429961353.74,322830009439374.56,1.0474757437880848e+16
3.7051210308696363,5033184182213639.0,1.9320236022286296e+16,1156432197247195.8,1686932232249363.0,4301394643600.5205,12571346215384.361,341634251271717.9,1.1085180418445436e+16
3.879223451487029,5071857042270765.0,2.002565723485804e+16,1165317733737684.8,1699893908193448.8,4543658352670.849,13279438265356.715,360878156418340.4,1.1709887297619768e+16
4.0568079205167695,5108601385286340.0,2.0742951033585776e+16,1173760171159576.8,1712209218417154.2,4791509400194.502,14003866054521.635,380566071747299.25,1.2349018811520676e+16
4.237944078927105,5143548480957690.0,2.1472483249805212e+16,1181789670241900.2,1723922159538465.8,5045008067986.164,14744806110312.045,400702794886977.8,1.3002730330001894e+16
4.422702960505647,5176817913435412.0,2.2214615600353876e+16,1189433706824375.2,1735072811623965.5,5304219956324.052,15502450518313.105,421293546344823.4,1.367119095165066e+16
4.61115701971576,5208518884106567.0,2.2969706923660684e+16,1196717371186918.5,1745697774832289.5,5569215682137.629,16277006040927.97,442343945557995.8,1.4354582726253876e+16
4.803380160110075,5238751339109635.0,2.3738114254295064e+16,1203663627109186.5,1755830547314268.5,5840070619602.769,17068693359998.53,463859990312352.2,1.5053099986470064e+16
4.9994477633122765,5267606949233562.0,2.452019376355505e+16,1210293537013740.5,1765501853637911.5,6116864677236.784,17877746426119.277,485848039060742.44,1.5766948773505734e+16
5.199436718578522,5295169964855064.0,2.5316301588416588e+16,1216626458397731.2,1774739931330849.0,6399682106551.676,18704411900203.34,508314795748212.94,1.6496346344078004e+16
5.403425452950093,5321517964583813.0,2.6126794567024684e+16,1222680215842780.2,1783570781797813.8,6688611338111.272,19548948675162.223,531267296814309.56,1.7241520747972716e+16
5.611493962009095,5346722513090169.0,2.695203089562252e+16,1228471252158512.0,1792018390799472.5,6983744841485.335,20411627467451.82,554712900094009.4,1.8002710467171448e+16
5.823723841249277,5370849741009282.0,2.7792370719196388e+16,1234014761622207.2,1800104922814270.2,7285179006126.731,21292730469795.637,578659275381203.0,1.8780164108893492e+16
6.040198318074262,5393960857719005.0,2.8648176666007744e+16,1239324807795438.8,1807850892902092.8,7593014040641.466,22192551057691.617,603114396453808.4,1.957414014603908e+16
6.261002284435747,5416112606075990.0,2.9519814334484228e+16,1244414428004957.0,1815275319114538.2,7907353888289.374,23111393543386.723,628086534388899.6,2.0384906699468172e+16
6.486222330124463,5437357666787099.0,3.0407652739559788e+16,1249295726251683.0,1822395858024860.8,8228306156863.022,24049572971905.74,653584252020758.2,2.1212741357346636e+16
6.715946776726952,5457745018931307.0,3.1312064724425464e+16,1253979956044798.0,1829228925561217.2,8555982061351.823,25007414954481.23,679616399415417.0,2.205793102745687e+16
6.950265712261491,5477320262182964.0,3.2233427342726736e+16,1258477594436210.8,1835789805003639.5,8890496378017.607,25985255535372.676,706192110252631.6,2.292077181893788e+16
7.18927102650672,5496125905483529.0,3.317212221547906e+16,1262798408346280.0,1842092743735870.0,9231967408694.156,26983441088603.367,733320799021041.2,2.3801568950395056e+16
7.433056447036854,5514201626236525.0,3.4128535866340612e+16,1266951514116805.0,1848151040117652.2,9580516954280.459,28002328241609.723,761012158944751.5,2.4700636681728988e+16
7.681717575977592,5531584503534290.0,3.5103060038354364e+16,1270945431097585.5,1853977121653471.8,9936270296533.531,29042283823188.613,789276160570373.4,2.561829826737891e+16
7.935351927497144,5548309228448348.0,3.609609199483278e+16,1274788129963060.0,1859582615473906.0,10299356187381.084,30103684833467.48,818123050952664.1,2.6554885928973984e+16
8.194058966047088,5564408294010587.0,3.710803480668797e+16,1278487076362674.8,1864978412010102.8,10669906845074.162,31186918433912.37,847563353384838.2,2.751074084564084e+16
8.45794014536803,5579912167168936.0,3.8139297628200936e+16,1282049270429681.0,1870174722626800.0,11048057956585.205,32292381955637.977,877607867626369.4,2.8486213160436924e+16
8.72709894827539,5594849444708015.0,3.919029596296071e+16,1285481282605714.2,1875181131880981.5,11433948685731.182,33420482924500.344,908267670587036.1,2.948166200156875e+16
9.0016409272409,5609246994874373.0,4.026145192148179e+16,1288789286180815.0,1880006644989309.2,11827721686564.57,34571639101640.92,939554117430973.2,3.0497455517218096e+16
9.281673745785717,5623130086230621.0,4.135319447181944e+16,1291979086899174.8,1884659731015107.2,12229523121632.15,35746278538311.33,971478843068983.9,3.1533970922945576e+16
9.567307220701432,5636522505077364.0,4.2465959684341016e+16,1295056149938156.8,1889148362223752.5,12639502684748.42,36944839643951.695,1004053764011174.5,3.259159456076185e+16
9.85865336511546,5649446662621795.0,4.3600190971674024e+16,1298025624531532.0,1893480050001500.5,13057813627973.62,38167771266619.63,1037291080555351.0,3.3670721969069224e+16
10.155826432417769,5661923692933130.0,4.47563393247329e+16,1300892366475875.8,1897661877686461.0,13484612792523.857,39415532784971.92,1071203279289575.1,3.47717579627704e+16
10.458942961066125,5673973542605023.0,4.593486354562476e+16,1303660958731531.8,1901700530619997.0,13920060643372.096,40688594211102.375,1105803135889847.5,3.589511672292383e+16
10.768121820287448,5685615052940198.0,4.713623047814708e+16,1306335730305478.5,1905602323691900.2,14364321307328.592,41987436303614.195,1141103718196158.5,3.704122189540241e+16
11.083484256693197,5696866035381207.0,4.836091523651499e+16,1308920773582438.5,1909373226621943.2,14817562614413.654,43312550690390.375,1177118389552177.8,3.821050669807245e+16
11.405153941827061,5707743340831726.0,4.9609401432888664e+16,1311419960252213.2,1913018887193706.5,15279956142359.162,44664440000579.02,1213860812395610.2,3.940341403607249e+16
11.733257020663602,5718262923442365.0,5.088218140421572e+16,1313836955965258.2,1916544652633210.0,15751677264093.105,46043618005376.945,1251344952087799.8,4.062039662481765e+16
12.067922161076874,5728439899374152.0,5.217975643885465e+16,1316175233834208.2,1919955589304131.2,16232905198080.934,47450609767243.42,1289585080972615.2,4.186191712040429e+16
12.409280604298411,5738288600997860.0,5.350263700340023e+16,1318438086886857.2,1923256500873444.2,16723823061411.93,48885951797219.87,1328595782655823.8,4.312844825712759e+16
12.75746621638438,5747822626940980.0,5.485134297009526e+16,1320628639564981.0,1926451945085186.2,17224617925532.598,50350192220074.68,1368391956497288.2,4.442047299186122e+16
13.112615540712067,5757054888350559.0,5.6226403845181576e+16,1322749858353813.0,1929546249266070.8,17735480874542.58,51843890947027.55,1408988822309392.0,4.573848465508017e+16
13.474867851526309,5765997651704203.0,5.762835899851191e+16,1324804561618307.2,1932543524674073.2,18256607065978.223,53367619855840.49,1450401925255813.8,4.708298710833769e+16
13.844365208556836,5774662578467482.0,5.905775789472085e+16,1326795428714928.0,1935447679790083.2,18788195794020.03,54921962978091.22,1492647140945743.2,4.845449490803048e+16
14.221252512727972,5783060761867137.0,6.051516032623032e+16,1328725008440700.0,1938262432642910.5,19330450555069.28,56507516693472.14,1535740680719217.8,4.985353347531186e+16
14.605677562982532,5791202761023164.0,6.200113664834609e+16,1330595726875451.2,1940991322249051.0,19883579115645.0,58124889930981.7,1579699097120018.5,5.12806392720318e+16
14.997791114242183,5799098632659784.0,6.351626801668459e+16,1332409894667778.2,1943637719241003.5,20447793582563.684,59774704376895.36,1624539289553019.8,5.273635998260356e+16
15.397746936527026,5806757960594082.0,6.506114662715379e+16,1334169713810405.8,1946204835750741.0,21023310475366.824,61457594689421.95,1670278510123480.2,5.422125470171037e+16
15.805701875257567,5814189883183076.0,6.66363759587003e+16,1335877283946445.2,1948695734608917.8,21610350800969.066,63174208719974.87,1716934369656337.0,5.573589412778458e+16
16.221815912762718,5821403118892775.0,6.824257101902046e+16,1337534608244218.2,1951113337914670.0,22209140130506.562,64925207740991.97,1764524843893746.8,5.7280860762203544e+16
16.64625223101797,5828405990138365.0,6.988035859342801e+16,1339143598874779.5,1953460435025910.8,22819908678365.957,66711266680267.516,1813068279869825.0,5.885674911416053e+16
17.079177275638333,5835206445530865.0,7.1550377497055e+16,1340706082123363.5,1955739690015581.0,23442891383384.34,68533074361756.984,1862583402461637.8,6.046416591117843e+16
17.5207608211511,5841812080653721.0,7.325327883056205e+16,1342223803163038.0,1957953648635193.5,24078327992209.645,70391333752843.17,1913089321116000.2,6.210373031524904e+16
17.97117603757412,5848230157482039.0,7.498972623952176e+16,1343698430516508.5,1960104744823385.5,24726463144818.01,72286762218050.4,1964605536751838.8,6.377607414458496e+16
18.430599558325603,5854467622547204.0,7.676039617763522e+16,1345131560229624.5,1962195306794023.8,25387546462186.984,74220091779211.58,2017151948838264.8,6.548184210098466e+16
18.899211549492115,5860531123940705.0,7.856597817393848e+16,1346524719778242.2,1964227562735261.2,26061832636125.773,76192069382101.12,2070748862648619.8,6.7221692002817464e+16
19.37719578048196,5866427027243554.0,8.040717510414574e+16,1347879371728158.0,1966203646148451.8,26749581521268.934,78203457169555.17,2125416996691136.2,6.8996295023643496e+16
19.864739696091597,5872161430459666.0,8.228470346627693e+16,1349196917166241.5,1968125600853252.2,27451058229239.75,80255032761102.36,2181177490317004.8,7.080633593649049e+16
20.36203449001343,5877740178025665.0,8.419929366071445e+16,1350478698919350.5,1969995385683185.0,28166533224994.918,82347589539152.81,2238051911506867.5,7.265251336381517e+16
20.869275179813698,5883168873963359.0,8.6151690274824e+16,1351726004576251.8,1971814878893846.2,28896282425362.203,84481936941779.9,2296062264836922.5,7.453554003318635e+16
21.38666068340997,5888452894235685.0,8.814265237228189e+16,1352940069326568.0,1973585882304164.5,29640587299786.332,86658900762149.62,2355230999626068.0,7.64561430387274e+16
21.91439389707817,5893597398362322.0,9.017295378724062e+16,1354122078629561.2,1975310125189478.2,30399734973300.13,88879323454655.4,2415581018265664.5,7.841506410836565e+16
22.452681775019734,5898607340346321.0,9.22433834234673e+16,1355273170724697.2,1976989267943764.2,31174018331739.0,91144064447818.28,2477135684733584.5,8.041305987693938e+16
23.00173541052013,5903487478959313.0,9.435474555858752e+16,1356394438994751.2,1978624905526826.5,31963736129220.465,93454000464025.11,2539918833294411.0,8.24509021652189e+16
23.561770118730532,5908242387429115.0,9.650786015356358e+16,1357486934191664.5,1980218570711221.8,32769193097909.79,95810025846173.27,2603954777388003.5,8.452937826489931e+16
24.133005521105144,5912876462570016.0,9.870356316753962e+16,1358551666534330.0,1981771737142380.8,33590700060096.676,98213052891308.11,2669268318708270.5,8.664929122963318e+16
24.715665631527248,5917393933393103.0,1.0094270687818056e+17,1359589607686929.8,1983285822224473.2,34428574042607.69,100664012191327.14,2735884756474744.0,8.881146017216744e+16
25.309978944157795,5921798869231194.0,1.0322616020763504e+17,1360601692625705.5,1984762189843568.0,35283138393581.56,103163852980850.16,2803829896899176.0,9.101672056766104e+16
25.91617852304095,5926095187410076.0,1.0555480905425045e+17,1361588821401531.0,1986202152938745.8,36154722901636.01,105713543492338.62,2873130062849789.5,9.32659245632563e+16
26.53450209350177,5930286660495841.0,1.0792955663016742e+17,1362551860805064.8,1987606975931105.8,37043663917454.305,108314071318564.92,2943812103715790.5,9.555994129398362e+16
27.165192135371807,5934376923145282.0,1.103513238049259e+17,1363491645940714.8,1988977877019816.0,37950304477823.984,110966443782537.36,3015903405474940.5,9.789965720508474e+16
27.808495978079243,5938369478585256.0,1.1282104945520597e+17,1364408981715339.8,1990316030353693.5,38874994432158.6,113671688314971.72,3089431900967002.0,1.0028597638083766e+17
28.464665897640828,5942267704743945.0,1.1533969082083752e+17,1365304644246985.5,1991622568086197.0,39818090571535.81,116430852839436.81,3164426080376108.5,1.0271982087997346e+17
29.133959215593645,5946074860056381.0,1.1790822386720504e+17,1366179382198753.0,1992898582321210.8,40779956760286.16,119245006165268.02,3240915001925069.5,1.0520213107777797e+17
29.816638399905518,5949794088964183.0,1.2052764365417915e+17,1367033918042446.2,1994145126956350.2,41760964070167.59,122115238388379.67,3318928302784790.0,1.0773386601497298e+17
30.51297116790363,5953428427128497.0,1.2319896471170608e+17,1367868949256309.8,1995363219430151.2,42761490917162.125,125042661300084.42,3398496210202143.5,1.1031600375347157e+17
31.223230591261704,5956980806373832.0,1.259232214221826e+17,1368685149460903.8,1996553842379032.8,43781923200932.37,128028408804049.36,3479649552849514.5,1.1294954173911435e+17
31.947695203086937,5960454059378865.0,1.2870146840975589e+17,1369483169496893.8,1997717945209500.5,44822654446974.484,131073637341510.08,3562419772399614.5,1.1563549717148246e+17
32.686649107148675,5963850924129681.0,1.3153478093667366e+17,1370263638448230.0,1998856445590693.0,45884085951508.99,134179526324877.8,3646838935329046.0,1.1837490738089941e+17
33.44038208929165,5967174048149600.0,1.3442425530682422e+17,1371027164613993.2,1999970230872050.2,46966626929147.61,137347278579864.16,3732939744954196.0,1.2116883021272512e+17
34.20918973107749,5970425992518664.0,1.373710092765994e+17,1371774336431929.8,2001060159430518.5,48070694663377.75,140578120796267.67,3820755553703289.0,1.240183444190554e+17
34.993373525699035,5973609235695410.0,1.40376182473217e+17,1372505723356532.0,2002127061951444.5,49196714659906.52,143873303987552.53,3910320375628282.0,1.269245500579378e+17
35.793240996213015,5976726177152336.0,1.4344093682063931e+17,1373221876694339.5,2003171742647045.0,50345120802906.26,147234103959370.1,4001668899160587.0,1.2988856890022272e+17
36.60910581613728,5979779140835767.0,1.46566456973228e+17,1373923330398884.8,2004194980416030.2,51516355514204.89,150661821787157.2,4094836500114464.0,1.329115448441613e+17
37.44128793246003,5982770378460441.0,1.4975395075727328e+17,1374610601827650.0,2005197529947820.2,52710869915466.875,154157784302971.5,4189859254942367.0,1.359946443378769e+17
38.29011369110923,5985702072648005.0,1.5300464962054144e+17,1375284192463188.5,2006180122774446.5,53929123993406.39,157723344591700.72,4286773954245987.5,1.3913905680982506e+17
39.15591596493141,5988576339918426.0,1.5631980908997626e+17,1375944588600427.5,2007143468273183.0,55171586768081.805,161359882496814.7,4385618116547680.0,1.4234599510737157e+17
40.03903428423004,5991395233542614.0,1.5970070923770602e+17,1376592262002090.5,2008088254622589.0,56438736464314.65,165068805135801.47,4486430002326170.5,1.456166959436125e+17
40.93981496991464,5994160746263751.0,1.6314865515549846e+17,1377227670523959.5,2009015149714655.2,57731060686283.03,168851547425455.9,4589248628321065.0,1.4895242035256323e+17
41.85861126931294,5996874812895093.0,1.6666497743780438e+17,1377851258711737.2,2009924802025424.8,59049056595334.91,172709572617184.1,4694113782110743.0,1.5235445415284896e+17
42.7957834946992,5999539312800446.0,1.702510326735457e+17,1378463458370985.5,2010817841446412.2,60393231091069.69,176644372842478.62,4801066036967800.0,1.558241084200265e+17
