t(s),Total solute volume 1,Total retention volume 1,Total 1 volume 1,Total 2 volume 1,Total 3 volume 1,Total 4 volume 1,Total 5 volume 1,Total 6 volume 1
0.1,1012905215437994.5,1251976985692815.0,109237715628389.53,129834054626431.92,0.0,0.0,0.0,0.0
0.202,1525691617296802.2,1885905144797897.0,164539647991090.25,195562949404626.44,122421256.76680116,261063181.72473142,4427283794.51558,106119337145.76385
0.30604000000000003,1916284056948556.5,2368858009755569.5,206663457222550.5,245629036894692.2,310594378.4263849,662342369.6805345,11232535982.283892,269253217038.6618
0.41216080000000005,2246649406562972.5,2777416592609070.0,242292019224143.38,287975223791401.0,551680874.249145,1176459396.1342282,19951412956.972965,478263477324.4959
0.5204040160000001,2540014162356144.0,3140284275241100.0,273930217360006.84,325578679421927.4,839980461.2031006,1791258400.8022807,30377758576.829517,728207105584.2618
0.6308120963200001,2807952603827589.5,3471764393448817.5,302826290699427.06,359922993428798.44,1172434374.7339582,2500216570.3590603,42400950832.25786,1016431891223.626
0.7434283382464002,3057192289593063.5,3780170797347044.0,329705779133570.8,391870503394722.06,1547292792.8711462,3299602414.237724,55957706624.70039,1341420623852.6548
0.8582969050113283,3292043095485877.0,4070829708847929.0,355033485277854.44,421973648637745.3,1963567309.1989768,4187308161.859423,71012279854.80693,1702316291127.4395
0.9754628431115548,3515458401161491.5,4347391131172890.5,379127919140577.3,450610992973263.4,2420761161.1341743,5162274473.987973,87546704926.46832,2098688156998.5957
1.094972099973786,3729564787999475.5,4612483433719814.0,402218423891810.56,478055121322159.0,2918719830.5528035,6224171848.396513,105555393633.25946,2530402221058.355
1.2168715419732616,3935952848859422.5,4868072719061314.0,424476538515269.8,504509915667308.0,3457541270.8839593,7373209179.078545,125041888479.65434,2997543380379.7725
1.3412089728127268,4135848711676049.0,5115674778623832.0,446034495931855.7,530132540925511.6,4037518631.2768536,8610011615.514303,146016791278.0863,3500365768894.953
1.4680331522689813,4330221039954756.0,5356487313402745.0,466996762568806.9,555047160256955.0,4659102015.495477,9935539013.517021,168496380146.40768,4039259601051.668
1.597393815314361,4519850861961650.0,5591476220676937.0,487447569154412.94,579353885761601.2,5322872038.365921,11351029544.37302,192501653168.95554,4614728244524.734
1.729341691620648,4705378864660627.0,5821434033506093.0,507456011177160.0,603134840609823.0,6029521035.892968,12857959625.440157,218057648855.5226,5227371928961.97
1.863928525453061,4887338436437048.0,6047020750033877.0,527079612409367.94,626458394454353.2,6779839432.050071,14458014847.357113,245192953093.23093,5877875925733.351
2.001207095962122,5066179371384177.0,6268793123492987.0,546366881318263.56,649382201842612.0,7574705692.749065,16153068550.918644,273939335829.931,6567001837861.26
2.1412312378813647,5242285265848706.0,6487226158004246.0,565359187212802.5,671955432103606.8,8415078844.83747,17945165873.87483,304331480522.5965,7295581113886.585
2.284055862638992,5415986541155655.0,6702729199923429.0,584092164691694.2,694220438599093.9,9301992873.984348,19836511804.46384,336406781536.2799,8064510190765.732
2.4297369798917723,5587570363271442.0,6915658194997990.0,602596783438798.6,716214030224674.1,10236552528.699339,21829462233.526108,370205192396.25806,8874746855906.42
2.578331719489608,5757288316113923.0,7126325169945861.0,620900175758462.1,737968454973682.5,11219930197.276031,23926517294.633163,405769112842.80176,9727307539442.268
2.7298983538794,5925362419318313.0,7335005668494221.0,639026285567156.9,759512171293590.9,12253363618.089827,26130316481.346752,443143306024.4225,10623265329033.645
2.884496320956988,6091989906197889.0,7541944655583579.0,656996383677137.1,780870460524422.0,13338154247.95829,28443635167.80001,482374839490.15265,11563748555214.264
3.0421862473761276,6257347059779410.0,7747361257805956.0,674829481497299.1,802065918601229.4,14475666158.299755,30869382254.81073,523513045269.79724,12549939834341.914
3.2030299723236504,6421592323849480.0,7951452608127660.0,692542666546895.6,823118854827630.4,15667325360.946314,33410598732.235973,566609495492.7762,13583075484061.277
3.3670905717701234,6584868849347234.0,8154396993006678.0,710151377073660.5,844047618272074.6,16914619488.759432,36070456997.94607,611717990838.5173,14664445246381.545
3.5344323832055258,6747306596206483.0,8356356450303771.0,727669628728932.2,864868867181686.5,18219097773.34039,38852260810.35709,658894559731.4059,15795392268336.215
3.7051210308696363,6909024081724832.0,8557478930520029.0,745110203122195.6,885597793088000.6,19582371274.9201,41759445778.73897,708197466655.8907,16977313301282.057
3.879223451487029,7070129845308428.0,8757900107664234.0,762484805787832.8,906248308557746.4,21006113329.17675,44795580316.125465,759687228316.8923,18211659088274.402
4.0568079205167695,7230723683718710.0,8957744906625984.0,779804199401489.9,926833205526607.1,22492060183.11585,47964366995.40514,813426636637.7565,19499934915360.168
4.237944078927105,7390897699168249.0,9157128799376646.0,797078316812942.9,947364289644013.9,24042011797.85607,51269644261.340225,869480787794.4376,20843701307576.22
4.422702960505647,7550737193692582.0,9356158911298812.0,814316357500476.1,967852494913591.5,25657832800.611988,54715388460.75447,927917116645.4902,22244574854303.227
4.61115701971576,7710321436402431.0,9554934970515300.0,831526870315933.2,988307982039486.4,27341453571.677513,58305716160.61318,988805436044.463,23704229151662.637
4.803380160110075,7869724324955110.0,9753550126581300.0,848717824821686.2,1008740223213625.6,29094871454.996235,62044886729.657776,1052217980621.911,25224395852065.23
4.9994477633122765,8029014958481855.0,9952091659838850.0,865896673078574.8,1029158075553523.4,30920152083.14164,65937305164.02214,1118229454705.1323,26806865812950.82
5.199436718578522,8188258135991670.0,1.0150641598754332e+16,883070403396694.0,1049569844987584.8,32819430809.331184,69987525141.10739,1186917084108.9158,28453490338327.64
5.403425452950093,8347514791725036.0,1.0349277259416384e+16,900245587286545.5,1069983342058699.8,34794914240.57129,74200252289.12032,1258360671583.7656,30166182507990.71
5.611493962009095,8506842376904824.0,1.0548071718866796e+16,917428420629316.6,1090405930857014.5,36848881867.23048,78580347662.25217,1332642655751.5845,31946918590344.66
5.823723841249277,8666295195705699.0,1.0747094231928186e+16,934624759909824.5,1110844572084466.1,38983687785.33837,83132831413.60072,1409848173394.9124,33797739535617.656
6.040198318074262,8825924701952299.0,1.0946410599573112e+16,951840154214199.4,1131305861085486.5,41201762508.732925,87862886659.70015,1490065124995.6018,35720752546975.875
6.261002284435747,8985779761991386.0,1.114608349556243e+16,969079873579595.1,1151796061541947.2,43505614868.87563,92775863532.00987,1573384243444.211,37718132727644.85
6.486222330124463,9145906888314964.0,1.1346172757009298e+16,986348934189471.6,1172321135418925.8,45897834000.73924,97877283411.95897,1659899165862.2896,39792124802656.055
6.715946776726952,9306350447797608.0,1.1546735643642842e+16,1003652120831168.2,1192886769656538.0,48381091413.67386,103172843347.21436,1749706508498.0344,41945044914269.27
6.950265712261491,9467152834048716.0,1.1747827070382214e+16,1020994005489149.8,1213498398288508.8,50958143086.424706,108668420728.23108,1842906033493.0261,44179299958532.02
7.18927102650672,9628354689411402.0,1.1949499813801318e+16,1038378971263546.0,1234161230791745.5,53631831945.17671,114370077742.45645,1939600376561.1067,46497320048386.49
7.433056447036854,9789994971859418.0,1.2151804701280278e+16,1055811219619540.1,1254880260820987.0,56405089830.8545,120284066808.46352,2039895658049.1196,48901664165655.195
7.681717575977592,9952111145434550.0,1.235479077938188e+16,1073294790901969.1,1275660290512156.8,59280940142.51047,126416835391.8491,2143901220559.1355,51394953537120.37
7.935351927497144,1.0114739288166152e+16,1.2558505466703586e+16,1090833575979853.9,1296505944342289.8,62262500271.08427,132775031399.64369,2251729805982.6904,53979890877625.836
8.194058966047088,1.0277914202286578e+16,1.276299469244444e+16,1108431328132689.0,1317421683256915.8,65352984177.45579,139365508678.20483,2363497648740.7495,56659262626707.76
8.45794014536803,1.0441669514144562e+16,1.2968303022315984e+16,1126091673825700.5,1338411817476995.0,68555705057.10708,146195332695.82016,2479324572155.3306,59435941258842.01
8.72709894827539,1.0606037764958946e+16,1.3174473773210128e+16,1143818122497257.0,1359480518131641.8,71874078092.53659,153271786412.44977,2599334087994.652,62312887669772.32
9.0016409272409,1.0771050493408608e+16,1.3381549117857952e+16,1161614075465848.0,1380631827844554.8,75311623294.72609,160602376339.38232,2723653499239.2783,65293153640047.98
9.281673745785717,1.0936738310929132e+16,1.3589570180555566e+16,1179482834050555.5,1401869670385499.2,78871968435.11696,168194838791.919,2852414006121.667,68379884377033.8
9.567307220701432,1.1103130970479134e+16,1.3798577124901792e+16,1197427606987200.0,1423197859484781.8,82558852069.68323,176057146338.46426,2985750815496.6396,71576321136770.58
9.85865336511546,1.127025742944633e+16,1.4008609234377262e+16,1215451517212506.0,1444620106896533.2,86376126656.82248,184197514449.69565,3123803253605.0977,74885803927174.64
10.155826432417769,1.1438145907283116e+16,1.4219704986495978e+16,1233557608079865.0,1466140029786429.0,90327761770.90277,192624408351.73267,3266714882297.2466,78311774294173.39
10.458942961066125,1.1606823938392624e+16,1.4431902121174944e+16,1251748849062904.5,1487761157510643.5,94417847413.41351,201346550087.4667,3414633618786.1567,81857778192465.22
10.768121820287448,1.1776318420726654e+16,1.4645237703893176e+16,1270028140996538.0,1509486937845064.5,98650597423.7847,210372925790.43826,3567711859005.912,85527468942692.9
11.083484256693197,1.194665566050272e+16,1.4859748184147198e+16,1288398320899553.5,1531320742717199.5,103030352992.03395,219712793175.8862,3726106604652.732,89324610276902.83
11.405153941827061,1.211786141340496e+16,1.5075469449653904e+16,1306862166417938.0,1553265873487231.0,107561586275.49954,229375689253.77847,3889979593990.8223,93253079474250.05
11.733257020663602,1.2289960922590798e+16,1.5292436876702188e+16,1325422399923759.8,1575325565819740.5,112248904122.02155,239371438268.8518,4059497436507.9937,97316870588994.55
12.067922161076874,1.2462978953792294e+16,1.5510685377012192e+16,1344081692300696.5,1597502994183007.0,117097051902.01895,249710159872.90015,4234831751510.0894,101520097772912.75
12.409280604298411,1.2636939827770072e+16,1.5730249441423128e+16,1362842666444066.5,1619801276008908.5,122110917452.00183,260402277534.7108,4416159310745.643,105866998694324.77
12.75746621638438,1.281186745035004e+16,1.5951163180696732e+16,1381707900500151.8,1642223475543055.5,127295535132.15034,271458527193.27158,4603662185156.322,110361938056021.67
13.112615540712067,1.2987785340250196e+16,1.6173460363695508e+16,1400679930867236.2,1664772607411622.0,132656090000.67482,282889966160.0379,4797527895851.026,115009411214442.98
13.474867851526309,1.3164716654883554e+16,1.6397174453166924e+16,1419761254978313.5,1687451639928747.0,138197922107.7683,294707982276.2439,4997949569405.527,119814047902544.5
13.844365208556836,1.334268421430419e+16,1.6622338639344424e+16,1438954333883591.0,1710263498165959.8,143926530912.0304,306924303331.4177,5205126097591.697,124780616058851.44
14.221252512727972,1.3521710523447544e+16,1.6848985871552958e+16,1458261594649005.8,1733211066802912.5,149847579822.3428,319551006749.4441,5419262301644.265,129914025765281.86
14.605677562982532,1.3701817792800726e+16,1.7077148887991078e+16,1477685432585445.2,1756297192776915.0,155966900868.25818,332600529548.6988,5640569101175.606,135219333296393.94
14.997791114242183,1.3883027957626202e+16,1.7306860243843844e+16,1497228213321931.5,1779524687747013.0,162290499502.03696,346085678582.9641,5869263687852.148,140701745282774.97
15.397746936527026,1.4065362695849828e+16,1.753815233786742e+16,1516892274734780.5,1802896330386893.0,168824559535.5635,360019641069.9923,6105569703949.287,146366622991377.97
15.805701875257567,1.424884344471485e+16,1.7771057437573258e+16,1536679928743646.5,1826414868519554.0,175575448215.45392,374415995414.79376,6349717425904.485,152219486725670.34
16.221815912762718,1.4433491416292354e+16,1.800560770312749e+16,1556593462984323.0,1850083021105486.8,182549721439.74353,389288722334.8864,6601943952991.268,158266020348541.12
16.64625223101797,1.4619327611932656e+16,1.824183521007249e+16,1576635142367180.5,1873903480095000.2,189754129119.64075,404652216294.91327,6862493401240.087,164512075930980.38
17.079177275638333,1.4806372835732304e+16,1.847977197096664e+16,1596807210529590.2,1897878912154449.5,197195620689.9006,420521297258.2462,7131617102734.738,170963678529622.06
17.5207608211511,1.4994647707086186e+16,1.871944995603119e+16,1617111891189607.5,1922011960275154.8,204881350771.4754,436911222763.3333,7409573810416.487,177627031096311.22
17.97117603757412,1.5184172672387488e+16,1.896090111288512e+16,1637551389407736.0,1946305245273100.5,212818684990.1618,453837700332.77783,7696629908530.676,184508519522930.0
18.430599558325603,1.5374968015932768e+16,1.920415738544234e+16,1658127892763032.8,1970761367186747.2,221015205955.0727,471316900223.2542,7993059628853.924,191614717824795.22
18.899211549492115,1.5567053870084496e+16,1.944925073203999e+16,1678843572449070.8,1995382906579664.5,229478719400.82864,489365468524.61615,8299145272843.211,198952393466007.47
19.37719578048196,1.5760450224739234e+16,1.9696213142859696e+16,1699700584295064.2,2020172425754170.0,238217260497.45737,508000540616.67773,8615177439850.91,206528512830206.47
19.864739696091597,1.5955176936145162e+16,1.9945076656700644e+16,1720701069716776.8,2045132469881530.0,247239100332.0789,527239754992.3755,8941455261553.225,214350246840273.66
20.36203449001343,1.6151253735108646e+16,2.0195873377157524e+16,1741847156601588.5,2070265568053914.5,256552752566.52728,547101267456.16895,9278286642742.44,222424976730576.97
20.869275179813698,1.6348700234627592e+16,2.0448635488252176e+16,1763140960131721.0,2095574234262806.2,266166980275.1676,567603765706.7538,9625988508636.639,230760299975447.5
21.38666068340997,1.6547535936984402e+16,2.0703395269565556e+16,1784584583549175.0,2121060968308203.2,276090802967.22974,588766484313.3042,9984887058863.709,239364036377641.0
21.91439389707817,1.6747780240330196e+16,2.0960185110911348e+16,1806180118865803.0,2146728256642565.2,286333503798.08496,610609220094.7037,10355318028279.33,248244234320611.44
22.452681775019734,1.6949452444788224e+16,2.1219037526591172e+16,1827929647521572.0,2172578573153145.8,296904636973.97003,633152347911.3644,10737626954782.17,257409177188516.16
23.00173541052013,1.7152571758103106e+16,2.1479985169267424e+16,1849835240993764.8,2198614379886124.8,307814035354.75867,656416836879.413,11132169454292.291,266867389957913.84
23.561770118730532,1.7357157300859406e+16,2.1743060843488336e+16,1871898961359838.2,2224838127715525.5,319071818259.45026,680424267017.2885,11539311503062.557,276627645965238.88
24.133005521105144,1.7563228111292452e+16,2.2008297518895904e+16,1894122861816173.5,2251252256959834.0,330688399479.162,705196846334.8556,11959429727494.863,286698973854155.8
24.715665631527248,1.7770803149710576e+16,2.2275728343147108e+16,1916508987155086.8,2277859197948888.5,342674495502.4671,730757428375.4474,12392911701637.799,297090664707027.7
25.309978944157795,1.7979901302548678e+16,2.2545386654575524e+16,1939059374201913.8,2304661371543435.0,355041133958.0247,757129530221.3525,12840156252543.312,307812279364759.06
25.91617852304095,1.819054138606978e+16,2.2817305994619884e+16,1961776052214244.2,2331661189609579.5,367799662279.53827,784337350973.4922,13301573773665.8,318873655939378.44
26.53450209350177,1.840274214973001e+16,2.3091520120042584e+16,1984661043244828.8,2358861055450149.5,380961756598.1523,812405790716.196,13777586546487.51,330284917523801.6
27.165192135371807,1.8616522279222692e+16,2.3368063014962116e+16,2007716362469854.5,2386263364194873.5,394539430867.4929,841360469978.1609,14268629070558.611,342056480103249.25
27.808495978079243,1.88319003992141e+16,2.364696890271999e+16,2030944018483963.0,2413870503150997.5,408545046226.63336,871227749700.8932,14775148402144.012,354199060672922.3
28.464665897640828,1.9048895075782732e+16,2.3928272257602704e+16,2054346013563385.0,2441684852116043.0,422991320606.3582,902034751726.0801,15297604501669.8,366723685566560.0
29.133959215593645,1.926752481857529e+16,2.421200781643689e+16,2077924343898367.5,2469708783654068.0,437891338584.1776,933809379813.4929,15836470590167.396,379641699000606.25
29.816638399905518,1.9487808082686932e+16,2.4498210590076104e+16,2101680999796034.0,2497944663336762.5,453258561493.6209,966580341201.278,16392233514915.408,392964771838765.75
30.51297116790363,1.9709763270277624e+16,2.478691587479554e+16,2125617965854632.8,2526394849950550.0,469106837793.41797,1000377168720.5463,16965394124481.383,406704910581779.75
31.223230591261704,1.993340873193113e+16,2.5078159263610016e+16,2149737221110140.8,2555061695670845.0,485450413702.25934,1035230243476.4104,17556467653369.93,420874466587356.8
31.947695203086937,2.0158762767765404e+16,2.5371976657529656e+16,2174040739156002.0,2583947546204357.0,502303944104.8739,1071170818107.7603,18165984116484.574,435486145525201.8
32.686649107148675,2.038584362829999e+16,2.5668404276767084e+16,2198530488236662.5,2613054740900258.0,519682503735.2673,1108231040638.1792,18794488713613.973,450553017072186.6
33.44038208929165,2.0614669515086624e+16,2.5967478671907708e+16,2223208431315600.0,2642385612831048.5,537601598642.9794,1146443978930.5347,19442542244156.027,466088524852717.25
34.20918973107749,2.084525858110749e+16,2.6269236735054716e+16,2248076526118259.2,2671942488843562.5,556077177948.3192,1185843645757.9355,20110721532292.6,482106496629423.9
34.993373525699035,2.10776289309443e+16,2.657371571095789e+16,2273136725150294.0,2701727689580711.5,575125645892.5377,1226465024503.8281,20799619862833.676,498621154749329.3
35.793240996213015,2.1311798620721508e+16,2.688095320813535e+16,2298390975691411.5,2731743529474097.0,594763874188.9738,1268344095504.0054,21509847427945.805,515647126850659.3
36.60910581613728,2.1547785657822864e+16,2.7190987209993756e+16,2323841219764881.0,2761992316707774.5,615009214681.1901,1311517863043.4775,22242031784985.31,533199456835508.6
37.44128793246003,2.1785608000383092e+16,2.7503856085953292e+16,2349489394082610.0,2792476353153041.0,635879512314.1594,1356024383021.0461,22996818325653.24,551293616113547.2
38.29011369110923,2.202528355655053e+16,2.781959860257856e+16,2375337429965707.0,2823197934273942.0,657393118424.5334,1401902791294.522,23774870756690.863,569945515121947.5
39.15591596493141,2.2266830183517852e+16,2.813825393471688e+16,2401387253239900.5,2854159349003030.5,679568904355.9758,1449193332719.295,24576871592332.223,589171515126698.1
40.03903428423004,2.2510265686314148e+16,2.8459861676641404e+16,2427640784105306.0,2885362879586518.0,702426275405.5157,1497937390893.003,25403522658728.64,608988440310376.2
40.93981496991464,2.2755607816349532e+16,2.8784461853192356e+16,2454099936979417.5,2916810801397716.0,725985185106.7443,1548177518618.7031,26255545610555.613,629413590151406.0
41.85861126931294,2.3002874269700332e+16,2.9112094930908476e+16,2480766620312232.0,2948505382717267.5,750266149855.5917,1599957469098.7998,27133682460009.637,650464752099678.6
42.7957834946992,2.3252082685120324e+16,2.9442801829133644e+16,2507642736371717.0,2980448884478186.5,775290263884.201,1653322227871.5103,28038696118393.863,672160214553301.2
43.751699164593184,2.3503250641758828e+16,2.9776623931081444e+16,2534730180997742.0,3012643559973381.5,801079214588.2372,1708318045501.2214,28971370950486.41,694518780140969.6
