t(s),Total solute volume 1,Total retention volume 1,Total 1 volume 1,Total 2 volume 1,Total 3 volume 1,Total 4 volume 1,Total 5 volume 1,Total 6 volume 1
0.1,839524706393360.9,941664656952722.2,50673114377222.37,51466836182138.266,0.0,0.0,0.0,0.0
0.202,1215922357599509.5,1459830379052711.5,73392209085136.56,74541793221170.23,243186934688.3821,407310941010.75775,4806563403526.966,90516957867668.08
0.30604000000000003,1471047164227117.2,1884526804677929.2,88791361059540.12,90182150962145.86,594171801048.4357,995313290361.8923,11745547134599.945,221171096203116.0
0.41216080000000005,1664159876473033.8,2268487958567843.5,100447507097157.67,102020873911636.69,1018134101771.9697,1705752017270.6316,20129545925242.27,379006269041736.75
0.5204040160000001,1818381251993393.0,2630869002922248.5,109756199696979.05,111475373914268.08,1497886850804.8762,2509887816422.0024,29619452208106.0,557628950442284.2
0.6308120963200001,1945616960600327.0,2980953821819489.0,117436056625675.9,119275524859449.84,2023107303867.2068,3390469877142.931,40011724939225.88,753199977613805.1
0.7434283382464002,2052958215488581.0,3324008502476606.0,123915098470619.19,125856051666214.16,2586976562836.131,4336111492604.069,51172020393685.836,963184028402061.6
0.8582969050113283,2145024721954820.2,3663338705281128.5,129472167359353.38,131500164125939.23,3184733230193.805,5338869558712.258,63006629973837.62,1185811419078279.2
0.9754628431115548,2225014424440766.2,4001174746115823.0,134300288944937.94,136403911362926.23,3812932289624.2407,6393004424573.773,75447846429351.94,1419802338223643.0
1.094972099973786,2295240310115383.5,4339106547495598.0,138539073488570.81,140709090433771.95,4469021369064.848,7494270907319.883,88445597888305.38,1664209183293183.0
1.2168715419732616,2357431807162251.5,4678318681829070.0,142292908045953.38,144521723468364.44,5151079574249.754,8639481361292.877,101962292147400.27,1918319390069549.8
1.3412089728127268,2412916203754650.5,5019726803151025.0,145641906787654.5,147923179511385.28,5857647485434.955,9826221295254.125,115969461030278.31,2181592183286368.2
1.4680331522689813,2462733878212914.0,5364061396741342.0,148648866209489.8,150977238676120.3,6587611803880.729,11052656433293.178,130445483778425.0,2453615661627227.0
1.597393815314361,2507714683099381.5,5711921559303771.0,151363875622186.12,153734774850864.25,7340124479701.289,12317397470178.793,145373991232759.8,2734076712548714.0
1.729341691620648,2548530369214418.0,6063810841039013.0,153827481426518.4,156236969537901.66,8114544494305.44,13619402731625.922,160742717290067.8,3022739356344166.5
1.863928525453061,2585731616766875.0,6420161889752579.0,156072922288426.22,158517582039452.94,8910395023688.787,14957906569073.629,176542654024392.5,3319428813040671.0
2.001207095962122,2619774835984842.0,6781353852707008.0,158127746804827.2,160604592461910.94,9727331331949.486,16332365707915.637,192767418657742.38,3624019561757821.0
2.1412312378813647,2651041969895148.0,7147724950841129.0,160015008785312.22,162521415719912.6,10565116324130.582,17742418411425.52,209412771755347.5,3936426249949867.0
2.284055862638992,2679855391132807.5,7519581749762285.0,161754166412969.12,164287814781239.2,11423601674706.812,19187852974422.707,226476245511839.4,4256596677274299.5
2.4297369798917723,2706489285130387.5,7897206118415324.0,163361769325601.9,165920598510174.97,12302713084592.332,20668583125774.285,243956853562192.88,4584506315676618.0
2.578331719489608,2731178469451696.5,8280860536224552.0,164851990944443.66,167434162334393.6,13202438641168.82,22184628624236.766,261854862075036.34,4920153984153572.0
2.7298983538794,2754125311223105.5,8670792199433413.0,166237046005390.3,168840912316220.12,14122819541669.092,23736099810360.387,280171607528795.44,5263558403007883.0
2.884496320956988,2775505212881677.5,9067236240323156.0,167527521674862.53,170151601454949.88,15063942638026.213,25323185208050.89,298909350475412.6,5614755425990157.0
3.0421862473761276,2795471005968269.0,9470418281584600.0,168732642756028.34,171375599047149.7,16025934400623.27,26946141502475.145,318071157346810.9,5973795800563230.0
3.2030299723236504,2814156502170379.0,9880556485926430.0,169860486027229.7,172521108382388.56,17008955998122.055,28605285387858.277,337660804328186.9,6340743343632245.0
3.3670905717701234,2831679386937617.0,1.0297863217922702e+16,170918154898551.94,173595344135553.12,18013199262984.766,30300986899904.71,357682698752186.94,6715673447035901.0
3.5344323832055258,2848143595206808.0,1.0722546404771048e+16,171911922808903.25,174604678010038.3,19038883365600.754,32033663936733.883,378141814520087.5,7098671846922872.0
3.7051210308696363,2863641275494694.0,1.1154810660955982e+16,172847351777254.75,175554759145922.44,20086252059609.434,33803777738605.426,399043638839377.56,7489833605900507.0
3.879223451487029,2878254424115396.5,1.1594858226110544e+16,173729391042843.56,176450614305228.7,21155571390869.086,35611829146661.805,420394128156631.25,7889262267952916.0
4.0568079205167695,2892056253029063.5,1.2042889753850858e+16,174562459627547.34,177296731727521.84,22247127785221.37,37458355498888.35,442199671612569.06,8297069154570051.0
4.237944078927105,2905112341086167.0,1.2499104980810856e+16,175350515824165.3,178097131706624.53,23361226447605.117,39343928050612.984,464467060689910.5,8713372777005776.0
4.422702960505647,2917481607980955.0,1.2963703298694742e+16,176097115983564.34,178855426298578.1,24498190018541.14,41269149829399.92,487203463990417.6,9138298344593302.0
4.61115701971576,2929217142206869.0,1.3436884247308584e+16,176805464489473.5,179574870079224.12,25658357444504.74,43234653851750.42,510416406284816.06,9571977352951936.0
4.803380160110075,2940366908097230.5,1.3918847942819654e+16,177478456434960.8,180258403489143.8,26842083026947.04,45241101642825.59,534113751142041.94,1.00145472389865e+16
4.9994477633122765,2950974352190223.5,1.4409795452630522e+16,178118714222189.94,180908690006699.56,28049735621244.97,47289182011305.68,558303686572990.25,1.0466151092005876e+16
5.199436718578522,2961078925348195.0,1.4909929126027448e+16,178728619077172.78,181528148156422.06,29281697962043.508,49379610040189.164,582994713226357.6,1.0926937412217042e+16
5.403425452950093,2970716534047223.5,1.5419452888021224e+16,179310338289283.6,182118979175190.97,30538366095607.992,51513126261280.16,608195634756231.1,1.1397059909396412e+16
5.611493962009095,2979919931850423.5,1.5938572502422524e+16,179865848840310.97,182683191011405.12,31820148903144.766,53690495986710.31,633915550047061.6,1.1876677335783446e+16
5.823723841249277,2988719060153272.5,1.6467495809100558e+16,180396957971607.38,183222619214279.9,33127467701754.297,55912508775375.75,660163847035213.5,1.2365953348249046e+16
6.040198318074262,2997141345736618.5,1.7006432939502808e+16,180905321144169.7,183738945175256.1,34460755911881.188,58179978015851.94,686950197909712.5,1.2865056395609294e+16
6.261002284435747,3005211961404158.5,1.7555596513810024e+16,181392457770537.16,184233712106310.47,35820458781922.555,60493740610365.69,714284555510437.9,1.3374159627626308e+16
6.486222330124463,3012954054955708.5,1.811520182253327e+16,181859765035455.38,184708339077102.4,37207033162133.55,62854656746881.68,742177150771220.8,1.3893440822784796e+16
6.715946776726952,3020388950907452.0,1.86854669948989e+16,182308530071565.06,185164133381374.12,38620947321185.266,65263609748401.016,770638491079440.4,1.4423082332389484e+16
6.950265712261491,3027536328679266.0,1.926661315598928e+16,182739940714663.1,185602301460683.06,40062680799736.58,67721505990261.61,799679359443619.4,1.4963271038901086e+16
7.18927102650672,3034414380398250.5,1.9858864574298376e+16,183155095028610.8,186023958578500.6,41532724296221.375,70229274877642.76,829310814377277.8,1.5514198326741888e+16
7.433056447036854,3041039950993588.5,2.0462448801104076e+16,183555009761361.72,186430137408692.2,43031579580746.41,72787868876643.88,859544190421029.4,1.6076060064062022e+16
7.681717575977592,3047428662863085.5,2.1077596802849384e+16,183940627869744.38,186821795678164.6,44559759433583.22,75398263593301.83,890391099236642.1,1.6649056594174874e+16
7.935351927497144,3053595027061388.5,2.1704543087546484e+16,184312825230704.12,187199822983231.66,46117787605224.34,78061457895732.33,921863431216554.1,1.7233392735553604e+16
8.194058966047088,3059552542682826.0,2.23435258260709e+16,184672416639979.8,187565046882249.44,47706198795389.6,80778474075285.62,953973357560578.0,1.7829277789434604e+16
8.45794014536803,3065313785878062.5,2.2994786969090384e+16,185020161185087.5,187918238352762.47,49325538648715.35,83550358043193.19,986733332778532.8,1.8436925554204036e+16
8.72709894827539,3070890489746658.5,2.3658572360266064e+16,185356767067578.28,188260116689293.47,50976363765154.4,86378179559696.5,1020156097583517.5,1.9056554345854092e+16
9.0016409272409,3076293616180016.5,2.4335131846278904e+16,185682895939426.84,188591353907653.47,52659241723367.32,89263032493061.8,1054254682145578.1,1.968838702388983e+16
9.281673745785717,3081533420586945.5,2.502471938415734e+16,185999166809818.84,188912578712929.84,54374751115594.586,92206035106264.56,1089042409679873.6,2.033265102214585e+16
9.567307220701432,3086619510312700.0,2.572759314631753e+16,186306159571286.9,189224380080847.34,56123481592686.05,95208330369438.31,1124532900347169.1,2.098957838404344e+16
9.85865336511546,3091560897458383.5,2.6444015623676944e+16,186604418187849.1,189527310495848.6,57906033918114.63,98271086296449.47,1160740075447695.2,2.1659405801872572e+16
10.155826432417769,3096366046718450.0,2.7174253727150016e+16,186894453582445.5,189821888883755.38,59723020029937.14,101395496304195.17,1197678161892152.2,2.2342374659739092e+16
10.458942961066125,3101042918777485.0,2.7918578887799332e+16,187176746256340.5,190108603272201.9,61575063109777.52,104582779593424.14,1235361696936046.0,2.303873107985408e+16
10.768121820287448,3105599009741262.0,2.8677267155877016e+16,187451748669151.06,190387913207944.12,63462797658004.81,107834181550054.34,1273805533165662.2,2.374872597188496e+16
11.083484256693197,3110041387019966.5,2.9450599298963956e+16,187719887404734.6,190660251956667.88,65386869574364.53,111150974166112.55,1313024843725682.2,2.4472615085116404e+16
11.405153941827061,3114376722031972.5,3.0238860899385772e+16,187981565145160.12,190926028507886.6,67347936243389.73,114534456479555.22,1353035127780170.5,2.521065906319767e+16
11.733257020663602,3118611320053418.0,3.1042342451063628e+16,188237162472416.22,191185629404864.88,69346666623985.086,117985955032345.22,1393852216199955.5,2.5963123501276572e+16
12.067922161076874,3122751147501690.5,3.1861339455935816e+16,188487039515215.84,191439420417220.56,71383741342625.53,121506824346262.02,1435492277470647.2,2.6730279005342156e+16
12.409280604298411,3126801856907964.5,3.269615252007071e+16,188731537456322.38,191687748071861.3,73459852789659.75,125098447416011.98,1477971823816705.5,2.7512401253612256e+16
12.75746621638438,3130768809805548.5,3.354708744957339e+16,188970979914077.4,191930941056149.97,75575705218246.06,128762236219282.36,1521307717537741.0,2.8309771059822296e+16
13.112615540712067,3134657097735823.5,3.4414455346376256e+16,189205674210298.47,192169311505664.75,77732014845483.27,132499632243460.34,1565517177554313.8,2.912267443828126e+16
13.474867851526309,3138471561551537.5,3.5298572703992268e+16,189435912535419.22,192403156187586.8,79929509955326.2,136312107028787.73,1610617786161045.0,2.995140267057253e+16
13.844365208556836,3142216809178028.5,3.619976150329454e+16,189661973020535.9,192632757589542.6,82168931002899.38,140201162727792.12,1656627495985636.5,3.0796252373790188e+16
14.221252512727972,3145897231975770.0,3.711834930838173e+16,189884120725047.97,192858384922709.25,84451030719844.12,144168332680873.75,1703564637152976.0,3.165752557020442e+16
14.605677562982532,3149517019832983.0,3.805466936257325e+16,190102608547629.38,193080295047060.72,86776574220351.02,148215182007978.56,1751447924654045.5,3.2535529758263244e+16
14.997791114242183,3153080175103379.5,3.900906068457773e+16,190317678067506.47,193298733325818.53,89146339107541.83,152343308216317.28,1800296465919885.8,3.343057798483724e+16
15.397746936527026,3156590525492754.5,3.998186816486133e+16,190529560322280.25,193513934415459.78,91561115579881.61,156554341824151.25,1850129768601211.5,3.434298891862562e+16
15.805701875257567,3160051735987453.0,4.097344266224529e+16,190738476527922.12,193726122996989.9,94021706537304.8,160849947000659.9,1900967748554806.8,3.5273086924640212e+16
16.221815912762718,3163467319908728.0,4.198414110074846e+16,190944638746005.2,193935514453626.47,96528927686749.33,165231822221977.4,1952830738038195.2,3.622120213969323e+16
16.64625223101797,3166840649168529.5,4.301432656668791e+16,191148250502739.9,194142315499527.75,99083607646802.12,169701700943470.66,2005739494114273.5,3.71876705488125e+16
17.079177275638333,3170174963795249.0,4.4064368406044824e+16,191349507363936.38,194346724763765.44,101686588051154.8,174261352288400.0,2059715207268137.2,3.817283406251407e+16
17.5207608211511,3173473380791058.5,4.513464232209762e+16,191548597469630.0,194548933333321.4,104338723650576.9,178912581753084.03,2114779510238459.8,3.917704059486137e+16
17.97117603757412,3176738902376939.0,4.6225530473318536e+16,191745702031746.6,194749125258549.12,107040882413119.6,183657231928743.8,2170954487066180.5,4.020064414224327e+16
18.430599558325603,3179974423676132.0,4.733742157152575e+16,191940995797866.97,194947478024201.9,109793945622244.2,188497183240199.03,2228262682363377.5,4.124400486280178e+16
18.899211549492115,3183182739882000.5,4.847071098027879e+16,192134647483875.75,195144162988860.53,112598807972597.89,193434354701629.38,2286727110805633.5,4.23074891564443e+16
19.37719578048196,3186366552952277.0,4.962580081350042e+16,192326820178022.38,195339345795318.03,115456377663126.36,198470704689601.72,2346371266851290.0,4.33914697453708e+16
19.864739696091597,3189528477867711.0,5.080310003430353e+16,192517671718684.88,195533186754268.12,118367576487233.75,203608231733613.47,2407219134691204.0,4.449632575505096e+16
20.36203449001343,3192671048489804.5,5.200302455399875e+16,192707355047944.22,195725841203411.38,121333339919684.8,208848975324384.06,2469295198433014.5,4.562244279558056e+16
20.869275179813698,3195796723049346.5,5.322599733125128e+16,192896018542863.2,195917459843927.25,124354617199940.14,214195016740172.34,2532624452523897.5,4.67702130433512e+16
21.38666068340997,3198907889294572.0,5.447244847135648e+16,193083806326227.47,196108189056080.6,127432371411616.8,219648479891388.34,2597232412416102.5,4.794003532296062e+16
21.91439389707817,3202006869325324.0,5.5742815325594744e+16,193270858558333.4,196298171195579.2,130567579557752.86,225211532183779.94,2663145125479786.5,4.913231518929429e+16
22.452681775019734,3205095924137406.5,5.7037542590624664e+16,193457311711282.88,196487544872166.3,133761232631556.53,230886385400518.1,2730389182167757.5,5.034746500970406e+16
23.00173541052013,3208177257899307.5,5.8357082407870584e+16,193643298827116.84,196676445211797.34,137014335682301.56,236675296603470.22,2798991727436992.5,5.158590404620964e+16
23.561770118730532,3211253021981313.0,5.97018944628542e+16,193828949761017.84,196865004103652.44,140327907876042.77,242580569053993.3,2868980472431917.0,5.284805853764613e+16
24.133005521105144,3214325318755949.0,6.1072446084416376e+16,194014391410697.03,197053350433115.47,143702982550792.3,248604553153590.8,2940383706434663.0,5.413436178167763e+16
24.715665631527248,3217396205186583.5,6.246921234377493e+16,194199747933001.4,197241610301772.9,147140607265816.12,254749647404760.78,3013230309087532.0,5.544525421659539e+16
25.309978944157795,3220467696220010.0,6.389267615335314e+16,194385140948687.12,197429907235398.56,150641843844677.38,261018299392406.56,3087549762893485.5,5.678118350281837e+16
25.91617852304095,3223541767997444.0,6.534332836531792e+16,194570689736234.53,197618362380798.97,154207768411665.62,267413006786158.53,3163372165999913.0,5.8142604604005704e+16
26.53450209350177,3226620360897242.5,6.682166786975496e+16,194756511415500.47,197807094692349.03,157839471421222.97,273936318363997.28,3240728245271922.0,5.952997986769271e+16
27.165192135371807,3229705382421659.0,6.832820169240888e+16,194942721121966.88,197996221108962.75,161538057679982.56,280590835057543.1,3319649369660856.0,6.094377910535788e+16
27.808495978079243,3232798709938904.5,6.986344509191016e+16,195129432172243.22,198185856722194.0,165304646361021.06,287379211019417.56,3400167563874441.0,6.238447967182185e+16
28.464665897640828,3235902193291059.0,7.142792165640697e+16,195316756221483.97,198376114936116.53,169140371009913.75,294304154713069.94,3482315522354688.5,6.385256654388066e+16
29.133959215593645,3239017657277450.0,7.302216339951506e+16,195504803413279.16,198567107619562.7,173046379542172.78,301368430025469.44,3566126623570144.0,6.534853239806697e+16
29.816638399905518,3242146904022524.0,7.46467108554933e+16,195693682522578.7,198758945251288.1,177023834231640.9,308574857403095.75,3651634944629063.5,6.687287768743299e+16
30.51297116790363,3245291715236414.0,7.630211317355186e+16,195883501092140.4,198951737058554.22,181073911689401.28,315926315011628.75,3738875276220287.5,6.842611071724345e+16
31.223230591261704,3248453854375975.5,7.798892821118971e+16,196074365562966.84,199145591149610.4,185197802832751.47,323425739919789.4,3827883137888841.5,7.000874771945976e+16
31.947695203086937,3251635068713427.0,7.970772262645747e+16,196266381399166.97,199340614640512.1,189396712843782.1,331076129307745.56,3918694793653237.0,7.16213129258998e+16
32.686649107148675,3254837091319190.5,8.145907196903752e+16,196459653207640.53,199536913776675.5,193671861117090.22,338880541700547.2,4011347267971724.0,7.326433863994462e+16
33.44038208929165,3258061642965113.0,8.324356077001813e+16,196654284852951.06,199734594049556.16,198024481196140.5,346842098227025.1,4105878362064922.0,7.493836530666238e+16
34.20918973107749,3261310433953792.0,8.506178263025446e+16,196850379567749.75,199933760308796.22,202455820697792.2,354963983904615.5,4202326670602410.5,7.664394158121936e+16
34.993373525699035,3264585165879385.0,8.69143403071791e+16,197048040059048.78,200134516870169.8,206967141224474.34,363249448950562.94,4300731598760743.0,7.83816243954347e+16
35.793240996213015,3267887533324847.0,8.880184579993493e+16,197247368610672.6,200336967619629.72,211559718263510.47,371701810119989.56,4401133379660973.5,8.015197902233528e+16
36.60910581613728,3271219225500269.0,9.07249204326977e+16,197448467182141.4,200541216113747.06,216234841073061.3,380324452071259.3,4503573092193456.0,8.195557913856355e+16
37.44128793246003,3274581927826631.0,9.268419493604067e+16,197651437504266.16,200747365676801.38,220993812554153.28,389120828759163.75,4608092679238042.0,8.379300688448157e+16
38.29011369110923,3277977323469024.0,9.46803095261982e+16,197856381171696.34,200955519494777.75,225837949108250.0,398094464856363.0,4714734966288039.0,8.566485292180986e+16
39.15591596493141,3281407094823169.5,9.671391398207042e+16,198063399732641.0,201165780706494.03,230768580479817.1,407248957203579.8,4823543680486069.0,8.757171648863862e+16
40.03903428423004,3284872924958779.0,9.87856677198158e+16,198272594775992.16,201378252492087.2,235787049583311.7,416587976289045.6,4934563470080528.0,8.951420545163616e+16
40.93981496991464,3288376499023041.0,1.0089623986485963e+17,198484068016037.47,201593038159053.06,240894712314037.12,426115267757656.8,5047839924311103.0,9.149293635527875e+16
41.85861126931294,3291919505607439.0,1.0304630932115069e+17,198697921374956.62,201810241226039.03,246092937342266.22,435834653950348.44,5163419593732209.0,9.350853446791758e+16
42.7957834946992,3295503638080723.0,1.0523656483748954e+17,198914257063284.66,202029965504560.25,251383105890071.12,445750035474157.9,5281350010983055.0,9.556163382449362e+16
43.751699164593184,3299130595890935.5,1.0746770507073922e+17,199133177658497.75,202252315178824.84,256766611490241.12,455865392803488.0,5401679712013374.0,9.765287726570395e+16
