t(s),Total solute volume 1,Total retention volume 1,Total 1 volume 1,Total 2 volume 1,Total 3 volume 1,Total 4 volume 1,Total 5 volume 1,Total 6 volume 1
0.1,1388605447609674.5,1.2965503955258198e+16,3123970752525701.5,8452927755122823.0,0.0,0.0,0.0,-0.03849354864423057
0.202,1958073472287343.5,1.850364758020688e+16,4405120623475949.0,1.1919654499951484e+16,243639851823.9051,1790573656635.698,43492075071699.6,175272695911941.22
0.30604000000000003,2399277514867276.5,2.30091475638879e+16,5397708055353281.0,1.46054830015187e+16,603098436867.1885,4442727936384.716,116252062990183.73,485381102785207.75
0.41216080000000005,2763712903227003.5,2.693137193863226e+16,6217586904367099.0,1.682397584554449e+16,1052545274672.3008,7760653476036.796,211116586570886.22,906166500172071.0
0.5204040160000001,3076251155689252.0,3.0483474608124356e+16,6920711423794862.0,1.872654299020318e+16,1577844669174.4612,11639292645077.867,324068217646891.0,1422683683475907.2
0.6308120963200001,3350821846513689.5,3.3782221070694972e+16,7538419368163518.0,2.0397981958890664e+16,2170054618119.9287,16012291794386.133,452509305158822.44,2024306245555761.5
0.7434283382464002,3596101530593158.0,3.689839485702341e+16,8090230613258981.0,2.1891111730653616e+16,2823006383379.069,20833903224616.39,594604336603106.4,2702689736306550.0
0.8582969050113283,3817920869189896.0,3.9878394065179896e+16,8589262548550978.0,2.324142666638051e+16,3532206962549.442,26070822574981.156,749016152129998.4,3451164799390994.5
0.9754628431115548,4020455569623929.5,4.275450886053519e+16,9044909369857680.0,2.4474346512322372e+16,4294300995039.202,31698194691832.133,914739028805822.2,4264065884238524.0
1.094972099973786,4206813393255738.5,4.555028482599809e+16,9464162687294336.0,2.5608789853917984e+16,5106728574122.965,37697072936845.055,1091027046912662.4,5136688043106385.0
1.2168715419732616,4379379295341233.5,4.8283543194679976e+16,9852387995489526.0,2.665927517084007e+16,5967511147258.538,44052829130124.09,1277332179772335.2,6065148212959422.0
1.3412089728127268,4540024795028365.0,5.096819000353301e+16,1.0213795698616998e+16,2.7637195382845964e+16,6875102824535.701,50754048248226.26,1473257429745050.5,7046287546223885.0
1.4680331522689813,4690242837298986.0,5.36153565206597e+16,1.0551744512707892e+16,2.855163882464738e+16,7828282212475.27,57791723614854.54,1678519640428025.5,8077590699750113.0
1.597393815314361,4831240582152910.0,5.623414910650666e+16,1.0868950215839684e+16,2.94099541024949e+16,8826073905960.879,65158672586452.19,1892920333904116.2,9157099125622632.0
1.729341691620648,4964006235469408.0,5.8832159830375336e+16,1.1167635999252968e+16,3.021815692943391e+16,9867692180613.484,72849117493355.69,2116322835608787.2,1.028332102093627e+16
1.863928525453061,5089357751942086.0,6.141582467217945e+16,1.1449642035613134e+16,3.0981226606398468e+16,10952499409148.145,80858376109007.34,2348634141563074.5,1.1455153261144544e+16
2.001207095962122,5207978720995085.0,6.39906813762306e+16,1.1716506212499156e+16,3.170332447937206e+16,12079974291393.234,89182625188392.36,2589791185741889.5,1.2671818178142608e+16
2.1412312378813647,5320445893602181.0,6.656155925183989e+16,1.1969526060228664e+16,3.2387961510564624e+16,13249688645534.99,97818728017510.8,2839751746019753.5,1.393280562476162e+16
2.284055862638992,5427251211426739.0,6.913272157492005e+16,1.2209808311423584e+16,3.303813238253507e+16,14461292405886.357,106764123419223.64,3098489404276111.5,1.5237814849433406e+16
2.4297369798917723,5528819346616753.0,7.170797423913937e+16,1.2438308360775348e+16,3.3656422273154e+16,15714504578794.602,116016759236036.23,3365990819975363.0,1.658670217480308e+16
2.578331719489608,5625520922835081.0,7.429074994889102e+16,1.2655860008754916e+16,3.4245087339488444e+16,17009106385267.896,125575041870524.16,3642253470332109.0,1.7979444059224652e+16
2.7298983538794,5717681942624242.0,7.688417440003269e+16,1.286319667059701e+16,3.480611210717236e+16,18344933832668.324,135437781225925.92,3927283114515968.0,1.94161178500645e+16
2.884496320956988,5805590627921080.0,7.949111896011414e+16,1.306096676557431e+16,3.5341251112083816e+16,19721869684801.664,145604130995461.22,4221091545441548.5,2.089689290841309e+16
3.0421862473761276,5889503037676285.0,8.211424304275277e+16,1.324974635509957e+16,3.5852063097760076e+16,21139836870322.29,156073539787947.22,4523695644198041.0,2.242202153136051e+16
3.2030299723236504,5969648303390074.0,8.47560284972311e+16,1.3430050921254188e+16,3.633994288711571e+16,22598795285479.855,166845727818624.3,4835118133861248.0,2.399182372850578e+16
3.3670905717701234,6046233552703278.0,8.741880776149595e+16,1.3602346443531996e+16,3.680615135530146e+16,24098742110811.76,177920689963138.4,5155389368057587.0,2.5606667609827744e+16
3.5344323832055258,6119448091913986.0,9.010478713040451e+16,1.3767058808363528e+16,3.725184089112547e+16,25639713760776.355,189298710894671.88,5484548828041451.0,2.7266952086304612e+16
3.7051210308696363,6189466411595192.0,9.281606618421211e+16,1.3924580570928448e+16,3.767807369377977e+16,27221786825577.64,200980372375395.06,5822645177414452.0,2.8973098171293264e+16
3.879223451487029,6256449934968606.0,9.555465416484469e+16,1.4075274888502518e+16,3.80858324157764e+16,28845076197516.93,212966539149782.9,6169734569523198.0,3.0725550740726656e+16
4.0568079205167695,6320547847242333.0,9.832248387548506e+16,1.4219477386220044e+16,3.847602521109403e+16,30509730334444.95,225258323214483.62,6525877876496317.0,3.25247875008834e+16
4.237944078927105,6381897575508029.0,1.0112142352212538e+17,1.435749723669393e+16,3.884948865616654e+16,32215925240082.215,237857038499344.4,6891138079885435.0,3.437132901013208e+16
4.422702960505647,6440625446725704.0,1.0395328681768358e+17,1.4489618640293548e+16,3.920699175520689e+16,33963859439674.684,250764163200626.16,7265578991162210.0,3.626574396165494e+16
4.61115701971576,6496847805153687.0,1.0681984161970709e+17,1.4616103339058844e+16,3.9549242742676744e+16,35753751802791.305,263981323709397.9,7649265865299284.0,3.820864679200632e+16
4.803380160110075,6550672565855936.0,1.0972281735063408e+17,1.473719411167702e+16,3.987689854057957e+16,37585842867206.93,277510304981751.97,8042267666887518.0,4.020068831778505e+16
4.9994477633122765,6602200952435246.0,1.1266391143269346e+17,1.4853118682918988e+16,4.0190575337289096e+16,39460398968739.38,291353082000391.56,8444660109703777.0,4.224254286937716e+16
5.199436718578522,6651529084974210.0,1.1564479494259778e+17,1.4964093296081204e+16,4.049085825443185e+16,41377717541676.836,305511859905864.6,8856528349314173.0,4.433489638034888e+16
5.403425452950093,6698749143872301.0,1.1866711765003941e+17,1.5070325331302718e+16,4.0778308431852936e+16,43338131708275.53,319989108568514.8,9277968397386698.0,4.647843910534796e+16
5.611493962009095,6743949981446358.0,1.2173251255417894e+17,1.5172014681493538e+16,4.10534667506336e+16,45342012690023.89,334787580554424.94,9709086811905976.0,4.867386473545502e+16
5.823723841249277,6787217215514081.0,1.248425999843666e+17,1.5269353962860412e+16,4.131685440251394e+16,47389769390375.1,349910307648250.75,1.014999878807455e+16,5.092187553836498e+16
6.040198318074262,6828632962091189.0,1.279989912953942e+17,1.5362527913534622e+16,4.1568971262340296e+16,49481845388481.055,365360577831850.4,1.0600825235765742e+16,5.322319149844204e+16
6.261002284435747,6868275420678753.0,1.3120329216946906e+17,1.5451712460568854e+16,4.1810293363170776e+16,51618714272605.625,381141899813545.4,1.1061689663174398e+16,5.5578560647790104e+16
6.486222330124463,6906218515755385.0,1.3445710553684989e+17,1.5537073913383426e+16,4.204127071362133e+16,53800874580178.06,397257964730164.1,1.153271566737538e+16,5.7988767887404024e+16
6.715946776726952,6942531740550492.0,1.3776203413982611e+17,1.5618768612295002e+16,4.226232634673488e+16,56028845578675.02,413712614359358.25,1.2014025610200072e+16,6.045464037010765e+16
6.950265712261491,6977280269671170.0,1.411196827829167e+17,1.5696943181897788e+16,4.2473857005639544e+16,58303164796569.555,430509822688600.8,1.2505740723715942e+16,6.297704861450708e+16
7.18927102650672,7010525329813583.0,1.445316603282598e+17,1.5771735365068576e+16,4.267623540041114e+16,60624387729111.266,447653693999619.8,1.3007982544107072e+16,6.555690360713072e+16
7.433056447036854,7042324759841868.0,1.479995815035999e+17,1.5843275282999248e+16,4.2869813617777336e+16,62993089641582.91,465148476819329.44,1.3520875299097798e+16,6.819515097742278e+16
7.681717575977592,7072733661238810.0,1.5152506858855763e+17,1.5911686898541562e+16,4.305492708097346e+16,65409868988715.805,482998590036410.75,1.4044548722175906e+16,7.089276376660281e+16
7.935351927497144,7101805037166225.0,1.5510975303359462e+17,1.5977089453925252e+16,4.323189844022532e+16,67875351731437.56,501208655700521.44,1.4579140748533328e+16,7.365073534631256e+16
8.194058966047088,7129590336833248.0,1.5875527704818922e+17,1.603959869544244e+16,4.340104088672674e+16,70390195776516.86,519783532621325.75,1.5124799641678538e+16,7.647007375911048e+16
8.45794014536803,7156139852289154.0,1.624632951743434e+17,1.6099327766124256e+16,4.356266056816894e+16,72955094862574.03,538728345647763.6,1.5681685264281104e+16,7.935179828296949e+16
8.72709894827539,7181502947892868.0,1.6623547584277027e+17,1.61563877219829e+16,4.371705798560936e+16,75570781413138.44,558048507020260.8,1.6249969394349134e+16,8.229693850450254e+16
9.0016409272409,7205728131475156.0,1.7007350289518557e+17,1.621088769210304e+16,4.3864528426578696e+16,78238028113711.72,577749727991213.5,1.6829835157444046e+16,8.530653573147982e+16
9.281673745785717,7228862996576329.0,1.7397907704880506e+17,1.6262934748686894e+16,4.4005361613317816e+16,80957648194169.56,597838020615134.1,1.7421475770603294e+16,8.838164625081142e+16
9.567307220701432,7250954075998963.0,1.779539172786897e+17,1.6312633577581812e+16,4.413984081112715e+16,83730494576625.52,618319690964092.0,1.8025092863054224e+16,9.152334576538686e+16
9.85865336511546,7272046649260099.0,1.819997620989163e+17,1.6360086045094518e+16,4.426824165608343e+16,86557458166599.22,639201325910310.9,1.8640894654841804e+16,9.473273430955946e+16
10.155826432417769,7292184542493249.0,1.8611837073278515e+17,1.6405390747820554e+16,4.439083093681805e+16,89439465621186.45,660489776031264.2,1.926909424770567e+16,9.801094101629525e+16
10.458942961066125,7311409951376003.0,1.9031152417320054e+17,1.6448642614276392e+16,4.450786551649749e+16,92377476930526.1,682192137200452.9,1.990990822711638e+16,1.0135912824980326e+17
10.768121820287448,7329763307947828.0,1.9458102614484896e+17,1.6489932605273932e+16,4.461959152202483e+16,95372483111409.7,704315733130859.8,2.0563555704567536e+16,1.0477849478879253e+17
11.083484256693197,7347283202450552.0,1.989287039882556e+17,1.6529347538082662e+16,4.472624386823017e+16,98425504248633.55,726868100647539.9,2.1230257857226624e+16,1.0827027791736938e+17
11.405153941827061,7364006362739088.0,2.033564094911553e+17,1.656697004011023e+16,4.4828046132553096e+16,101537588043904.88,749856978882353.4,2.1910237957098812e+16,1.1183575443172786e+17
11.733257020663602,7379967687045177.0,2.0786601969455206e+17,1.6602878622613754e+16,4.49252107545371e+16,104709808954881.66,773290302992410.2,2.260372183004971e+16,1.1547624068835899e+17
12.067922161076874,7395200321202465.0,2.1245943769952243e+17,1.6637147854437496e+16,4.501793950599835e+16,107943267936782.62,797176202469276.0,2.331093864953774e+16,1.1919309189794022e+17
12.409280604298411,7409735768821606.0,2.171385934968752e+17,1.6669848609879372e+16,4.510642416178446e+16,111239092741725.77,821523003672039.9,2.4032121951381136e+16,1.2298770090859486e+17
12.75746621638438,7423604022091400.0,2.2190544483605606e+17,1.670104836296022e+16,4.519084729609255e+16,114598438689634.05,846339235906995.5,2.4767510752949744e+16,1.2686149672736554e+17
13.112615540712067,7436833701497824.0,2.267619781431096e+17,1.6730811501755534e+16,4.527138313306718e+16,118022489799869.36,871633640194402.9,2.5517350669984296e+16,1.3081594300681045e+17
13.474867851526309,7449452194363576.0,2.3171020949095875e+17,1.6759199640073184e+16,4.534819839020548e+16,121512460163424.11,897415179798080.8,2.6281894943096852e+16,1.3485253668325808e+17
13.844365208556836,7461485784289450.0,2.3675218561943222e+17,1.67862719086621e+16,4.542145306636217e+16,125069595438851.86,923693051625417.8,2.7061405309940576e+16,1.389728069031136e+17
14.221252512727972,7472959765953668.0,2.4188998499787923e+17,1.6812085213479846e+16,4.549130114060589e+16,128695174367767.16,950476697707510.9,2.785615268438023e+16,1.4317831432138432e+17
14.605677562982532,7483898542006828.0,2.4712571892012448e+17,1.6836694453679464e+16,4.555789116206782e+16,132390510224182.6,977775816114309.8,2.8666417627754584e+16,1.4747065080827725e+17
14.997791114242183,7494325700794067.0,2.5246153262000144e+17,1.6860152696462498e+16,4.5621366723063704e+16,136156952133018.69,1005600370823700.8,2.9492490617402484e+16,1.51851439559322e+17
15.397746936527026,7504264075236746.0,2.5789960639564397e+17,1.6882511309545638e+16,4.568186681751502e+16,139995886214298.0,1033960600226901.8,3.0334672132869204e+16,1.563223355740361e+17
15.805701875257567,7513735784381486.0,2.634421567318633e+17,1.6903820054633436e+16,4.5739526093850536e+16,143908736529031.25,1062867024101938.4,3.1193272590302236e+16,1.6088502644806477e+17
16.221815912762718,7522762259895799.0,2.6909143741198557e+17,1.692412714702482e+16,4.579447501626672e+16,147896965819568.25,1092330449014292.0,3.2068612160809704e+16,1.6554123341315472e+17
16.64625223101797,7531364260210545.0,2.7484974061309827e+17,1.6943479287428336e+16,4.584683995078735e+16,151962076050720.75,1122361972205607.5,3.296102050973964e+16,1.7029271255667603e+17
17.079177275638333,7539561875148861.0,2.8071939798146067e+17,1.6961921672374696e+16,4.589674319341018e+16,156105608768245.38,1152972984107528.2,3.3870836491896016e+16,1.7514125615575498e+17
17.5207608211511,7547374523808956.0,2.8670278168753094e+17,1.6979497989452322e+16,4.5944302957189416e+16,160329145298503.34,1184175169670274.8,3.479840783362498e+16,1.8008869406848656e+17
17.97117603757412,7554820948249618.0,2.9280230546248646e+17,1.6996250403100528e+16,4.598963333377112e+16,164634306817690.25,1215980508727628.2,3.5744090827383944e+16,1.8513689513443594e+17
18.430599558325603,7561919205216481.0,2.9902042562005926e+17,1.7012219535994922e+16,4.603284424300599e+16,169022754321349.97,1248401275634943.8,3.670825005859211e+16,1.902877685472936e+17
18.899211549492115,7568686657787344.0,3.053596420689405e+17,1.7027444450251082e+16,4.6074041382073976e+16,173496188525408.4,1281450038418179.2,3.769125817882386e+16,1.955432651730608e+17
19.37719578048196,7575139968439228.0,3.118224993218693e+17,1.704196263182681e+16,4.611332618326856e+16,178056349729032.16,1315139657662733.0,3.869349573413376e+16,2.009053787968089e+17
19.864739696091597,7581295094671523.0,3.184115875078728e+17,1.7055809980675146e+16,4.615079578734502e+16,182705017667626.22,1349483285353823.2,3.971535105273677e+16,2.063761472894228e+17
20.36203449001343,7587167287975201.0,3.251295433940248e+17,1.7069020808425134e+16,4.618654303724135e+16,187444011381477.53,1384494363857631.0,4.0757220192519976e+16,2.1195765369262406e+17
20.869275179813698,7592771096627956.0,3.3197905142261306e+17,1.7081627844670144e+16,4.622065649509273e+16,192275189122240.28,1420186625206267.2,4.181950694595825e+16,2.176520272259356e+17
21.38666068340997,7598120372525671.0,3.3896284476888045e+17,1.7093662252336792e+16,4.625322048381893e+16,197200448315811.06,1456574090821597.0,4.290262289790462e+16,2.234614442231571e+17
21.91439389707817,7603228282034473.0,3.4608370642360166e+17,1.710515365209922e+16,4.62843151531892e+16,202221725596387.88,1493671071784339.0,4.40069875303432e+16,2.2938812900855504e+17
22.452681775019734,7608107320665474.0,3.53344470303781e+17,1.7116130155393296e+16,4.6314016569157864e+16,207340996922774.94,1531492169726856.5,4.5133028367429976e+16,2.3543435472448486e+17
23.00173541052013,7612769331234471.0,3.6074802239377024e+17,1.7126618405271238e+16,4.6342396824416024e+16,212560277784436.7,1570052278401522.2,4.628118115388623e+16,2.416024441227763e+17
23.561770118730532,7617225525068788.0,3.682973019181903e+17,1.7136643624111178e+16,4.636952416749203e+16,217881623501503.16,1609366585952237.8,4.7451890059949896e+16,2.4789477033211446e+17
24.133005521105144,7621486505759083.0,3.759953025472161e+17,1.714622966705245e+16,4.639546314734455e+16,223307129619981.38,1649450577895093.0,4.864560790651723e+16,2.5431375761302774e+17
24.715665631527248,7625562294921165.0,3.838450736340946e+17,1.7155399079952662e+16,4.6420274770190824e+16,228838932400870.88,1690320040795635.0,4.9862796404741816e+16,2.6086188211109146e+17
25.309978944157795,7629462359426744.0,3.91849721484222e+17,1.716417316064953e+16,4.6444016665276456e+16,234479209399756.97,1731991066614925.2,5.1103926405108e+16,2.6754167261774656e+17
25.91617852304095,7633195639577821.0,4.000124106547155e+17,1.7172572022345522e+16,4.64667432563889e+16,240230180131765.66,1774480057684569.8,5.236947815180735e+16,2.7435571134677946e+17
26.53450209350177,7636770577732255.0,4.083363652831501e+17,1.7180614658007556e+16,4.6488505936116584e+16,246094106815508.62,1817803732262071.0,5.36599415390598e+16,2.8130663473315613e+17
27.165192135371807,7640195146933668.0,4.1682487044402304e+17,1.7188319004776416e+16,4.650935324013382e+16,252073295188794.2,1861979130612036.2,5.4975816366803336e+16,2.883971342595751e+17
27.808495978079243,7643476879152820.0,4.2548127353148614e+17,1.719570200750201e+16,4.652933101911955e+16,258170095388406.5,1907023621555672.2,5.6317612593892584e+16,2.9562995731487475e+17
28.464665897640828,7646622892806587.0,4.343089856669684e+17,1.720277968065349e+16,4.654848260627846e+16,264386902886112.3,1952954909430322.0,5.768585058758824e+16,3.030079080873251e+17
29.133959215593645,7649639919281474.0,4.43311483130475e+17,1.7209567167989752e+16,4.656684897880087e+16,270726159473197.12,1999791041402138.2,5.9081061368668264e+16,3.1053384849485946e+17
29.816638399905518,7652534328248414.0,4.524923088145413e+17,1.7216078799510648e+16,4.658446891196491e+16,277190354286213.8,2047550415078083.0,6.050378685195234e+16,3.1821069915350074e+17
30.51297116790363,7655312151612862.0,4.618550737000693e+17,1.7222328145338062e+16,4.660137912493044e+16,283782024867187.6,2096251786367746.0,6.1954580082399e+16,3.260414403845537e+17
31.223230591261704,7657979105996826.0,4.714034583535269e+17,1.7228328066294116e+16,4.661761441759565e+16,290503758252227.3,2145914277550872.8,6.3434005467222936e+16,3.3402911326061434e+17
31.947695203086937,7660540613696691.0,4.8114121444525146e+17,1.723409076105046e+16,4.6633207798175704e+16,297358192083282.2,2196557385512351.0,6.4942639004688984e+16,3.4217682069004397e+17
32.686649107148675,7663001822102008.0,4.910721662888443e+17,1.7239627809814964e+16,4.664819060141143e+16,304348015738633.8,2248200990112783.2,6.6481068510385176e+16,3.504877285392794e+17
33.44038208929165,7665367621594834.0,5.0120021240188755e+17,1.7244950214600344e+16,4.6662592597529416e+16,311475971478562.25,2300865362669059.0,6.804989384186584e+16,3.5896506679214944e+17
34.20918973107749,7667642661977765.0,5.115293270884134e+17,1.72500684361825e+16,4.667644209224486e+16,318744855603478.94,2354571174525583.5,6.964972712259951e+16,3.676121307452797e+17
34.993373525699035,7669831367500643.0,5.220635620437502e+17,1.7254992427906342e+16,4.668976601823438e+16,326157519622612.5,2409339505702692.0,7.128119296616213e+16,3.764322822386213e+17
35.793240996213015,7671937950572259.0,5.328070479825161e+17,1.7259731666533332e+16,4.670259001860367e+16,333716871432079.9,2465191853614231.5,7.294492870159509e+16,3.854289509201654e+17
36.60910581613728,7673966424254362.0,5.437639962906641e+17,1.7264295180349468e+16,4.6714938522942936e+16,341425876501846.0,2522150141851146.0,7.464158460080563e+16,3.9460563554395866e+17
