t(s),Total solute volume 1,Total retention volume 1,Total 1 volume 1,Total 2 volume 1,Total 3 volume 1,Total 4 volume 1,Total 5 volume 1,Total 6 volume 1
0.1,1038034012882719.0,1307672365282961.0,121693262551923.95,147945089848319.12,0.0,0.0,0.0,0.0
0.202,1182578971717458.2,2406003027847226.0,138638900700047.52,168546266823938.06,896923889573.4973,1981106785372.8228,35395899493476.83,877964958437357.8
0.30604000000000003,1236106901185969.0,3491633758101116.0,144914213903804.28,176175299268012.94,1893245318479.5217,4182553672906.4575,74730820237417.95,1853630724514524.5
0.41216080000000005,1263380758065590.5,4586495548290585.0,148111647379552.16,180062487471976.47,2930781645110.797,6475926087362.271,115709433863894.17,2869824513777106.0
0.5204040160000001,1279747332655277.2,5697079672325078.0,150030372467844.28,182395122560422.88,3996969976982.492,8833538488636.36,157837075949653.06,3914239260226267.0
0.6308120963200001,1290607364173334.5,6826230774228988.0,151303541439259.56,183942941284152.06,5087929608751.776,11246878034385.95,200961697901327.4,4983080421787769.0
0.7434283382464002,1298324231393236.2,7975551053759139.0,152208223519340.56,185042782621082.75,6202305851097.709,13713012061232.74,245030967222166.66,6075029531090977.0
0.8582969050113283,1304088186466090.0,9146121259665796.0,152883957171037.34,185864286461851.84,7339678735815.765,16231074593342.133,290029484486027.9,7189684591751629.0
0.9754628431115548,1308560942849100.8,1.0338772249863512e+16,153408317955650.9,186501763073672.75,8500034503814.651,18801099466132.63,335957932618076.4,8327042159397064.0
1.094972099973786,1312138462689306.2,1.1554204165838752e+16,153827726246649.97,187011646696318.1,9683558402643.322,21423562915269.13,382824903588601.1,9487294305299952.0
1.2168715419732616,1315071587228736.8,1.279304486062972e+16,154171589259412.7,187429688309812.5,10890543202299.463,24099181685062.934,430643290962525.9,1.0670738979981878e+16
1.3412089728127268,1317526628264331.5,1.4055881076709576e+16,154459404452943.1,187779591391653.2,12121345023763.143,26828815614254.92,479428549354174.1,1.1877736742608432e+16
1.4680331522689813,1319618038359725.5,1.534327624362863e+16,154704589601623.0,188077668216853.03,13376360477378.482,29613417282935.656,529197794824628.4,1.3108688374865486e+16
1.597393815314361,1321427066477971.8,1.6655781218063342e+16,154916669876585.2,188335498739491.97,14656014162353.82,32454004544656.43,579969314224251.5,1.4364022650038032e+16
1.729341691620648,1323012928571774.2,1.7993941078113588e+16,155102587422838.78,188561522673605.47,15960751526834.916,35351644901885.28,631762286174201.1,1.5644189356842442e+16
1.863928525453061,1324419768806002.5,1.935829960251757e+16,155267517453819.2,188762031636758.34,17291034648011.408,38307446335775.28,684596617390199.2,1.6949655186247012e+16
2.001207095962122,1325681148061987.8,2.074940233517952e+16,155415394458365.06,188941808871116.2,18647339673479.23,41322551810745.945,738492844681524.4,1.8280901247622308e+16
2.1412312378813647,1326823024597737.8,2.2167798754727856e+16,155549261636546.2,189104554060041.5,20030155243533.996,44398135951725.81,793472075783175.9,1.9638421547455084e+16
2.284055862638992,1327865784972878.0,2.3614043860746864e+16,155671508993873.56,189253172784313.72,21439981511657.297,47535403049062.44,849555953922008.0,2.1022722055513076e+16
2.4297369798917723,1328825659565886.2,2.5088699369852452e+16,155784039288573.28,189389978267775.8,22877329540257.164,50735585898999.48,906766637323561.9,2.243432013996738e+16
2.578331719489608,1329715729208911.0,2.659233464487952e+16,155888386043785.75,189516834847286.56,24342720937788.375,53999945184313.31,965126788381166.5,2.3873744240276308e+16
2.7298983538794,1330546654036253.2,2.812552743789426e+16,155985798993658.94,189635261851361.94,25836687654671.16,57329769212989.6,1024659569233215.4,2.534153369691215e+16
2.884496320956988,1331327209805926.8,2.9688864501106148e+16,156077306958672.97,189746510039049.6,27359771885834.3,60726373899983.98,1085388641694780.9,2.683823868682191e+16
3.0421862473761276,1332064688364219.8,3.1282942102663348e+16,156163764793845.9,189851618675868.62,28912526046207.082,64191102917970.63,1147338170219886.2,2.8364420231645364e+16
3.2030299723236504,1332765200667798.2,3.290836647309959e+16,156245888913345.06,189951458721835.75,30495512796998.29,67725327968431.79,1210532827025492.2,2.9920650257005684e+16
3.3670905717701234,1333433908872150.8,3.4565754200692704e+16,156324284499227.4,190046765909713.0,32109305107921.79,71330449140612.73,1274997798797371.5,3.1507511688365692e+16
3.5344323832055258,1334075206078805.5,3.6255732588875256e+16,156399466573990.5,190138166363361.16,33754486345268.676,75007895336355.36,1340758794585352.5,3.3125598573592136e+16
3.7051210308696363,1334692856977239.5,3.797893998528724e+16,156471876488641.5,190226196642633.5,35431650378849.555,78759124745732.62,1407842054618996.5,3.4775516225435224e+16
3.879223451487029,1335290108933737.2,3.973602608956231e+16,156541894946127.25,190311319576240.25,37141401702922.02,82585625363035.58,1476274359857544.0,3.6457881379182744e+16
4.0568079205167695,1335869780508452.0,4.152765224515231e+16,156609852378576.66,190393936877584.72,38884355567634.52,86488915535813.2,1546083042144114.0,3.81733223621401e+16
4.237944078927105,1336434332562836.8,4.335449171920499e+16,156676037283536.62,190474399279301.38,40661138118497.63,90470544541830.98,1617295994873042.2,3.9922479272546024e+16
4.422702960505647,1336985925816062.5,4.5217229973564296e+16,156740702971562.9,190553014736447.1,42472386542066.875,94532093190326.19,1689941684106139.8,4.170600416620169e+16
4.61115701971576,1337526467763827.2,4.711656492925807e+16,156804073066714.78,190630055113571.9,44318749216501.375,98675174445006.92,1764049160092897.2,4.3524561249559576e+16
4.803380160110075,1338057651180058.8,4.905320722632004e+16,156866346020280.88,190705761672148.84,46200885865999.94,102901434067000.53,1839648069163144.5,4.537882707835135e+16
4.9994477633122765,1338580985908872.8,5.102788048039012e+16,156927698837887.6,190780349601701.75,48119467718358.13,107212551276510.22,1916768665970644.2,4.7269490761076136e+16
5.199436718578522,1339097825270427.0,5.304132153723875e+16,156988290175173.78,190854011783282.34,50075177665063.41,111610239432335.19,1995441826073207.2,4.9197254166839224e+16
5.403425452950093,1339609388114754.8,5.509428072612462e+16,157048262923257.22,190926921932675.84,52068710423472.98,116096246728704.45,2075699058840212.5,5.116283213716157e+16
5.611493962009095,1340116777337416.5,5.718752211271714e+16,157107746379406.97,190999237239335.78,54100772700708.42,120672356909100.02,2157572520682402.5,5.316695270146877e+16
5.823723841249277,1340620995501838.0,5.9321823752169864e+16,157166858078515.03,191071100592943.84,56172083358971.66,125340389996897.1,2241095028601734.5,5.521035729603899e+16
6.040198318074262,1341122958082603.5,6.14979779428212e+16,157225705345670.94,191142642470902.88,58283373582030.945,130102203042788.12,2326300074061392.0,5.729380098623593e+16
6.261002284435747,1341623504742448.0,6.371679148090968e+16,157284386618205.88,191213982545582.3,60435387042664.52,134959690889042.08,2413221837177740.5,5.9418052691893976e+16
6.486222330124463,1342123408975972.5,6.597908591661607e+16,157342992576275.06,191285231058782.8,62628880070873.03,139914786950730.89,2501895201237425.5,6.158389541574589e+16
6.715946776726952,1342623386390467.2,6.828569781169181e+16,157401607113649.2,191356490001954.97,64864621822689.664,144969464014111.0,2592355767543867.0,6.379212647480509e+16
6.950265712261491,1343124101844324.8,7.0637478998882e+16,157460308174583.5,191427854133595.28,67143394449430.98,150125735052396.88,2684639870598349.0,6.604355773462927e+16
7.18927102650672,1343626175623865.0,7.303529684331189e+16,157519168477955.47,191499411859596.8,69465993267235.47,155385654059197.8,2778784593621374.5,6.833901584640273e+16
7.433056447036854,1344130188807540.5,7.548003450597837e+16,157578256146132.78,191571245997776.9,71833226926748.02,160751316899925.12,2874827784421014.0,7.067934248677911e+16
7.681717575977592,1344636687940742.2,7.797259120945355e+16,157637635253020.0,191643434444149.97,74245917582802.53,166224862181500.97,2972808071614918.5,7.306539460043645e+16
7.935351927497144,1345146189123644.5,8.051388250589243e+16,157697366303296.62,191716050755547.4,76704901063963.62,171808472140717.97,3072764881213614.5,7.549804464529162e+16
8.194058966047088,1345659181597593.5,8.310484054740862e+16,157757506652864.78,191789164660765.25,79211027041778.52,177504373551632.0,3174738453572768.0,7.79781808403311e+16
8.45794014536803,1346176130901660.0,8.574641435887358e+16,157818110878904.22,191862842510445.78,81765159199595.61,183314838652368.8,3278769860722648.5,8.050670741600806e+16
8.72709894827539,1346697481659531.5,8.843957011317376e+16,157879231106593.84,191937147674282.22,84368175400796.19,189242186091758.9,3384901024083200.0,8.308454486715762e+16
9.0016409272409,1347223660047660.8,9.118529140894864e+16,157940917298462.34,192012140892786.84,87020967856284.19,195288781896219.88,3493174732573620.5,8.571263020838354e+16
9.281673745785717,1347755075987678.0,9.398457955082178e+16,158003217511413.56,192087880589765.16,89724443291072.89,201457040457321.72,3603634661125480.0,8.839191723185906e+16
9.567307220701432,1348292125099665.5,9.683845383212686e+16,158066178125719.22,192164423150702.9,92479523109803.25,207749425540483.47,3716325389608839.0,9.112337676749179e+16
9.85865336511546,1348835190447508.5,9.974795182011691e+16,158129844049633.6,192241823171523.12,95287143561018.61,214168451315264.97,3831292422180938.5,9.390799694539107e+16
10.155826432417769,1349384644103007.0,1.027141296436398e+17,158194258902759.28,192320133681508.6,98148255900014.77,220716683407723.9,3948582207067608.5,9.674678346057739e+16
10.458942961066125,1349940848551601.2,1.0573806228325419e+17,158259465180848.88,192399406343651.88,101063826550083.1,227396739975330.8,4068242156787356.0,9.964075983986523e+16
10.768121820287448,1350504157959429.5,1.0882084386374589e+17,158325504404347.0,192479691635244.53,104034837261942.95,234211292804932.22,4190320668828942.0,1.0259096771085094e+17
11.083484256693197,1351074919318720.0,1.1196358794900907e+17,158392417252669.44,192561039011119.0,107062285271170.39,241163068434281.97,4314867146793058.0,1.0559846707292797e+17
11.405153941827061,1351653473486142.5,1.1516742783923254e+17,158460243685932.97,192643497051642.88,110147183453399.66,248254849297656.7,4441932022009216.0,1.0866433657024866e+17
11.733257020663602,1352240156126939.5,1.1843351687033824e+17,158529023055641.2,192727113597278.9,113290560477089.55,255489474896090.97,4571566775639290.0,1.1178967376654597e+17
12.067922161076874,1352835298575852.2,1.2176302871560203e+17,158598794205613.97,192811935871287.06,116493460953612.11,262869842992786.03,4703823961279307.0,1.1497559542172366e+17
12.409280604298411,1353439228624556.0,1.2515715768938531e+17,158669595564301.88,192898010591954.2,119756945584437.11,270398910834245.5,4838757228071423.0,1.1822323777011443e+17
12.75746621638438,1354052271243961.8,1.2861711905289445e+17,158741465229464.66,192985384075540.7,123082091305153.94,278079696397709.6,4976421344338535.0,1.2153375680030403e+17
13.112615540712067,1354674749248866.0,1.3214414932187803e+17,158814441046093.1,193074102331007.12,126469991426077.83,285915279665483.3,5116872221753770.0,1.2490832853640662e+17
13.474867851526309,1355306983911359.5,1.3573950657616613e+17,158888560678317.25,193164211147441.34,129921755769169.25,293908803926745.1,5260166940058138.0,1.2834814932067483e+17
13.844365208556836,1355949295528736.0,1.394044707709473e+17,158963861675988.78,193255756174997.84,133438510800988.58,302063477107452.75,5406363772339240.0,1.3185443609731979e+17
14.221252512727972,1356602003950908.2,1.4314034404966757e+17,159040381536511.3,193348783000070.6,137021399761395.5,310382573128976.0,5555522210884706.0,1.3542842669740507e+17
14.605677562982532,1357265429071812.5,1.469484510584336e+17,159118157762448.28,193443337215325.1,140671582787691.81,318869433296083.5,5707702993624343.0,1.3907138012467579e+17
14.997791114242183,1357939891288672.0,1.508301392617865e+17,159197227915367.0,193539464485159.8,144390237033895.22,327527467714948.06,5862968131174974.0,1.4278457684217349e+17
15.397746936527026,1358625711932688.5,1.547867792597137e+17,159277629666327.7,193637210607085.88,148178556784821.4,336360156741828.8,6021380934502827.0,1.465693190594783e+17
15.805701875257567,1359323213674168.5,1.5881976510574512e+17,159359400843381.66,193736621569471.1,152037753564636.44,345371052463112.94,6183006043218184.0,1.5042693102041238e+17
16.221815912762718,1360032720904961.5,1.6293051462598214e+17,159442579476402.25,193837743606043.97,155969056239535.0,354563780207415.9,6347909454517759.0,1.5435875929103043e+17
16.64625223101797,1360754560100564.0,1.6712046973889325e+17,159527203839538.75,193940623247503.66,159973711114181.38,363942040090439.75,6516158552790331.0,1.583661730477103e+17
17.079177275638333,1361489060164176.0,1.7139109677569507e+17,159613312491550.53,194045307370555.88,164052982021543.0,373509608593329.3,6687822139901888.0,1.6245056436515213e+17
17.5207608211511,1362236552754641.2,1.7574388680114867e+17,159700944314253.62,194151843244652.0,168208150405727.78,383270340175245.06,6862970466176615.0,1.6661334850407747e+17
17.97117603757412,1362997372600069.5,1.8018035593455354e+17,159790138549286.75,194260278576690.0,172440515397433.62,393228168920934.6,7041675262090507.0,1.708559641984185e+17
18.430599558325603,1363771857798732.8,1.8470204567075354e+17,159880934833387.62,194370661553896.25,176751393881590.8,403387110224042.6,7224009770695146.0,1.7517987394176656e+17
18.899211549492115,1364560350108653.2,1.893105232009251e+17,159973373232342.44,194483040885101.44,181142120556778.38,413751262506969.2,7410048780789043.0,1.795865642728461e+17
19.37719578048196,1365363195227222.5,1.9400738173292598e+17,160067494273767.84,194597465840591.8,185614047985974.84,424324808978064.94,7599868660854763.0,1.8407754605976554e+17
19.864739696091597,1366180743061990.2,1.9879424081095978e+17,160163338978854.25,194713986290704.03,190168546638187.84,435112019426985.5,7793547393780455.0,1.8865435478278262e+17
20.36203449001343,1367013347993713.2,2.0367274663430995e+17,160260948893206.53,194832652743313.97,194807004920503.44,446117252059038.2,7991164612384626.0,1.9331855081531552e+17
20.869275179813698,1367861369132615.8,2.0864457237487306e+17,160360366116885.88,194953516380363.8,199530829200069.66,457344955369365.0,8192801635763677.0,1.980717197029099e+17
21.38666068340997,1368725170568773.5,2.1371141849321962e+17,160461633333762.34,195076629093544.53,204341443815521.8,468799670057836.5,8398541506482079.0,2.0291547243986778e+17
21.91439389707817,1369605121617386.0,2.1887501305288902e+17,160564793840270.78,195202043519253.7,209240291077344.5,480486030985536.94,8608469028625519.0,2.0785144574322374e+17
22.452681775019734,1370501597059702.8,2.241371120326181e+17,160669891573654.5,195329813072934.78,214228831256644.4,492408769173725.1,8822670806737806.0,2.128813023237439e+17
23.00173541052013,1371414977380283.2,2.294994996361829e+17,160776971139781.5,195459991982891.56,219308542561795.94,504572713846213.44,9041235285663030.0,2.1800673115360893e+17
23.561770118730532,1372345649001181.5,2.3496398859952413e+17,160886077840597.1,195592635323664.38,224480921102416.8,516982794516068.6,9264252791314482.0,2.232294477304256e+17
24.133005521105144,1373294004513645.2,2.4053242049481222e+17,160997257701289.72,195727799049055.62,229747480840097.62,529644043117597.9,9491815572392780.0,2.2855119433719792e+17
24.715665631527248,1374260442907892.2,2.4620666603108413e+17,161110557497225.3,195865540024874.1,235109753525313.84,542561596184584.1,9724017843076096.0,2.3397374029786813e+17
25.309978944157795,1375245369801351.8,2.519886253510839e+17,161226024780707.44,196005916061468.72,240569288619922.88,555740697075743.06,9960955826705528.0,2.394988822280393e+17
25.91617852304095,1376249197665937.8,2.5788022832390762e+17,161343707907621.8,196148985946119.4,246127653204637.44,569186698248409.4,1.0202727800489604e+16,2.4512844428044547e+17
26.53450209350177,1377272346054717.8,2.638834348330465e+17,161463656064006.28,196294809475341.22,251786431870859.1,582905063581454.1,1.0449434141252138e+16,2.5086427838474765e+17
27.165192135371807,1378315241828336.5,2.700002350594024e+17,161585919292601.03,196443447487158.9,257547226596227.38,596901370748471.0,1.0701177372248482e+16,2.5670826448120086e+17
27.808495978079243,1379378319381665.8,2.762326497588348e+17,161710548519414.44,196594961893405.47,263411656603244.6,611181313642272.0,1.0958062211075316e+16,2.6266231074771936e+17
28.464665897640828,1380462020870898.0,2.8258273053377507e+17,161837595580348.28,196749415712091.8,269381358200308.78,625750704851756.2,1.1220195618699882e+16,2.6872835381985968e+17
29.133959215593645,1381566796441484.0,2.8905256009843155e+17,161967113247921.84,196906873099893.22,275457984604478.3,640615478192218.8,1.1487686849635394e+16,2.749083590032103e+17
29.816638399905518,1382693104457223.0,2.956442525370928e+17,162099155258125.28,197067399384799.1,281643205745290.06,655781691290193.4,1.1760647503289326e+16,2.8120432047766787e+17
30.51297116790363,1383841411730745.0,3.0235995355500576e+17,162233776337443.53,197231061098961.12,287938708048915.56,671255528223939.6,1.2039191576512216e+16,2.87618261493053e+17
31.223230591261704,1385012193755682.8,3.09201840721298e+17,162371032230072.38,197397926011786.56,294346194201963.25,687043302220683.4,1.2323435517374876e+16,2.941522345555034e+17
31.947695203086937,1386205934940791.0,3.161721237033989e+17,162510979725367.28,197568063163305.3,300867382894187.4,703151458411737.5,1.261349828020298e+16,3.008083216040605e+17
32.686649107148675,1387423128846271.0,3.232730444923659e+17,162653676685547.62,197741542897848.38,307504008539385.7,719586576646652.5,1.2909501381897732e+16,3.0758863417685216e+17
33.44038208929165,1388664278422504.5,3.3050687761853626e+17,162799182073683.0,197918436898077.47,314257820973732.25,736355374367555.5,1.3211568959572624e+16,3.144953135662278e+17
34.20918973107749,1389929896251433.2,3.3787593035688966e+17,162947555981995.12,198098818219385.4,321130585130810.56,753464709544826.2,1.3519827829536106e+16,3.215305309622257e+17
34.993373525699035,1391220504790816.5,3.453825429214753e+17,163098859660489.62,198282761324709.47,328124080692566.0,770921583675297.1,1.3834407547651322e+16,3.286964875836801e+17
35.793240996213015,1392536636621544.8,3.530290886482547e+17,163253155545951.97,198470342119779.34,335240101715445.1,788733144844161.0,1.4155440471103868e+16,3.35995414796304e+17
36.60910581613728,1393878834698238.0,3.608179741656722e+17,163410507291324.5,198661637988832.75,342480456230919.94,806906690851763.4,1.4483061821609394e+16,3.434295742170025e+17
37.44128793246003,1395247652603289.8,3.6875163955226566e+17,163570979795489.4,198856727830823.62,349846965819641.5,825449672406488.8,1.481740975009313e+16,3.5100125780371674e+17
38.29011369110923,1396643654804547.8,3.7683255848057446e+17,163734639233479.78,199055692096149.28,357341465158446.3,844369696384939.5,1.5158625402874338e+16,3.587127879300234e+17
39.15591596493141,1398067416916858.2,3.8506323834661824e+17,163901553087138.75,199258612823923.34,364965801539422.5,863674529160592.4,1.550685298938872e+16,3.665665174437018e+17
40.03903428423004,1399519525967563.0,3.9344622038415686e+17,164071790176247.12,199465573679819.88,372721834360274.06,883372100002178.4,1.5862239851482274e+16,3.7456482970848877e+17
40.93981496991464,1401000580666204.0,4.0198407976296045e+17,164245420690139.84,199676659994508.2,380611434585191.2,903470504542942.1,1.622493653431102e+16,3.8271013862817024e+17
41.85861126931294,1402511191678531.2,4.106794256702576e+17,164422516219831.25,199891958802710.06,388636484175463.4,923978008322010.6,1.6595096858880614e+16,3.910048886521786e+17
