t(s),Total solute volume 1,Total retention volume 1,Total 1 volume 1,Total 2 volume 1,Total 3 volume 1,Total 4 volume 1,Total 5 volume 1,Total 6 volume 1
0.1,964857416365797.9,1154672529873703.2,88762465329957.31,101052648177948.16,0.0,0.0,0.0,0.0
0.202,1433105019322966.2,1757292175781982.5,131839101586959.89,150093740589146.5,58568696542.25952,116896648236.3782,1795017242027.8147,40283831696102.3
0.30604000000000003,1774936180174532.0,2229829951731930.0,163286003671010.66,185894827890991.66,146522322003.4696,292446803307.6568,4490720771151.682,100783250098933.83
0.41216080000000005,2052118360878216.0,2640996899307915.5,188785495499243.94,214925017565403.75,256644554500.31906,512249803363.5104,7865971206724.82,176533159800463.62
0.5204040160000001,2288144758716588.5,3016338928881825.5,210498843694231.3,239644828487602.34,385374559700.463,769200509974.4066,11811664779293.99,265084258134429.9
0.6308120963200001,2494902739974253.0,3368506043625768.0,229519631541876.0,261299263129776.66,530527809168.3866,1058940547965.5833,16260876913489.186,364934063709238.25
0.7434283382464002,2679407961362703.0,3704816775678224.0,246493267345734.1,280623093996686.53,690610861302.8794,1378490777653.253,21167862323717.605,475055489010428.9
0.8582969050113283,2846222860798185.0,4029946194091501.0,261839474509379.5,298094160022518.9,864535495925.4281,1725680786816.6765,26499294357022.684,594700188121650.8
0.9754628431115548,2998520065638965.5,4347095244453995.5,275850120226814.9,314044740769328.9,1051475585178.7056,2098863249338.5186,32229878744996.984,723300100239374.2
1.094972099973786,3138616710710911.0,4658572003789448.0,288738370295083.25,328717517288909.5,1250786458286.7305,2496753005152.479,38339882559903.93,860411983471205.4
1.2168715419732616,3268269761750953.5,4966109489184727.0,300665857519240.4,342296502305889.7,1461955540623.8877,2918328554967.6924,44813621599892.766,1005683461913156.8
1.3412089728127268,3388851395355228.0,5271052350314228.0,311758815864792.0,354925408329089.0,1684570211673.5796,3362767918824.4683,51638475456983.89,1158830917177637.5
1.4680331522689813,3501459167147274.0,5574472871408797.0,322118215424869.2,366719185921429.6,1918295850358.7063,3829404825510.0186,58804214780238.92,1319624387459111.8
1.597393815314361,3606988416439194.0,5877246380980338.0,331826423317616.8,377771606875142.7,2162860256587.4368,4317697626871.3594,66302523938702.07,1487876852526229.0
1.729341691620648,3706181655965707.5,6180102131763104.0,340951747315652.2,388160436958950.2,2418042248645.3164,4827206545758.906,74126651652968.39,1663436391075417.5
1.863928525453061,3799663329387410.5,6483658717983755.0,349551633377242.4,397951076184200.44,2683663099360.7515,5357576589230.308,82271148620642.1,1846180290725666.5
2.001207095962122,3887964928877451.5,6788449392846932.0,357674976349317.06,407199189451260.8,2959579963415.9946,5908524435432.92,90731666160272.95,2036010527609787.8
2.1412312378813647,3971543565713151.0,7094940585859586.0,365363828376877.3,415952651507853.56,3245680738948.8647,6479828182878.418,99504798809218.16,2232850232530666.8
2.284055862638992,4050795976015765.5,7403545719979093.0,372654687366945.4,424253013815645.7,3541879986301.5146,7071319209469.488,108587959318148.92,2436640884266813.5
2.4297369798917723,4126069269760192.5,7714635704847664.0,379579485848250.06,432136630328921.6,3848115641670.364,7682875617937.656,117979278005968.69,2647340049644721.0
2.578331719489608,4197669308834834.0,8028547031529410.0,386166361714385.9,439635534955990.1,4164346339063.0083,8314416895326.374,127677520757232.62,2864919542032580.0
2.7298983538794,4265867327725423.0,8345588105283777.0,392440267296413.7,446778134964895.44,4490549205077.411,8965899516151.033,137682021510402.28,3089363905065408.0
2.884496320956988,4330905230520260.0,8666044263132147.0,398423456663097.3,453589765755953.06,4826718026343.164,9637313289362.096,147992626167760.28,3320669152709367.5
3.0421862473761276,4392999876393947.5,8990181795498136.0,404135879865787.4,460093139694388.94,5172861714378.052,10328678298956.213,158609645621268.84,3558841713909412.5
3.2030299723236504,4452346581945722.0,9318251203848214.0,409595505137519.3,466308712921590.2,5529003010506.326,11040042323788.824,169533816136981.0,3803897542372123.5
3.3670905717701234,4509122009963481.0,9650489865310556.0,414818584646075.2,472254987904739.4,5895177386547.774,11771478648208.717,180766265740906.1,4055861361020596.5
3.5344323832055258,4563486572229005.0,9987124232023270.0,419819875541068.4,477948765090407.9,6271432106666.277,12523084194453.53,192308485545847.47,4314766017315806.5
3.7051210308696363,4615586443595051.0,1.0328371661846082e+16,424612825239812.4,483405353845377.94,6657825423035.116,13294977922249.229,204162305181491.34,4580651930639078.0
3.879223451487029,4665555262256917.0,1.0674441954360082e+16,429209727844523.94,488638750531612.8,7054425883504.5,14087299452089.29,216329871659394.1,4853566616732032.0
4.0568079205167695,4713515574555785.0,1.1025538649298494e+16,433621857057619.7,493661789825191.8,7461311733706.795,14900207877151.484,228813631134796.2,5133564277114245.0
4.237944078927105,4759580070176602.0,1.138186013200756e+16,437859579814262.3,498486274082600.3,7878570399338.662,15733880735401.617,241616313128403.56,5420705443670964.0
4.422702960505647,4803852644119428.0,1.1743600581054836e+16,441932453978863.6,503123084564430.0,8306298036951.232,16588513118608.168,254740916850709.56,5715056670385828.0
4.61115701971576,4846429314540916.0,1.2110950785869774e+16,445849312782299.75,507582277563897.94,8744599143631.276,17464316899084.748,268190699334326.88,6016690265605597.0
4.803380160110075,4887399019918739.0,1.248409885672818e+16,449618338157390.5,511873167896462.94,9193586217594.645,18361520058248.434,281969165129981.25,6325684059349769.0
4.9994477633122765,4926844314579807.0,1.28632308450633e+16,453247124724311.1,516004401744757.0,9653379463031.514,19280366103712.22,296080057362234.9,6642121201085425.0
5.199436718578522,4964841978155894.0,1.3248531288695588e+16,456742735857715.9,519984020488844.56,10124106533610.324,20221113563759.992,310527349973727.56,6966089984122027.0
5.403425452950093,5001463551769201.0,1.3640183693898234e+16,460111753013361.8,523819516862683.75,10605902309920.012,21184035549794.844,325315241013437.5,7297683693379831.0
5.611493962009095,5036775811542279.0,1.4038370964088412e+16,463360319288853.5,527517884546357.06,11098908706844.3,22169419378776.6,340448146846390.44,7637000473778910.0
5.823723841249277,5070841188248685.0,1.4443275783233496e+16,466494178029573.5,531085662117437.1,11603274507453.975,23177566248847.19,355930697180390.7,7984143216901087.0
6.040198318074262,5103718140479980.0,1.4855080960691724e+16,469518707158347.4,534528972133987.1,12119155220493.662,24208790962320.305,371767730820354.1,8339219463916234.0
6.261002284435747,5135461487530933.0,1.5273969743097474e+16,472438949799356.8,537853555998706.56,12646712958949.988,25263421691033.04,387964292073449.56,8702341323045023.0
6.486222330124463,5166122707241956.0,1.5700126097997896e+16,475259641678276.6,541064805152931.75,13186116337531.865,26341799779742.543,404525627738767.8,9073625400068704.0
6.715946776726952,5195750203244683.0,1.6133734973208158e+16,477985235707647.0,544167789066140.06,13737540387184.176,27444279583831.582,421457184624172.06,9453192740594518.0
6.950265712261491,5224389545399792.0,1.6574982535243176e+16,480619924106053.25,547167280417775.25,14301166485002.334,28571228338078.0,438764607540495.7,9841168782956012.0
7.18927102650672,5252083686669085.0,1.7024056389681638e+16,483167658349367.8,550067777810972.75,14877182298123.986,29723026053660.492,456453737729717.9,1.0237683320770712e+16
7.433056447036854,5278873159207158.0,1.7481145785898178e+16,485632167210270.8,552873526309867.8,15465781740353.062,30900065440931.81,474530611689169.1,1.0642870474300412e+16
7.681717575977592,5304796252073326.0,1.7946441808253162e+16,488016973106953.5,555588536051945.8,16067164940424.764,32102751855794.938,493001460358608.7,1.105686866986615e+16
7.935351927497144,5329889172641522.0,1.8420137555534984e+16,490325406952080.3,558216599153031.4,16681538220952.162,33331503267783.508,511872708640983.94,1.1479820626658602e+16
8.194058966047088,5354186193511511.0,1.890242831020585e+16,492560621667945.2,560761305093763.0,17309114087208.674,34586750248174.973,531150975231240.2,1.1911873350366032e+16
8.45794014536803,5377719786491308.0,1.939351169879421e+16,494725604512251.44,563226054752024.9,17950111224999.85,35868935976662.62,550843072730582.4,1.2353178133106332e+16
8.72709894827539,5400520745023297.0,1.9893587844600016e+16,496823188340735.4,565614073225003.6,18604754506963.418,37178516265284.586,570956008026188.5,1.2803890559212546e+16
9.0016409272409,5422618296254826.0,2.040285951373286e+16,498856061917173.8,567928421566740.0,19273275006712.03,38515959598459.21,591496982918742.4,1.326417051647024e+16
9.281673745785717,5444040203809907.0,2.0921532255371228e+16,500826779367888.1,570172007551720.5,19955910020298.41,39881747188106.06,612473394982127.2,1.3734182212451166e+16
9.567307220701432,5464812862191217.0,2.14498145370261e+16,502737768866303.7,572347595561905.6,20652903094539.254,41276373042947.99,633892838641424.9,1.4214094195627772e+16
9.85865336511546,5484961383633935.0,2.198791787549679e+16,504591340623110.0,574457815683219.8,21364504061786.92,42700344051190.99,655763106456876.4,1.4704079380986666e+16
10.155826432417769,5504509678138506.0,2.253605696412662e+16,506389694248901.1,576505172087644.6,22090969080779.598,44154180075870.87,678092190602940.8,1.5204315079891998e+16
10.458942961066125,5523480527327355.0,2.30944497968965e+16,508134925548659.56,578492050768466.5,22832560683242.94,45638414062229.22,700888284532656.8,1.5714983033973918e+16
10.768121820287448,5541895652699471.0,2.366331778983539e+16,509829032800867.94,580420726688806.6,23589547825949.496,47153592156558.336,724159784818773.8,1.6236269452844922e+16
11.083484256693197,5559775778794505.0,2.4242885900173148e+16,511473922568305.44,582293370396992.9,24362205947972.78,48700273836014.3,747915293163929.6,1.676836505546537e+16
11.405153941827061,5577140691722996.0,2.4833382743617116e+16,513071415082574.6,584112054156628.1,25150817032902.527,50279032048951.89,772163618573085.2,1.7311465115000012e+16
11.733257020663602,5594009293471970.0,2.5435040710094064e+16,514623249239964.75,585878757634195.6,25955669675810.043,51890453365389.57,796913779682225.8,1.7865769507024518e+16
12.067922161076874,5610399652352777.0,2.6048096078263304e+16,516131087242410.06,587595373182607.9,26777059154775.89,53535138137253.68,822175007237940.5,1.843148276095553e+16
12.409280604298411,5626329049920338.0,2.667278912907969e+16,517596518913863.06,589263710755232.2,27615287506811.758,55213700668092.125,847956746723209.0,1.9008814114592124e+16
12.75746621638438,5641814024660942.0,2.7309364258655036e+16,519021065719361.56,590885502481442.6,28470663608025.613,56926769391985.984,874268661125187.9,1.9597977571668044e+16
13.112615540712067,5656870412716005.0,2.795807009064618e+16,520406184511422.8,592462406931747.9,29343503257895.09,58674987061419.414,901120633841407.2,2.019919196232629e+16
13.474867851526309,5671513385883039.0,2.8619159588376148e+16,521753271025980.3,593996013097778.8,30234129267529.457,60459010943895.17,928522771721110.0,2.0812681006436812e+16
13.844365208556836,5685757487113322.0,2.9292890166876244e+16,523063663147978.2,595487844110041.6,31142871551811.586,62279513027115.79,956485408239020.2,2.1438673379686892e+16
14.221252512727972,5699616663703557.0,2.997952380502245e+16,524338643964873.56,596939360714216.2,32070067225325.094,64137180232568.89,985019106799091.0,2.2077402782382876e+16
14.605677562982532,5713104298361936.0,3.06793271579252e+16,525579444624565.94,598351964524792.6,33016060701980.277,66032714637380.87,1014134664166182.0,2.2729108010908316e+16
14.997791114242183,5726233238311932.0,3.1392571669716004e+16,526787247012808.75,599727001073204.2,33981203798263.18,67966833704323.56,1043843114023945.8,2.339403303179154e+16
15.397746936527026,5739015822582466.0,3.211953368686916e+16,527963186263783.3,601065762666023.6,34965855840042.56,69940270519875.055,1074155730657429.8,2.407242705833954e+16
15.805701875257567,5751463907620376.0,3.2860494572180816e+16,529108353116330.7,602369491067432.2,35970383772871.25,71953774040254.6,1105084032759212.8,2.47645446298043e+16
16.221815912762718,5763588891348845.0,3.3615740819522784e+16,530223796127210.4,603639380018938.6,36995162275734.89,74008109345367.23,1136639787358139.8,2.5470645693048496e+16
16.64625223101797,5775401735784920.0,3.4385564169479124e+16,531310523751816.4,604876577608192.0,38040573878197.52,76104057900607.42,1168835013869898.8,2.6190995686685456e+16
17.079177275638333,5786912988319892.0,3.517026172596728e+16,532369506301871.06,606082188497735.9,39107009080908.625,78242417826484.14,1201681988268941.0,2.6925865627671388e+16
17.5207608211511,5798132801757204.0,3.597013607393749e+16,533401677788818.4,607257276023653.0,40194866479432.91,80424004176044.0,1235193247381410.0,2.7675532200330956e+16
17.97117603757412,5809070953195162.0,3.678549539824163e+16,534407937660949.6,608402864173198.0,41304552891376.79,82649649220077.62,1269381593298909.2,2.8440277847801892e+16
18.430599558325603,5819736861834229.0,3.76166536037543e+16,535389152441594.44,609519939449824.4,42436483486785.516,84920202740109.03,1304260097913158.8,2.9220390865888616e+16
18.899211549492115,5830139605782530.0,3.846393043682755e+16,536346157275152.2,610609452633290.6,43591081921787.6,87236532329173.58,1339842107571678.5,3.0016165499313972e+16
19.37719578048196,5840287937927394.0,3.932765160815353e+16,537279757387190.6,611672320441907.8,44768780475473.79,89599523700399.5,1376141247854819.5,3.0827902040366284e+16
19.864739696091597,5850190300934900.0,4.020814891710771e+16,538190729464345.0,612709427103517.8,45970020189992.055,92010081003424.3,1413171428474575.2,3.165590692993691e+16
20.36203449001343,5859854841435431.0,4.1105760377643064e+16,539079822959323.56,613721625841181.8,47195251013850.39,94469127148673.06,1450946848295825.2,3.2500492860948708e+16
20.869275179813698,5869289423448067.0,4.202083034579818e+16,539947761325886.56,614709740279157.8,48444931948418.72,96977604139542.97,1489482000480589.2,3.336197888417652e+16
21.38666068340997,5878501641093050.0,4.295370964888569e+16,540795243188336.1,615674565774327.5,49719531197624.01,99536473412542.45,1528791677756160.2,3.4240690516463616e+16
21.91439389707817,5887498830637662.0,4.390475571641847e+16,541622943449683.06,616616870677789.4,51019526320835.79,102146716185438.5,1568890977808093.8,3.5136959851339012e+16
22.452681775019734,5896288081917771.0,4.487433271283548e+16,542431514342380.3,617537397531087.1,52345404388939.52,104809333813476.19,1609795308798925.5,3.605112567204288e+16
23.00173541052013,5904876249173896.0,4.586281167208134e+16,543221586425178.3,618436864201092.9,53697662143600.266,107525348153735.25,1651520395013889.8,3.6983533566969944e+16
23.561770118730532,5913269961338000.0,4.687057063409502e+16,543993769529480.1,619315964957381.6,55076806159717.555,110295801937699.81,1694082282634730.0,3.793453604753794e+16
24.133005521105144,5921475631804703.0,4.78979947832621e+16,544748653658231.5,620175371495603.1,56483353011074.734,113121759152119.34,1737497345642944.5,3.890449266849734e+16
24.715665631527248,5929499467717997.0,4.894547658887909e+16,545486809840275.06,621015733910112.5,57917829439189.8,116004305428244.81,1781782291853854.0,3.989377015068944e+16
25.309978944157795,5937347478802777.0,5.001341594768372e+16,546208790942788.4,621837681618918.2,59380772525370.875,118944548439528.98,1826954169082921.8,4.090274250627146e+16
25.91617852304095,5945025485767834.0,5.110222032849574e+16,546915132444343.9,622641824243761.1,60872729865986.02,121943618307888.77,1873030371445902.0,4.1931791166420056e+16
26.53450209350177,5952539128305940.0,5.221230491902031e+16,547606353170858.75,623428752447983.0,62394259750953.38,125002668018621.77,1920028645794378.2,4.298130511153159e+16
27.165192135371807,5959893872714151.0,5.334409277485685e+16,548282955996645.56,624199038734632.4,63945931345461.53,128122873844089.78,1967967098288453.0,4.405168100393335e+16
27.808495978079243,5967095019156512.0,5.449801497076001e+16,548945428512536.1,624953238207107.9,65528324874927.28,131305435776265.55,2016864201108256.8,4.514332332312444e+16
28.464665897640828,5974147708589430.0,5.567451075419905e+16,549594243662989.1,625691889294471.0,67142031813202.6,134551577968267.66,2066738799306160.5,4.625664450356455e+16
29.133959215593645,5981056929369006.0,5.687402770125485e+16,550229860353935.3,626415514443464.1,68787655074039.28,137862549184987.86,2117610117801581.5,4.739206507502786e+16
29.816638399905518,5987827523558099.0,5.809702187490283e+16,550852724032995.7,627124620779060.0,70465809205819.39,141239623262936.9,2169497768520307.5,4.855001380554351e+16
30.51297116790363,5994464192949922.0,5.93439579857176e+16,551463267243623.5,627819700735331.9,72177120589566.36,144684099579433.7,2222421757680365.2,4.9730927846939496e+16
31.223230591261704,6000971504823740.0,6.061530955504624e+16,552061910154610.0,628501232658276.6,73922227640239.06,148197303531259.06,2276402493226532.0,5.093525288301162e+16
31.947695203086937,6007353897447614.0,6.191155908068519e+16,552649061066300.1,629169681382129.2,75701781011327.39,151780587022912.75,2331460792415581.5,5.216344328033933e+16
32.686649107148675,6013615685341505.0,6.323319820510343e+16,553225116894783.4,629825498780578.9,77516443802749.12,155435328964601.72,2387617889554560.5,5.341596224176462e+16
33.44038208929165,6019761064314277.0,6.458072788625046e+16,553790463635270.8,630469124294316.6,79366891772065.33,159162935780098.88,2444895443894188.0,5.46932819625601e+16
34.20918973107749,6025794116286052.0,6.59546585709846e+16,554345476805734.3,631100985436100.8,81253813549015.33,162964841924619.2,2503315547679873.5,5.599588378930326e+16
34.993373525699035,6031718813907957.0,6.735551037116233e+16,554890521871889.5,631721498274590.1,83177910853384.39,166842510412846.78,2562900734362539.5,5.732425838147914e+16
35.793240996213015,6037539024989410.0,6.878381324242178e+16,555425954654502.6,632331067898028.1,85139898716206.5,170797433357272.8,2623673986971808.5,5.8678905875834424e+16
36.60910581613728,6043258516743497.0,7.024010716569819e+16,555952121719934.56,632930088858878.9,87140505704310.9,174831132516982.9,2685658746653999.0,6.006033605350042e+16
37.44128793246003,6048880959859602.0,7.172494233150534e+16,556469360754807.1,633518945600370.2,89180474148214.92,178945159857055.84,2748878921377316.5,6.146906850990799e+16
38.29011369110923,6054409932412390.0,7.323887932701813e+16,556978000925617.2,634098012865883.6,91260560373368.03,183141098118730.0,2813358894807065.0,6.290563282751515e+16
39.15591596493141,6059848923615502.0,7.47824893259873e+16,557478363224044.06,634667656092099.2,93381534934747.12,187420561400487.8,2879123535353240.0,6.4370568751367064e+16
40.03903428423004,6065201337427874.0,7.635635428152054e+16,557970760798733.2,635228231786700.1,95544182854808.23,191785195750236.3,2946198205393409.0,6.586442636750871e+16
40.93981496991464,6070470496020292.0,7.796106712176274e+16,558455499274190.4,635780087891416.2,97749303864786.11,196236679768729.66,3014608770673455.5,6.738776628426974e+16
41.85861126931294,6075659643109075.0,7.959723194850224e+16,558932877057470.9,636323564131204.6,99997712649348.28,200776725224419.47,3084381609888988.0,6.894115981644167e+16
42.7957834946992,6080771947163712.0,8.126546423873734e+16,559403185633266.94,636858992350163.2,102290239094592.4,205407077679889.28,3155543624450302.5,7.0525189172365464e+16
43.751699164593184,6085810504494633.0,8.296639104922734e+16,559866709847965.25,637386696834948.5,104627728539381.27,210129517130055.1,3228122248433716.0,7.214044764394653e+16
44.72673314788505,6090778342227325.0,8.470065122406011e+16,560323728183254.7,637906994626238.0,107011042030011.56,214945858652302.1,3302145458722144.5,7.378753979961886e+16
