t(s),Total solute volume 1,Total retention volume 1,Total 1 volume 1,Total 2 volume 1,Total 3 volume 1,Total 4 volume 1,Total 5 volume 1,Total 6 volume 1
0.1,1117071271046687.6,1512117690109863.2,171218609237430.47,223827809825744.56,0.0,0.0,0.0,0.0
0.202,1682026304936298.2,2276931141682800.0,257811846003300.44,337027980280766.9,43376350.652788304,107090025.98018377,2261682329.0563397,62598313729.04614
0.30604000000000003,2112529133084593.2,2859779011154382.0,323796978847558.8,423287927679862.75,110044422.73936073,271684239.19858044,5737979819.530629,158851833889.00543
0.41216080000000005,2476696649217650.5,3352860550074371.5,379614595654175.06,496256253423900.5,195460294.16905463,482564219.8383584,10191885504.981659,282181868624.4906
0.5204040160000001,2800105513603646.5,3790794443497266.5,429184947912716.0,561057758976520.25,297606258.12897265,734748513.9829139,15518178367.263163,429672471249.179
0.6308120963200001,3095505785324370.0,4190838118703558.5,474462295369897.94,620247176583352.6,415400048.2878885,1025565150.7245898,21660421302.357628,599760039434.5874
0.7434283382464002,3370309606196047.5,4563024054709981.0,516582730826614.7,675309678766539.1,548223014.1147479,1353486765.2932243,28586353757.54714,791550857234.4927
0.8582969050113283,3629265857853429.5,4913780026912929.0,556274137040822.4,727196799999404.8,695726231.0190581,1717651910.1646848,36277780489.68853,1004540860636.573
0.9754628431115548,3875628974225039.0,5247511120660388.0,594035335950646.0,776560631931833.1,857734965.5403917,2117629192.2555556,44725589638.93951,1238477599076.6272
1.094972099973786,4111742448574392.0,5567389513143255.0,630225525461658.1,823870740828820.1,1034195768.7968565,2553286653.716997,53926993815.424934,1493283802144.6802
1.2168715419732616,4339359214738129.5,5875788108098793.0,665113385741301.2,869478362431366.0,1225144686.8257341,3024713287.538786,63883872382.62185,1769011457649.4058
1.3412089728127268,4559830624213297.0,6174536313237638.0,698906044599428.5,913654267337831.2,1430686980.2283545,3532168968.089436,74601713916.29285,2065812517218.274
1.4680331522689813,4774224339830737.0,6465079606091482.0,731767147589582.4,956612383385580.8,1650983585.428894,4076051025.796972,86088910215.25993,2383919340755.764
1.597393815314361,4983401276473184.0,6748583670374858.0,763828651063944.4,998525212279816.5,1886241754.4585264,4656871138.046163,98356268206.49348,2723631176812.1685
1.729341691620648,5188067712863468.0,7026004926861814.0,795198809584892.4,1039534271244157.1,2136708405.672367,5275238913.003164,111416663214.48273,3085304558752.237
1.863928525453061,5388811701124770.0,7298139811763522.0,825967756584436.4,1079757388412290.6,2402665301.0658565,5931849983.06725,125284787480.11386,3469346339266.0396
2.001207095962122,5586129186836684.0,7565660128678491.0,856211507904395.5,1119293936509428.9,2684425494.344022,6627477235.639327,139976964943.8084,3876208560310.0283
2.1412312378813647,5780443178806035.0,7829138993688175.0,885994900034640.6,1158228673903498.2,2982330687.7466955,7362964287.485746,155511013416.24194,4306384635595.368
2.284055862638992,5972118099398007.0,8089070257641962.0,915373789653806.4,1196634619984182.5,3296749254.638158,8139220602.7843275,171906141465.65472,4760406494646.029
2.4297369798917723,6161470715612799.0,8345883300733785.0,944396729085312.9,1234575245425159.8,3628074760.4441023,8957217841.522257,189182871291.6697,5238842446613.524
2.578331719489608,6348778594888412.0,8599954477007295.0,973106262356825.0,1272106166475186.8,3976724863.942514,9817987146.936388,207362981432.7799,5742295593425.102
2.7298983538794,6534286736632446.0,8851616089889704.0,1001539941645383.9,1309276473719573.2,4343140514.079935,10722617162.56542,226469464884.08087,6271402669744.845
2.884496320956988,6718212837584642.0,9101163518767782.0,1029731134323565.8,1346129787102059.8,4727785380.25064,11672252625.690588,246526499388.97043,6826833220110.878
3.0421862473761276,6900751519246702.0,9348860940852496.0,1057709670916918.1,1382705102975840.0,5131145469.924732,12668093423.315397,267559427500.18063,7409289046645.948
3.2030299723236504,7082077756425388.0,9594945971863990.0,1085502370612418.5,1419037481081508.5,5553728898.888005,13711394024.923328,289594744598.77167,8019503877171.706
3.3670905717701234,7262349683566611.0,9839633464655552.0,1113133471398104.2,1455158606852861.2,5996065787.606895,14803463226.62145,312660093489.92444,8658243215472.694
3.5344323832055258,7441710911226655.0,1.0083118644895694e+16,1140624985119175.2,1491097255568713.5,6458708263.305013,15945664156.271372,336784264511.05896,9326304344227.494
3.7051210308696363,7620292453042126.0,1.032557971963893e+16,1167996992833482.8,1526879678460301.0,6942230551.868753,17139414500.396652,361997200324.1046,10024516457669.303
3.879223451487029,7798214340168301.0,1.056718006295563e+16,1195267892263853.8,1562529926196669.8,7447229147.124521,18386186922.110096,388330004742.2952,10753740905983.541
4.0568079205167695,7975586982830598.0,1.0808070059343922e+16,1222454606489295.0,1598070121699022.5,7974323047.646381,19687509645.765125,415814955078.3476,11514871537230.482
4.237944078927105,8152512325653566.0,1.1048388668079708e+16,1249572761027549.5,1633520691634240.2,8524154053.276128,21044967189.02845,444485517606.33484,12308835125501.146
4.422702960505647,8329084833602810.0,1.1288264758356484e+16,1276636834954908.2,1668900563968319.5,9097387115.115545,22460201226.969517,474376365811.85925,13136591876294.771
4.61115701971576,8505392337857188.0,1.1527818254893346e+16,1303660290556879.5,1704227337453912.2,9694710733.994673,23934911575.83041,505523401170.0082,13999136001901.648
4.803380160110075,8681516765125054.0,1.176716112583451e+16,1330655685113876.5,1739517427763638.5,10316837403.40799,25470857286.58124,537963776242.08716,14897496361003.537
4.9994477633122765,8857534769400666.0,1.200639823864893e+16,1357634767733325.0,1774786194075227.8,10964504093.703747,27069857840.324596,571735919923.4854,15832737157848.34
5.199436718578522,9033518281609510.0,1.224562810493918e+16,1384608563596376.5,1810048049204065.5,11638472774.95179,28733794439.192093,606879564708.4291,16805958697280.613
5.403425452950093,9209534989787172.0,1.2484943531271902e+16,1411587447557074.2,1845316555816760.8,12339530976.437529,30464611387.66616,643435775864.6136,17818298192664.6
5.611493962009095,9385648760201984.0,1.2724432190120108e+16,1438581208689776.5,1880604510811596.0,13068492381.158718,32264317560.319565,681446982433.0402,18870930624354.34
5.823723841249277,9561920008041466.0,1.2964177122582688e+16,1465599107105920.2,1915924019593000.0,13826197454.055616,34134987952.838604,720957009986.8792,19965069646878.367
6.040198318074262,9738406024835674.0,1.3204257182590776e+16,1492649924139706.8,1951286561677475.8,14613514103.001425,36078765313.927055,762011115098.6251,21101968543433.39
6.261002284435747,9915161268619208.0,1.3444747430723604e+16,1519742006822588.0,1986703048833437.5,15431338371.82774,38097861856.30081,804656021477.6979,22282921226638.88
6.486222330124463,1.0092237621875742e+16,1.3685719484459616e+16,1546883307419544.0,2022183876765566.2,16280595164.86974,40194561045.50139,848939957751.6655,23509263284809.78
6.715946776726952,1.0269684621522056e+16,1.3927241830627302e+16,1574081418679840.8,2057738971196812.0,17162239002.695139,42371219465.697586,894912696873.5115,24782373073260.27
6.950265712261491,1.044754966454263e+16,1.4169380104940644e+16,1601343605355542.8,2093377829071389.5,18077254808.834507,44630268762.026855,942625597145.4973,26103672850377.266
7.18927102650672,1.0625878192346838e+16,1.441219734277978e+16,1628676832458788.5,2129109555494533.8,19026658727.464127,46974217659.35326,992131644857.0201,27474629958390.387
7.433056447036854,1.0804713856475452e+16,1.4655754204771402e+16,1656087790660407.0,2164942896935077.5,20011498972.107254,49405654057.60897,1043485498539.952,28896758048937.32
7.681717575977592,1.0984098667907802e+16,1.4900109180217358e+16,1683582919174885.5,2200886271142239.8,21032856705.52543,51927247204.136955,1096743534850.349,30371618353667.203
7.935351927497144,1.1164073131908972e+16,1.5145318770996138e+16,1711168426429002.8,2236947794164892.8,22091846951.056564,54541749943.67549,1151963896090.0115,31900821000258.555
8.194058966047088,1.1344676370089664e+16,1.5391437658203358e+16,1738850308770541.2,2273135304808817.0,23189619535.744137,57252001046.82837,1209206539385.7075,33486026374344.09
8.45794014536803,1.1525946231129862e+16,1.5638518853494776e+16,1766634367439365.8,2309456386822358.0,24327360065.6688,60060927618.04161,1268533287547.6912,35128946527939.87
8.72709894827539,1.1707919391425746e+16,1.5886613836838152e+16,1794526223994058.2,2345918389063115.5,25506290933.965332,62971547584.275375,1330007881632.5408,36831346635073.586
9.0016409272409,1.1890631446757802e+16,1.6135772682160886e+16,1822531334362316.8,2382528443865492.0,26727672362.06564,65986972265.707016,1393696035238.5708,38595046495394.52
9.281673745785717,1.2074116995940492e+16,1.6386044172194074e+16,1850655001662285.0,2419293483801568.5,27992803474.766087,69110409029.94405,1459665490565.0737,40421922086629.17
9.567307220701432,1.2258409717293516e+16,1.663747590365142e+16,1878902387923691.8,2456220257003670.0,29303023409.77052,72345164031.35236,1527986076269.222,42313907166821.45
9.85865336511546,1.2443542438673968e+16,1.6890114383744742e+16,1907278524821973.0,2493315341196793.0,30659712462.4092,75694645037.23102,1598729767157.3057,44272994927370.82
10.155826432417769,1.2629547201719962e+16,1.7144005118917516e+16,1935788323525202.8,2530585156571034.5,32064293266.28097,79162364342.67683,1671970745749.1375,46301239697945.586
10.458942961066125,1.2816455320880216e+16,1.7399192696575378e+16,1964436583741810.2,2568035977609390.5,33518232010.61046,82751941776.09532,1747785465757.001,48400758704418.0
10.768121820287448,1.3004297437737358e+16,1.7655720860502938e+16,1993228002046982.8,2605673943972548.0,35023039695.1562,86467107797.41881,1826252717522.6868,50573733881022.84
11.083484256693197,1.31931035710766e+16,1.7913632580578166e+16,2022167179556879.8,2643505070531101.0,36580273423.54438,90311706691.19804,1907453695458.2666,52822413738009.914
11.405153941827061,1.338290316309909e+16,1.817297011732778e+16,2051258629012017.2,2681535256625413.5,38191537735.94825,94289699856.8271,1991472067538.5046,55149115286110.66
11.733257020663602,1.3573725122137778e+16,1.843377508180811e+16,2080506781324491.5,2719770294624541.5,39858485982.06526,98405169198.26697,2078394046894.6877,57556226019202.96
12.067922161076874,1.3765597862193384e+16,1.869608849124377e+16,2109915991637822.8,2758215877848079.0,41582821735.39098,102662320615.72018,2168308465561.822,60046205956608.86
12.409280604298411,1.3958549339574874e+16,1.89599508208105e+16,2139490544943053.2,2796877607907824.0,43366300249.82116,107065487601.81155,2261306850433.0786,62621589746519.414
12.75746621638438,1.4152607086899654e+16,1.9225402051908644e+16,2169234661290071.5,2835761001520414.5,45210729959.65274,111619134944.92114,2357483501477.3096,65284988832092.65
13.112615540712067,1.43477982446818e+16,1.9492481717238412e+16,2199152500629300.8,2874871496836640.5,47117974024.09489,116327862542.39844,2456935572277.4946,68039093681825.336
13.474867851526309,1.4544149590713338e+16,1.976122894295711e+16,2229248167315113.5,2914214459328618.5,49089951917.43371,121196409326.49976,2559763152949.891,70886676085856.67
13.844365208556836,1.4741687567424448e+16,2.0031682488169604e+16,2259525714299433.0,2953795187271914.5,51128641066.03655,126229657305.96303,2666069355505.6396,73830591519910.52
14.221252512727972,1.494043830738818e+16,2.0303880781979764e+16,2289989147040961.0,2993618916855973.5,53236078533.41714,131432635726.243,2775960401718.4824,76873781578643.17
14.605677562982532,1.5140427657120872e+16,2.0577861958308916e+16,2320642427153171.0,3033690826952970.0,55414362754.620224,136810525351.50853,2889545713564.318,80019276480212.92
14.997791114242183,1.5341681199314132e+16,2.0853663888667036e+16,2351489475811968.0,3074016043572500.5,57665655321.2241,142368662871.61343,3006938006300.2534,83270197643949.3
15.397746936527026,1.5544224273621838e+16,2.113132421304571e+16,2382534176941709.5,3114599644026598.0,59992182818.29671,148112545437.33475,3128253384252.7803,86629760343045.02
15.805701875257567,1.5748081996113662e+16,2.1410880369085996e+16,2413780380196965.5,3155446660827685.5,62396238714.67914,154047835327.27072,3253611439386.774,90101276434261.31
16.221815912762718,1.5953279277496366e+16,2.16923696196609e+16,2445231903755447.5,3196562085339607.5,64880185308.01222,160180364749.8938,3383135352729.0493,93688157166687.47
16.64625223101797,1.615984084019623e+16,2.19758290789997e+16,2476892536936235.0,3237950871200370.5,67446455725.95644,166516140784.34396,3516951998722.2188,97393916071650.11
17.079177275638333,1.6367791234384968e+16,2.2261295737469364e+16,2508766042656153.0,3279617937533314.5,70097555985.1023,173061350463.64944,3655192052586.8423,101222171935932.31
17.5207608211511,1.65771548530271e+16,2.2548806485119828e+16,2540856159736172.0,3321568171962127.0,72836067109.10246,179822366004.16293,3797990100771.7246,105176651860517.8
17.97117603757412,1.678795594601769e+16,2.2838398134088836e+16,2573166605068362.5,3363806433443652.5,75664647307.60303,186805750185.10504,3945484754574.59,109261194407135.2
18.430599558325603,1.7000218633474628e+16,2.31301074399571e+16,2605701075653244.5,3406337554931250.0,78586034217.58884,194018261882.20563,4097818767017.5273,113479752834935.53
18.899211549492115,1.7213966918243674e+16,2.3423971122132384e+16,2638463250516511.5,3449166345880441.5,81603047208.80594,201466861759.53943,4255139153063.603,117836398429705.3
19.37719578048196,1.7429224697669754e+16,2.37200258833397e+16,2671456792513251.5,3492297594607499.5,84718589754.96011,209158718123.76532,4417597313263.563,122335323928067.08
19.864739696091597,1.7646015774682768e+16,2.4018308428285616e+16,2704685350027140.0,3535736070510767.5,87935651872.44095,217101212945.07327,4585349160923.692,126980847039197.67
20.36203449001343,1.7864363868243824e+16,2.4318855481559304e+16,2738152558571574.0,3579486526163728.5,91257312628.3613,225301948049.26953,4758555252888.125,131777414066643.38
20.869275179813698,1.80842926231919e+16,2.462170380483001e+16,2771862042298912.0,3623553699288017.0,94686742719.7484,233768751485.53052,4937380924031.448,136729603632890.45
21.38666068340997,1.83058256195296e+16,2.4926890213393424e+16,2805817415423736.0,3667942314613959.0,98227207125.76865,242509684074.46347,5121996425559.831,141842130509403.2
21.91439389707817,1.8528986381181776e+16,2.5234451592118864e+16,2840022283565350.5,3712657085635594.5,101882067834.91464,251533046141.2556,5312577067220.934,147119849554919.28
22.452681775019734,1.8753798384260184e+16,2.5544424910840868e+16,2874480245014519.5,3757702716266638.0,105654786649.13141,260847384438.76804,5509303363526.124,152567759764855.1
23.00173541052013,1.898028506486225e+16,2.5856847239240332e+16,2909194891928829.5,3803083902403106.5,109548928066.90479,270461499265.589,5712361184090.033,158191008434742.28
23.561770118730532,1.9208469826431724e+16,2.6171755761253772e+16,2944169811460889.0,3848805333398234.5,113568162247.386,280384451784.15356,5921941908196.014,163994895440691.4
24.133005521105144,1.9438376046706456e+16,2.64891877890475e+16,2979408586823250.5,3894871693454519.5,117716268057.67297,290625571544.17865,6138242583697.859,169984877639950.38
24.715665631527248,1.967002708427526e+16,2.6809180776591744e+16,3014914798293407.5,3941287662937575.5,121997136205.42563,301194464216.77454,6361466090371.26,176166573394687.47
25.309978944157795,1.9903446284766076e+16,2.7131772332866412e+16,3050692024162258.5,3988057919616052.5,126414772459.03313,312101019544.72107,6591821307830.945,182545767222221.78
25.91617852304095,2.0138656986684236e+16,2.7457000234728304e+16,3086743841629025.0,4035187139831443.0,130973300957.61552,323355419514.5352,6829523288132.241,189128414574980.4
26.53450209350177,2.0375682526919772e+16,2.778490243946773e+16,3123073827645316.5,4082679999601565.0,135676967613.18404,334968146756.0705,7074793433178.307,195920646753546.9
27.165192135371807,2.0614546245939124e+16,2.8115517097081016e+16,3159685559710938.5,4130541175660884.0,140530143607.3425,346949993175.5438,7327859677057.525,202928775956239.22
27.808495978079243,2.0855271492678264e+16,2.8448882562282876e+16,3196582616623803.5,4178775346440833.5,145537328984.9678,359312068827.9831,7588956673437.8955,210159300468742.56
28.464665897640828,2.109788162914951e+16,2.8785037406281664e+16,3233768579186198.5,4227387192993059.5,150703156347.36133,372065811035.2677,7858325988148.326,217618909997380.88
29.133959215593645,2.1342400034777612e+16,2.912402042833999e+16,3271247030869191.0,4276381399858034.0,156032394647.41296,385222993756.0367,8136216297079.7705,225314491149712.25
29.816638399905518,2.158885011047434e+16,2.9465870667139444e+16,3309021558437322.5,4325762655881681.5,161529953089.38516,398795737213.89,8422883589541.833,233253133066207.5
30.51297116790363,2.183725528246574e+16,2.9810627411969948e+16,3347095752535127.0,4375535654982087.5,167200885135.97675,412796517790.4672,8718591377213.504,241442133206842.34
31.223230591261704,2.2087639005879616e+16,3.015833021376134e+16,3385473208237088.5,4425705096868428.0,173050392625.38263,427238178190.0837,9023610908829.799,249889003296530.9
31.947695203086937,2.234002476810529e+16,3.050901889597402e+16,3424157525562535.5,4476275687714113.5,179083830001.1243,442133937882.8117,9338221390749.158,258601475433409.6
32.686649107148675,2.2594436091932304e+16,3.0862733565364836e+16,3463152309956750.0,4527252140785715.0,185306708657.48743,457497403832.9777,9662710213549.047,267587508364047.6
33.44038208929165,2.2850896538477864e+16,3.121951462264452e+16,3502461172739672.5,4578639177029517.0,191724701403.46408,473342581520.2394,9997373184801.236,276855293929773.5
34.20918973107749,2.3109429709909364e+16,3.157940277303938e+16,3542087731523200.0,4630441525617013.0,198343647048.14575,489683886260.5286,10342514768180.102,286413263688363.8
34.993373525699035,2.3370059251969356e+16,3.1942439036772948e+16,3582035610598187.5,4682663924450951.0,205169555110.5911,506536154834.311,10698448329062.004,296270095715448.9
35.793240996213015,2.3632808856309696e+16,3.230866475947962e+16,3622308441292212.0,4735311120632834.0,212208610657.23868,523914657429.7449,11065496386775.137,306434721590056.44
36.60910581613728,2.3897702262639536e+16,3.267812162256344e+16,3662909862298826.5,4788387870893461.0,219467179270.00656,541835109908.50836,11443990873664.342,316916333568825.0
37.44128793246003,2.4164763260693756e+16,3.3050851653513464e+16,3703843519979244.5,4841898941987296.0,226951812148.27353,560313686402.1722,11834273401137.031,327724391953470.7
38.29011369110923,2.4434015692025936e+16,3.342689723618752e+16,3745113068637164.0,4895849111051735.0,234669251348.00888,579367032247.1816,12236695532860.508,338868632656219.56
39.15591596493141,2.470548345163067e+16,3.3806301121075836e+16,3786722170767434.0,4950243165932129.0,242626435161.3737,599012277266.6604,12651619065284.107,350359074967961.25
40.03903428423004,2.497919048939872e+16,3.4189106435553924e+16,3828674497279102.5,5005085905473426.0,250830503640.1779,619267049407.3981,13079416315662.305,362206029534004.44
40.93981496991464,2.5255160811409572e+16,3.457535669413529e+16,3870973727693515.0,5060382139779088.0,259288804266.64655,640149488740.5208,13520470417758.723,374420106542368.75
41.85861126931294,2.5533418481063788e+16,3.4965095808734396e+16,3913623550317869.5,5116136690438036.0,268008897775.00378,661678261834.5399,13975175625414.371,387012224129651.25
42.7957834946992,2.58139876200582e+16,3.5358368098947284e+16,3956627662394682.5,5172354390719973.0,276998564127.4552,683872576509.6057,14443937624165.762,399993617009582.3
43.751699164593184,2.60968924092063e+16,3.5755218302360016e+16,3999989770227599.0,5229040085739886.0,286265808648.1966,706752196981.9087,14927173851102.672,413375845329468.6
