t(s),Total solute volume 1,Total retention volume 1,Total 1 volume 1,Total 2 volume 1,Total 3 volume 1,Total 4 volume 1,Total 5 volume 1,Total 6 volume 1
0.1,858476762157242.6,970941579421749.6,55300119698977.766,57164697565528.79,0.0,0.0,0.0,0.0
0.202,1293525688062534.0,1462986208687742.2,83324474968087.55,86133962318522.45,4810700.6153173335,8276488.971020096,101719197.1299265,1968532212.616799
0.30604000000000003,1624837574765038.0,1837704838751917.0,104666446977231.97,108195530858892.44,12206303.065208951,21000130.45378271,258094866.94786704,4994849456.763509
0.41216080000000005,1905074720339304.2,2154658577968081.8,122718359857706.11,126856107906404.39,21682151.44280231,37302696.91554411,458456194.97138774,8872423623.185484
0.5204040160000001,2153945230574569.2,2436137297170361.5,138749741991762.6,143428027093264.44,33014341.00082448,56798975.07150098,698068822.1672175,13509628629.803774
0.6308120963200001,2381266892649997.0,2693244911548252.5,153393021456592.78,158565040350696.5,46082805.83581124,79282399.51688124,974394016.5289251,18857331739.855198
0.7434283382464002,2592745541206184.5,2932434719357666.0,167015748491558.16,172647090769509.0,60818932.888083816,104634926.05748938,1285980990.8913763,24887455565.507404
0.8582969050113283,2792036277515284.5,3157840641957449.5,179853372146900.0,185917566137861.0,77184041.57018551,132790007.33304968,1632011864.6608016,31584171489.87892
0.9754628431115548,2981643735242521.0,3372295424368778.0,192067232307244.78,198543246307279.9,95158781.653726,163714352.5839724,2012077487.4112098,38939561109.69497
1.094972099973786,3163371387979082.0,3577838801835438.5,203773502537266.5,210644221916890.4,114737262.42382067,197397827.25103325,2426053302.880609,46951213802.47125
1.2168715419732616,3338568199987077.0,3775996461542021.0,215059078474194.3,222310318501782.2,135923525.3442888,233847384.43004966,2874024765.3312774,55620783295.91672
1.3412089728127268,3508274094061846.5,3967944566530902.0,225990948367090.5,233610782982832.38,158729293.92295757,273083193.66464245,3356239761.6503344,64953066885.87932
1.4680331522689813,3673310693016972.5,4154612384132288.5,236622038331158.34,244600326007994.0,183172471.67036784,315136056.78406733,3873076851.4942837,74955390783.94379
1.597393815314361,3834340535651988.5,4336749259074917.0,246995026836675.03,255323065056008.6,209276103.72236517,360045621.4439784,4425023311.361012,85637185202.0082
1.729341691620648,3991907181200622.0,4514969971501333.0,257144928099588.25,265815194932303.47,237067639.27269408,407859112.19083375,5012659539.1286955,97009682531.84106
1.863928525453061,4146463228220562.0,4689786426243002.0,267100896962007.47,276106853505422.72,266578396.68736458,458630410.2268379,5636647744.191995,109085698464.3044
2.001207095962122,4298390414420141.0,4861630385655758.0,276887523653893.34,286223460124753.94,297843169.6242266,512419375.7649756,6297723619.076906,121879470809.44452
2.1412312378813647,4448014367638739.0,5030870152926721.0,286525784000470.8,296186697866502.1,330899933.9917294,569291343.8711714,6996690143.245934,135406539581.0434
2.284055862638992,4595615648011253.0,5197823060723441.0,296033750720478.06,306015248815087.4,365789628.78598696,629316747.4091871,7734412949.019407,149683657312.94226
2.4297369798917723,4741438158932558.0,5362764983966624.0,305427135231564.06,315725354136826.5,402555992.2310493,692570835.1309766,8511816856.853313,164728722005.99316
2.578331719489608,4885695653267832.0,5525937698373798.0,314719706760091.94,325331247326209.1,441245440.23530185,759133463.5733695,9329883542.442581,180560757228.34656
2.7298983538794,5028576835998667.0,5687554651381144.0,323923621027482.2,334845493953809.8,481906977.12958723,829088939.4832258,10189648703.596577,197199756563.18314
2.884496320956988,5170249415322900.0,5847805544168645.0,333049681221133.9,344279261468204.4,524592133.3571226,902525918.6109581,11092202157.759577,214666836198.58328
3.0421862473761276,5310863355475370.0,6006860010439841.0,342107547521164.6,353642535765979.25,569354922.9293294,979537328.5297277,12038686001.26698,232984099068.87143
3.2030299723236504,5450553514697448.0,6164870600007562.0,351105907031555.94,362944296857960.0,616251818.3445433,1060220326.4795271,13030294313.81943,252174654140.3892
3.3670905717701234,5589441804513713.0,6321975220942099.0,360052612873337.56,372192662652251.5,665341739.4125879,1144676280.140791,14068272922.18688,272262611838.8307
3.5344323832055258,5727638972116159.0,6478299155456882.0,368954798999632.6,381395007640561.94,716686053.8242323,1233010768.614332,15153919412.251331,293273084282.1605
3.7051210308696363,5865246083078930.0,6633956736871096.0,377818975707054.06,390558061629987.0,770348587.7043608,1325333600.577592,16288583352.149788,315232189598.9631
3.879223451487029,6002355763626784.0,6789052754629910.0,386651109658356.94,399687992463833.25,826395644.767591,1421758847.2408445,17473666697.31133,338167059767.003
4.0568079205167695,6139053248349214.0,6943683639285959.0,395456691372583.7,408790475787349.25,884896032.9855413,1522404888.2266994,18710624354.324215,362105851525.6163
4.237944078927105,6275417269264670.0,7097938468049824.0,404240792495513.8,417870754249186.4,945921097.8993036,1627394468.8822784,20000964885.312187,387077760007.3927
4.422702960505647,6411520814575605.0,7251899822963126.0,413008114676064.9,426933688025793.7,1009544761.8859568,1736854767.8348918,21346251338.20583,413113034806.2984
4.61115701971576,6547431779671479.0,7405644527205362.0,421763031501659.3,435983798170732.4,1075843568.825849,1850917473.8394337,22748102191.210453,440242998255.83966
4.803380160110075,6683213528470741.0,7559244279996030.0,430509624657944.1,445025303993610.3,1144896733.7271903,1969718871.1545074,24208192402.09392,468500065735.8225
4.9994477633122765,6818925379716650.0,7712766206621294.0,439251715254299.56,454062155441806.75,1216786196.9525168,2093399932.835747,25728254554.778183,497917767862.2116
5.199436718578522,6954623030113476.0,7866273337028414.0,447992891080814.0,463098061276478.75,1291596682.7626312,2222106421.45716,27310080097.22211,528530774443.7603
5.403425452950093,7090358924030938.0,8019825023990478.0,456736530423367.06,472136513690632.7,1369415761.9517584,2355988996.871055,28955520665.810993,560374920112.7908
5.611493962009095,7226182577786464.0,8173477309900166.0,465485822952791.6,481180809902613.5,1450333918.3951201,2495203330.699128,30666489492.47174,593487231556.9706
5.823723841249277,7362140865137003.0,8327283249692849.0,474243788115256.25,490234071166561.8,1534444619.3696573,2639910227.3149815,32444962891.57019,627905956295.1091
6.040198318074262,7498278269499410.0,8481293196141184.0,483013291379449.7,499299259567414.9,1621844389.5414882,2790275751.135016,34292981824.33906,663670592953.3787
6.261002284435747,7634637107516881.0,8635555052743479.0,491797058637953.44,508379192907853.56,1712632888.5412273,2946471360.0821185,36212653539.16966,700821923009.7688
6.486222330124463,7771257727851756.0,8790114498594478.0,500597689012792.25,517476557945623.56,1806912992.0717647,3108674045.126565,38206153286.596115,739402043984.0006
6.715946776726952,7908178688480468.0,8945015188943508.0,509417666276165.9,526593922199345.4,1904790876.5130007,3277066475.8433976,40275726108.2207,779454404058.466
6.950265712261491,8045436915268364.0,9100298934581510.0,518259369065287.6,535733744507775.44,2006376107.005167,3451837151.954444,42423688699.19246,821023838122.6132
7.18927102650672,8183067844188535.0,9256005862731004.0,527125080043645.44,544898384499950.6,2111781729.0073266,3633180560.8490896,44652431344.1663,864156605239.4077
7.433056447036854,8321105549205235.0,9412174561723942.0,536016994138797.0,554090111110754.4,2221124363.3404536,3821297341.100253,46964419926.943756,908900427537.7256
7.681717575977592,8459582857554690.0,9568842211427652.0,544937225968372.4,563311110257292.4,2334524304.7361917,4016394452.0114284,49362198014.23619,955304530539.268
7.935351927497144,8598531453914736.0,9726044701105372.0,553887816550318.44,572563491775397.0,2452105623.922196,4218685349.2485347,51848389014.2122,1003419684932.7334
8.194058966047088,8737981974751458.0,9883816736168536.0,562870739380388.6,581849295702031.1,2573996273.284559,4428390166.625572,54425698410.67629,1053298249811.6805
8.45794014536803,8877964093958465.0,1.004219193508267e+16,571887905948728.8,591170497977884.1,2700328196.155545,4645735904.127698,57096916073.90575,1104994217395.9736
8.72709894827539,9018506600758612.0,1.0201202917523362e+16,580941170758035.8,600529015634719.1,2831237439.7826223,4870956622.267718,59864918649.32772,1158563259259.6467
9.0016409272409,9159637470713168.0,1.0360881384738744e+16,590032335897731.6,609926711523785.8,2966864272.0419226,5104293642.88442,62732672025.36647,1214062774090.8936
9.281673745785717,9301383930577094.0,1.052125819295316e+16,599163155221704.5,619365398634426.1,3107353301.964922,5345995756.501716,65703233881.925,1271551937012.6646
9.567307220701432,9443772517647626.0,1.0682363420544856e+16,608335338171353.0,628846844046015.0,3252853604.1540475,5596319436.378165,68779756321.09207,1331091750494.475
9.85865336511546,9586829134175112.0,1.0844226429640102e+16,617550553280539.9,638372772551088.4,3403518847.167802,5855529059.385975,71965488581.78499,1392745096888.6448
10.155826432417769,9730579097336436.0,1.100687592269118e+16,626810431394705.9,647944869983013.4,3559507425.9617734,6123897133.867837,75263779840.15208,1456576792626.232
10.458942961066125,9875047185214362.0,1.1170339994538076e+16,636116568632702.8,657564786277672.5,3720982598.4767957,6401704534.62886,78678082097.66473,1522653644110.0322
10.768121820287448,1.0020257679172996e+16,1.133464618039653e+16,645470529116478.9,667234138295184.6,3888112626.4706683,6689240745.229173,82211953158.93822,1591044505344.0356
11.083484256693197,1.016623440297742e+16,1.1499821500165342e+16,654873847491021.4,676954512424830.1,4061070920.6944337,6986804107.751107,85869059701.4156,1661820337340.7463
11.405153941827061,1.0313000758965664e+16,1.1665892499401844e+16,664328031254441.1,686727466993685.4,4240036190.518922,7294702080.222988,89653180439.15239,1735054269349.5935
11.733257020663602,1.0460579761547968e+16,1.1832885287276594e+16,673834562915875.1,696554534497290.5,4425192598.122024,7613251501.88909,93568209383.03246,1810821661951.572
12.067922161076874,1.0608994068278576e+16,1.2000825571784302e+16,683394901997022.2,706437223668664.5,4616729917.351182,7942778866.523605,97618159199.84506,1889200172067.1213
12.409280604298411,1.0758266008719308e+16,1.216973869245995e+16,693010486891441.4,716377021400312.0,4814843697.380873,8283620603.993333,101807164672.74397,1970269819926.019
12.75746621638438,1.0908417611291598e+16,1.233964965082121e+16,702682736594260.9,726375394532228.4,5019735431.288101,8636123370.282486,106139486265.70158,2054113058049.8916
13.112615540712067,1.1059470628293226e+16,1.2510583138737792e+16,712413052313671.0,736433791517749.1,5231612729.674671,9000644346.199377,110619513794.66997,2140814842299.779
13.474867851526309,1.1211446559237908e+16,1.268256356490627e+16,722202818974389.6,746553643977697.1,5450689499.468128,9377551544.993391,115251770208.24783,2230462705042.9526
13.844365208556836,1.1364366672661426e+16,1.2855615079592402e+16,732053406622323.9,756736368152409.2,5677186128.038814,9767224129.117537,120040915480.74977,2323146830495.003
14.221252512727972,1.1518252026521928e+16,1.3029761597786164e+16,741966171738698.1,766983366260174.4,5911329672.773892,10170052736.379768,124991750620.66544,2418960132295.02
14.605677562982532,1.1673123487311686e+16,1.3205026820901758e+16,751942458471156.4,777296027769847.6,6153354056.25455,10586439815.734213,130109221797.59184,2517998333373.568
14.997791114242183,1.1829001747984756e+16,1.338143425714103e+16,761983599788616.4,787675730594634.9,6403500267.186341,11016799972.970438,135398424590.8163,2620360048174.895
15.397746936527026,1.1985907344796712e+16,1.355900724062872e+16,772090918566019.2,798123842213419.6,6662016567.2379265,11461560326.567474,140864608362.82715,2726146867296.763
15.805701875257567,1.2143860673142226e+16,1.3737768949417078e+16,782265728604524.4,808641720725369.9,6929158703.947178,11921160873.986986,146513180761.11838,2835463444613.105
16.221815912762718,1.2302882002469584e+16,1.3917742422449194e+16,792509335592257.6,819230715843057.9,7205190129.859087,12396054868.687473,152349712351.7624,2948417586946.702
16.64625223101797,1.246299149034296e+16,1.4098950575561174e+16,802823038010169.0,829892169828877.6,7490382228.064061,12886709208.150375,158379941388.3158,3065120346360.764
17.079177275638333,1.2624209195718486e+16,1.4281416216597978e+16,813208127987200.9,840627418379042.9,7785014544.310197,13393604833.216074,164609778719.7276,3185686115140.5957
17.5207608211511,1.2786555091492106e+16,1.4465162059708394e+16,823665892108596.9,851437791459150.5,8089375025.867702,13917237139.03695,171045312841.01984,3310232723538.0884
17.97117603757412,1.295004907637383e+16,1.4650210738881632e+16,834197612180812.9,862324614094872.8,8403760267.328675,14458116397.962084,177692815090.61258,3438881540354.0215
18.430599558325603,1.3114710986137582e+16,1.4836584820780168e+16,844804565956158.5,873289207121051.4,8728475763.53017,15016768194.677387,184558744998.26285,3571757576435.027
18.899211549492115,1.3280560604290484e+16,1.5024306816919752e+16,855488027820111.0,884332887892162.2,9063836169.793121,15593733873.932337,191649755787.69943,3708989591164.0464
19.37719578048196,1.3447617672203092e+16,1.5213399195242444e+16,866249269443843.5,895456970956872.1,9410165569.675117,16189571001.193893,198972700038.12683,3850710202025.1104
19.864739696091597,1.3615901898736294e+16,1.5403884391124156e+16,877089560404378.4,906662768699068.8,9767797750.43903,16804853836.575144,206534635508.88092,3997055997325.2285
20.36203449001343,1.3785432969398478e+16,1.5595784817854196e+16,888010168774441.6,917951591947639.6,10137076486.445057,17440173822.39588,214342831131.6138,4148167652158.0
20.869275179813698,1.395623055506219e+16,1.5789122876619838e+16,899012361683971.6,929324750556884.6,10518355830.6775,18096140084.73837,222404773174.48483,4304190047695.689
21.38666068340997,1.4128314320266004e+16,1.598392096602606e+16,910097405854894.4,940783553959338.5,10912000414.622293,18773379949.37076,230728171582.92282,4465272393897.841
21.91439389707817,1.430170393112459e+16,1.618020149117516e+16,921266568110659.8,952329311692480.5,11318385756.71607,19472539472.41671,239320966501.61978,4631568355726.673
22.452681775019734,1.4476419062865664e+16,1.6377986872328562e+16,932521115861754.8,963963333900616.4,11737898579.589931,20194283986.156273,248191334982.48563,4803236182960.7705
23.00173541052013,1.4652479407009436e+16,1.6577299553167926e+16,943862317568162.8,975686931812937.1,12170937136.335434,20939298660.34938,257347697883.3684,4980438843699.736
23.561770118730532,1.482990467820179e+16,1.6778162008669134e+16,955291443179549.0,987501418198544.4,12617911546.023123,21708289079.477074,266798726962.4018,5163344161654.099
24.133005521105144,1.5008714620709314e+16,1.6980596752597336e+16,966809764553642.5,999408107798929.2,13079244138.704477,22501981836.299515,276553352172.8823,5352124957314.971
24.715665631527248,1.5188929014578868e+16,1.7184626344627218e+16,978418555853010.9,1011408317738142.6,13555369810.13096,23321125142.130917,286620769163.58923,5546959193098.757
25.309978944157795,1.5370567681460556e+16,1.7390273397086642e+16,990119093920159.9,1023503367910522.6,14046736386.42259,24166489454.232998,297010446989.48065,5748030122561.933
25.91617852304095,1.5553650490087122e+16,1.7597560581316122e+16,1001912658630494.1,1035694581345575.4,14553804998.917095,25038868120.72291,307732136037.6488,5955526443780.468
26.53450209350177,1.5738197361397508e+16,1.7806510633630694e+16,1013800533222365.9,1047983284549134.4,15077050469.428268,25939078043.390415,318795876173.3525,6169642456987.157
27.165192135371807,1.592422827328636e+16,1.80171463608627e+16,1025784004603008.6,1060370807819616.4,15616961706.13667,26867960358.807068,330212005110.8629,6390578226558.17
27.808495978079243,1.6111763264953486e+16,1.8229490645457576e+16,1037864363628735.5,1072858485537675.6,16174042110.329163,27826381138.100628,341991167013.68994,6618539747437.026
28.464665897640828,1.6300822440821692e+16,1.844356645008552e+16,1050042905357281.4,1085447656427039.6,16748809994.194004,28815232105.749786,354144321328.55566,6853739116080.736
29.133959215593645,1.6491425973980998e+16,1.865939682172287e+16,1062320929269703.6,1098139663783897.6,17341799009.866066,29835431377.734726,366682751857.24023,7096394706007.509
29.816638399905518,1.668359410911138e+16,1.8877004895148356e+16,1074699739458620.8,1110935855671484.5,17953558589.901268,30887924219.350822,379618076070.0735,7346731348018.99
30.51297116790363,1.687734716482424e+16,1.9096413895787388e+16,1087180644779067.6,1123837585076033.4,18584654399.3407,31973683822.961655,392962254664.4677,7604980515162.65
31.223230591261704,1.7072705535355578e+16,1.9317647141827388e+16,1099764958957551.1,1136846210019484.5,19235668799.50097,33093712105.927574,406727601371.38934,7871380512490.311
31.947695203086937,1.726968969153141e+16,1.954072804551598e+16,1112454000654244.6,1149963093623798.0,19907201323.602104,34249040528.898926,420926793012.0983,8146176671657.635
32.686649107148675,1.7468320180916684e+16,1.976568011354041e+16,1125249093472566.2,1163189604120845.2,20599869164.310703,35440730934.610085,435572879806.82367,8429621550396.94
33.44038208929165,1.7668617627047128e+16,1.999252694637505e+16,1138151565909717.8,1176527114801285.2,21314307673.240814,36669876407.2458,450679295936.2524,8721975136879.929
34.20918973107749,1.7870602727632892e+16,2.0221292236471116e+16,1151162751240958.5,1189977003894918.0,22051170872.41281,37937602152.38108,466259870355.8538,9023505058970.936
34.993373525699035,1.8074296251610656e+16,2.045199976514941e+16,1164283987329713.5,1203540654374416.8,22811131977.62274,39245066397.41263,482328837862.01807,9334486798350.586
35.793240996213015,1.827971903491073e+16,2.0684673398044172e+16,1177516616354894.5,1217219453673440.5,23594883933.622585,40593461312.31032,498900850407.9049,9655203909469.246
36.60910581613728,1.8486891974793904e+16,2.0919337078935416e+16,1190861984446120.2,1231014793309550.0,24403139960.951267,41984013950.4139,515990988665.6382,9985948243264.857
37.44128793246003,1.869583602260332e+16,2.1156014821792396e+16,1204321441216803.0,1244928068401560.2,25236634114.193386,43417987208.88987,533614773830.0872,10327020175553.178
38.29011369110923,1.890657217476618e+16,2.1394730700843308e+16,1217896339184509.0,1258960677070342.0,26096121851.367798,44896680808.33889,551788179657.9926,10678728839969.395
39.15591596493141,1.9119121461872028e+16,2.1635508838474004e+16,1231588033067417.8,1273114019711593.0,26982380614.07636,46421432290.91338,570527644734.5527,11041392365308.637
40.03903428423004,1.9333504935647052e+16,2.187837339075125e+16,1245397878945265.2,1287389498128437.2,27896210417.95298,47993618036.15882,589850084957.8203,11415338117078.205
40.93981496991464,1.9549743653636864e+16,2.2123348530359028e+16,1259327233272637.8,1301788514511498.2,28838434452.8703,49614654293.64121,609772906229.362,11800902943038.65
41.85861126931294,1.976785866140698e+16,2.2370458426730796e+16,1273377451732414.5,1316312470253652.5,29809899692.261097,51285998231.25824,630314017337.6543,12198433422471.264
42.7957834946992,1.998787097206758e+16,2.2619727223159356e+16,1287549887916796.5,1330962764586607.0,30811477510.81654,53009148997.96082,651491843018.559,12608286118869.297
43.751699164593184,2.0209801542927492e+16,2.287117901066328e+16,1301845891823458.2,1345740793026322.2,31844064309.713844,54785648799.43062,673325337174.9941,13030827835706.885
44.72673314788505,2.043367124908619e+16,2.312483779839241e+16,1316266808154424.2,1360647945614543.5,32908582148.42008,56617083985.071846,695833996235.635,13466435874895.018
