t(s),Total solute volume 1,Total retention volume 1,Total 1 volume 1,Total 2 volume 1,Total 3 volume 1,Total 4 volume 1,Total 5 volume 1,Total 6 volume 1
0.1,839524706393360.9,941664656952722.2,50673114377222.37,51466836182138.266,0.0,0.0,0.0,0.0
0.202,1257863231799381.0,1424698861974612.0,75923730424564.84,77112967201590.6,34968303189.84573,58554044820.94637,690968512228.6324,13014441688834.713
0.30604000000000003,1571043283048080.5,1796995198896421.5,94827055682768.45,96312386074944.14,88218033183.53394,147723076588.80035,1743214305962.0225,32833318674892.51
0.41216080000000005,1831411430240300.5,2115709259748671.5,110542691951829.56,112274185351761.0,155796684561.97617,260890323527.9746,3078656385644.7085,57985608811045.03
0.5204040160000001,2058644058778803.0,2402175864850010.5,124258291870365.83,126204620562326.81,235840190030.15738,394935827095.56836,4660478565251.705,87777639056138.73
0.6308120963200001,2262584069151836.0,2667005286294743.5,136567965915273.98,138707108077769.81,327258186320.1123,548035093784.89795,6467151857930.193,121803698011825.17
0.7434283382464002,2448973660776989.5,2916359081084579.0,147818309161460.03,150133671890505.03,429342691032.73755,719003888673.8949,8484702674072.944,159800390001842.6
0.8582969050113283,2621503801740770.0,3154185123499797.5,158232105818761.16,160710585807081.94,541606464264.28455,907027603843.7368,10703519231781.398,201586476833292.8
0.9754628431115548,2782711346695440.5,3383192259142406.0,167962478630536.6,170593371020038.84,663702900720.0256,1111527136589.7373,13116768856359.146,247033063902718.72
1.094972099973786,2934427759270065.0,3605335998238456.5,177119973439432.34,179894304914798.6,795381370284.065,1332084119802.6565,15719515665735.023,296046979458340.3
1.2168715419732616,3078025978898775.5,3822084745534527.0,185787459893649.44,188697555174253.97,936460172912.6208,1568395644148.6628,18508186273662.2,348560709477130.25
1.3412089728127268,3214566330284478.0,4034576589256899.0,194028938438451.8,197068124719229.8,1086809121659.5134,1820245100582.739,21480225720610.16,404525915871890.2
1.4680331522689813,3344887734484514.5,4243716968179339.0,201895045752450.97,205057443379578.94,1246337780274.6863,2087482490232.8818,24633865124106.812,463909059168175.06
1.597393815314361,3469667356743270.0,4450242321466526.0,209426655048383.44,212707024588523.5,1414987213560.571,2370010615628.617,27967958731695.94,526688328525465.75
1.729341691620648,3589461087444090.0,4654763140645013.0,216657319474589.5,220050947056536.5,1592724020861.1191,2667775094539.7466,31481866082477.895,592851421471923.8
1.863928525453061,3704731882057716.0,4857794011219840.0,223614982694155.1,227117592144259.88,1779535909766.4385,2980756952587.687,35175364599380.434,662393896861984.9
2.001207095962122,3815870132372208.0,5059775139078538.0,230323208477863.06,233930892715277.22,1975428341808.8445,3308967010707.606,39048583361528.55,735317926799127.8
2.1412312378813647,3923208646379005.5,5261088131971026.0,236802084879471.53,240511251474002.22,2180421944370.3262,3652441555516.508,43101952015541.56,811631333723112.6
2.284055862638992,4027033883689972.0,5462067802079431.0,243068902397496.97,246876229749901.88,2394550482952.3447,4011238947953.817,47336160758933.664,891346836052222.2
2.4297369798917723,4127594530088323.0,5663011148980973.0,249138671529013.4,253041073158033.72,2617859251548.024,4385436932025.7656,51752128585131.6,974481449436906.1
2.578331719489608,4225108142728044.5,5864184303825688.0,255024523869164.62,259019118981211.6,2850403780524.6274,4775130475247.233,56350977802845.8,1061056006188642.9
2.7298983538794,4319766371128560.0,6065827972695129.0,260738027246689.62,264822116241676.22,3092248789437.783,5180430019276.202,61134013395992.0,1151094765873506.2
2.884496320956988,4411739109898290.0,6268161757344240.0,266289436379367.88,270460480282700.94,3343467331464.3306,5601460051491.116,66102706170985.695,1244625097229941.0
3.0421862473761276,4501177838554619.0,6471387624060675.0,271687894463172.62,275943497515355.2,3604140089660.442,6038357930895.966,71258678905328.05,1341677216601651.5
3.2030299723236504,4588218334661847.0,6675692717630844.0,276941596935352.22,281279491746694.06,3874354794911.4165,6491272917911.835,76603694902261.97,1442283971671870.2
3.3670905717701234,4672982898102595.0,6881251665873438.0,282057925729872.44,286475960538123.6,4154205742456.245,6960365369359.5,82139648494881.92,1546480661896143.5
3.5344323832055258,4755582189852736.0,7088228483606736.0,287043560264563.6,291539687931001.5,4443793389040.401,7445806068595.895,87868557145251.6,1654304888955528.0
3.7051210308696363,4836116763750604.0,7296778158533494.0,291904569897613.75,296476838351335.5,4743224016614.172,7947775667234.757,93792554860411.22,1765796431989687.0
3.879223451487029,4914678351534587.0,7507047982247570.0,296646491491535.8,301293035388669.0,5052609451414.994,8466464219773.514,99913886704861.88,1880997143456722.5
4.0568079205167695,4991350947917927.0,7719178675298856.0,301274394907502.7,305993428316299.06,5372066829506.646,9002070796189.176,106234904233280.45,1999950862298143.2
4.237944078927105,5066211732338381.0,7933305344572173.0,305792938641503.75,310582748598892.94,5701718401575.27,9554803160457.646,112758061701322.17,2122703341730040.5
4.422702960505647,5139331856341479.0,8149558303152902.0,310206417350242.3,315065358162803.94,6041691371129.281,10124877505206.625,119485912938996.03,2249302189483056.5
4.61115701971576,5210777119675636.0,8368063776675590.0,314518802659747.2,319445290843903.9,6392117761311.139,10712518234488.482,126421108792058.45,2379796818708436.5
4.803380160110075,5280608553633597.0,8588944515387070.0,318733778375460.1,323726288149173.4,6753134306370.766,11317957788069.24,133566395053503.67,2514238408080887.0
4.9994477633122765,5348882926633116.0,8812320327449418.0,322854770998711.4,327911830251184.6,7124882364523.987,11941436501758.08,140924610820543.44,2652679869879568.0
5.199436718578522,5415653184246475.0,9038308546099560.0,326884976286603.6,332005162963999.94,7507507849462.246,12583202499209.975,148498687223191.75,2795175825030618.0
5.403425452950093,5480968833685959.0,9267024440986498.0,330827382459266.3,336009321313942.3,7901161178219.386,13243511611372.395,156291646479271.9,2941782584258440.0
5.611493962009095,5544876280994939.0,9498581582176826.0,334684790552487.56,339927150211015.06,8305997233461.684,13922627320347.861,164306601237771.16,3092558134626781.0
5.823723841249277,5607419127785141.0,9733092163856066.0,338459832328547.6,343761322640287.56,8722175338561.682,14620820724939.736,172546754178293.2,3247562130860286.5
6.040198318074262,5668638433220726.0,9970667293570238.0,342154986089402.1,347514355722767.7,9149859244060.35,15338370525556.66,181015397839197.8,3406855890928506.5
6.261002284435747,5728572946025609.0,1.0211417251895578e+16,345772590680478.4,351188624938548.1,9589217124324.89,16075563026490.287,189715914651010.16,3570502395449111.0
6.486222330124463,5787259310533411.0,1.0455451726642284e+16,349314857927695.5,354786376758633.94,10040421583377.84,16832692153864.99,198651777155020.0,3738566290530295.5
6.715946776726952,5844732250178660.0,1.0702880025057204e+16,352783883712875.94,358309739893835.75,10503649669015.775,17610059487794.973,207826548389818.9,3911113893725186.5
6.950265712261491,5901024731315374.0,1.0953811266962918e+16,356181657861706.94,361760735337607.3,10979082894454.11,18407974307485.316,217243882430864.25,4088213202815425.0
7.18927102650672,5956168109822874.0,1.1208354561333124e+16,359510072992770.1,365141285353695.2,11466907266836.617,19226753648182.984,226907525070174.44,4269933907178584.5
7.433056447036854,6010192262605323.0,1.1466619168440418e+16,362770932454757.75,368453221537662.1,11967313322033.812,20066722369028.223,236821314624965.47,4456347401526649.0
7.681717575977592,6063125705793409.0,1.172871464940867e+16,365965957461042.8,371698292063223.94,12480496165227.16,20928213230979.56,246989182865481.9,4647526801829306.0
7.935351927497144,6114995701208331.0,1.1994751004747488e+16,369096793515768.25,374878168208992.1,13006655516839.809,21811566984092.117,257415156053541.4,4843546963259915.0
8.194058966047088,6165828352436999.0,1.2264838803231382e+16,372165016212880.7,377994450248331.06,13545995763427.54,22717132463519.17,268103356084360.78,5044484500021854.0
8.45794014536803,6215648691689351.0,1.2539089302304442e+16,375172136478771.3,381048672774131.2,14098726013191.156,23645266693686.23,279058001725189.6,5250417806930150.0
8.72709894827539,6264480758456958.0,1.281761456103788e+16,378119605320061.56,384042309520953.4,14665060155810.953,24596335000154.105,290283409945055.56,5461427082638918.0
9.0016409272409,6312347670863287.0,1.3100527546536026e+16,381008818130244.1,386976777739132.9,15245216926339.889,25570711128748.215,301783997330649.25,5677594354417615.0
9.281673745785717,6359271690484347.0,1.3387942234574604e+16,383841118602218.56,389853442168589.5,15839419972921.992,26568777371581.902,313564281583968.0,5899003504390979.0
9.567307220701432,6405274281324295.0,1.367997370515969e+16,386617802288014.94,392673618654322.6,16447897928129.416,27590924699647.984,325628883097901.44,6125740297167370.0
9.85865336511546,6450376163548265.0,1.3976738233611636e+16,389340119842066.7,395438577440475.06,17070884483735.516,28637552901692.402,337982526606383.8,6357892408789015.0
10.155826432417769,6494597362503978.0,1.4278353377709342e+16,392009279980123.44,398149546175595.2,17708618468761.246,29709070729119.16,350630042906186.75,6595549456945574.0
10.458942961066125,6537957253502220.0,1.4584938061366312e+16,394626452182170.56,400807712657896.94,18361343930650.67,30805896046706.766,363576370647771.4,6838803032398890.0
10.768121820287448,6580474602773750.0,1.4896612655259234e+16,397192769164549.06,403414227346102.0,19029310219447.934,31928455988946.047,376826558192966.56,7087746731573457.0
11.083484256693197,6622167604972539.0,1.5213499054780884e+16,399709329143638.56,405970205658573.7,19712772074861.688,33077187121830.184,390385765537513.94,7342476190271916.0
11.405153941827061,6663053917555930.0,1.5535720755650918e+16,402177197911006.94,408476730080980.7,20411989716115.96,34252535609955.125,404259266296820.2,7603089118480108.0
11.733257020663602,6703150692336111.0,1.5863402927481828e+16,404597410737845.9,410934852100551.44,21127228934498.258,35454957388803.875,418452449753430.56,7869685336230550.0
12.067922161076874,6742474604466434.0,1.6196672485566176e+16,406970974124552.06,413345593983069.94,21858761188524.766,36684918342108.91,432970822965027.5,8142366810496468.0
12.409280604298411,6781041879098236.0,1.6535658161125712e+16,409298867409724.0,415709950407072.5,22606863701653.05,37942894484202.56,447820012931887.75,8421237693092946.0
12.75746621638438,6818868315920522.0,1.6880490570236772e+16,411582044251357.25,418028889968239.3,23371819562479.367,39229372147279.08,463005768822936.5,8706404359563954.0
13.112615540712067,6855969311772667.0,1.723130228162812e+16,413821433991727.2,420303356565662.3,24153917827366.496,40544848173506.97,478533964259694.6,8997975449037488.0
13.474867851526309,6892359881501499.0,1.7588227883526386e+16,416017942916311.7,422534270680483.3,24953453625452.805,41889830111941.52,494410599657550.8,9296061905033138.0
13.844365208556836,6928054677217942.0,1.7951404049709694e+16,418172455416111.7,424722530556419.4,25770728266001.348,43264836420197.64,510641804623928.94,9600777017209104.0
14.221252512727972,6963068006092696.0,1.8320969604914796e+16,420285835061775.7,426869013290718.7,26606049348051.996,44670396670857.4,527233840413045.8,9912236464037634.0
14.605677562982532,6997413846817510.0,1.869706558972967e+16,422358925597199.0,428974575843312.5,27459730872343.48,46107051762588.13,544193102437059.3,1.0230558356399638e+16
14.997791114242183,7031105864846627.0,1.907983532509347e+16,424392551859480.94,431040055971196.75,28332093355479.87,47575354135967.19,561526122833524.56,1.0555863282091198e+16
15.397746936527026,7064157426522447.0,1.9469424476513976e+16,426387520631548.06,433066273094393.75,29223463946315.99,49075867994005.71,579239573089152.1,1.0888274351236188e+16
15.805701875257567,7096581612179769.0,1.986598111810479e+16,428344621433108.4,435054029099308.9,30134176544543.18,50609169527380.28,597340266719970.5,1.1227917242600694e+16
16.221815912762718,7128391228314548.0,2.0269655796534892e+16,430264627255151.75,437004109084726.25,31064571921458.06,52175847144381.73,615835162008078.5,1.1574920250806554e+16
16.64625223101797,7159598818895329.0,2.0680601594978516e+16,432148295242698.94,438917282055263.06,32014997842901.863,53776501705602.95,634731364795231.4,1.192941433444152e+16
17.079177275638333,7190216675888552.0,2.109897419714325e+16,433996367330104.56,440794301566612.44,32985809194357.34,55411746763388.625,654036131333592.5,1.229153316506664e+16
17.5207608211511,7220256849062965.0,2.152493195145091e+16,435809570832847.0,442635906326606.25,33977368108197.54,57082208806077.6,673756871194079.0,1.2661413177120168e+16
17.97117603757412,7249731155132459.0,2.1958635935440372e+16,437588618999370.7,444442820755706.1,34990044093077.527,58788527507075.52,693901150232719.4,1.3039193618719992e+16
18.430599558325603,7278651186291350.0,2.2400250020454736e+16,439334211526283.44,446215755510265.75,36024214165466.95,60531355978796.25,714476693615585.5,1.3425016603366982e+16
18.899211549492115,7307028318192191.0,2.284994093667322e+16,441047035039885.4,447955407971605.44,37080262983319.38,62311361031520.12,735491388902880.5,1.3819027162551836e+16
19.37719578048196,7334873717411296.0,2.3307878338543336e+16,442727763546785.6,449662462703678.6,38158582981879.2,64129223437219.71,756953289192800.5,1.422137329926967e+16
19.864739696091597,7362198348443633.0,2.377423487066413e+16,444377058856101.56,451337591881900.6,39259574511623.99,65985638198404.68,778870616325896.8,1.4632206042446622e+16
20.36203449001343,7389012980265495.0,2.424918623417118e+16,445995570975589.7,452981455695464.6,40383645978347.11,67881314822048.39,801251764150626.1,1.5051679502283608e+16
20.869275179813698,7415328192499680.0,2.473291125366686e+16,447583938483754.1,454594702725298.3,41531213985380.61,69816977598656.91,824105301850971.2,1.5479950926523128e+16
21.38666068340997,7441154381215507.0,2.522559194474137e+16,449142788879953.7,456177970299635.9,42702703477965.16,71793365886546.98,847439977336851.0,1.5917180757644906e+16
21.91439389707817,7466501764393241.0,2.572741358212292e+16,450672738914209.5,457731884829008.44,43898547889766.08,73811234401402.22,871264720698297.2,1.6363532690997022e+16
22.452681775019734,7491380387079912.0,2.6238564768497892e+16,452174394898418.0,459257062122318.6,45119189291548.84,75871353511184.31,895588647724278.6,1.6819173733870208e+16
23.00173541052013,7515800126261487.0,2.6759237504034896e+16,453648353000430.6,460754107685537.25,46365078542010.516,77974509536469.94,920421063487119.5,1.7284274265521842e+16
23.561770118730532,7539770695474436.0,2.7289627256649756e+16,455095199522405.2,462223617004405.8,47636675440779.47,80121505056297.72,945771465993559.9,1.7759008098157848e+16
24.133005521105144,7563301649177699.0,2.7829933033042172e+16,456515511164686.1,463666175812454.9,48934448883587.48,82313159219606.73,971649549903424.9,1.8243552538880684e+16
24.715665631527248,7586402386904288.0,2.838035745053638e+16,457909855276407.2,465082360345529.75,50258877019618.67,84550308062350.84,998065210317071.9,1.8738088452611124e+16
25.309978944157795,7609082157210700.0,2.8941106809755384e+16,459278790093860.25,466472737583899.44,51610447411044.47,86833804830377.23,1025028546632626.5,1.92428003259929e+16
25.91617852304095,7631350061440263.0,2.9512391168156308e+16,460622864967661.25,467837865482968.94,52989657194748.76,89164520308161.95,1052549866474219.5,1.9757876332288264e+16
26.53450209350177,7653215057315753.0,3.0094424414454876e+16,461942620579586.06,469178293193521.25,54397013246248.65,91543343153492.58,1080639689692369.1,2.028350839727393e+16
27.165192135371807,7674685962374953.0,3.0687424343964412e+16,463238589149946.2,470494561272340.75,55833032345817.875,93971180238197.19,1109308752437715.1,2.0819892266145464e+16
27.808495978079243,7695771457262137.0,3.1291612734872964e+16,464511294636260.9,471787201883991.44,57298241346816.17,96448956995014.52,1138568011309365.5,2.1367227571439372e+16
28.464665897640828,7716480088887387.0,3.19072154254843e+16,465761252923944.56,473056738994495.4,58793177346229.164,98977617770707.28,1168428647579087.8,2.192571790198247e+16
29.133959215593645,7736820273464157.0,3.2534462392442852e+16,466988972009657.94,474303688557556.56,60318387857423.664,101558126185523.11,1198902071492663.2,2.2495570872875828e+16
29.816638399905518,7756800299435526.0,3.3173587829965776e+16,468194952177934.44,475528558693948.4,61874430985117.8,104191465499103.25,1229999926649737.5,2.3076998196524372e+16
30.51297116790363,7776428330298097.0,3.3824830230101724e+16,469379686171623.7,476731849864635.0,63461875602571.12,106878638982949.95,1261734094463491.8,2.367021575471839e+16
31.223230591261704,7795712407332006.0,3.448843246403697e+16,470543659356679.5,477914055038135.5,65081301530993.55,109620670299558.69,1294116698701525.8,2.4275443671778104e+16
31.947695203086937,7814660452244978.0,3.5164641864466096e+16,471687349881747.2,479075659852609.3,66733299721172.0,112418603888326.8,1327160110109366.2,2.48929063887679e+16
32.686649107148675,7833280269737235.0,3.585371030904661e+16,472811228832984.2,480217142773106.7,68418472437314.14,115273505358350.52,1360876951118010.2,2.5522832738789652e+16
33.44038208929165,7851579549994312.0,3.655589430495402e+16,473915760384523.0,481338975244385.44,70137433443103.68,118186461888224.14,1395280100636989.2,2.6165456023362544e+16
34.20918973107749,7869565871113449.0,3.727145507455329e+16,475001401944925.3,482441621839656.9,71890808189965.83,121158582632959.66,1430382698934366.8,2.682101408989798e+16
34.993373525699035,7887246701469181.0,3.8000658642201736e+16,476068604299969.1,483525540405617.9,73679234007531.17,124190999138137.86,1466198152605259.8,2.7489749410276132e+16
35.793240996213015,7904629402023479.0,3.8743775922200104e+16,477117811752084.44,484591182204061.25,75503360296293.95,127284865761418.62,1502740139630338.0,2.8171909160532356e+16
36.60910581613728,7921721228584724.0,3.950108280790106e+16,478149462256709.3,485638992050371.0,77363848722451.86,130441360101522.45,1540022614525862.8,2.886774530165945e+16
37.44128793246003,7938529334020211.0,4.027286026199433e+16,479163987555827.25,486669408449153.1,79261373414914.28,133661683434811.75,1578059813586856.5,2.9577514661532536e+16
38.29011369110923,7955060770425857.0,4.105939440797387e+16,480161813308936.5,487682863727254.4,81196621164467.06,136947061159589.7,1616866260224944.2,3.0301479017962852e+16
39.15591596493141,7971322491256870.0,4.186097662280389e+16,481143359221647.56,488679784164376.4,83170291625071.97,140298743248243.69,1656456770402536.8,3.1039905182885116e+16
40.03903428423004,7987321353422650.0,4.267790363079012e+16,482109039172139.44,489660590121505.56,85183097517285.69,143718004707360.62,1696846458164929.8,3.1793065087684316e+16
40.93981496991464,8003064119348943.0,4.35104775986688e+16,483059261335622.75,490625696167338.44,87235764833774.16,147206146045936.8,1738050741271966.2,3.25612358696653e+16
41.85861126931294,8018557459010172.0,4.435900623191978e+16,483994428307011.94,491575511202862.2,89329033046894.23,150764493751813.66,1780085346930990.0,3.3344699959669924e+16
42.7957834946992,8033807951934299.0,4.52238028723124e+16,484914937221935.7,492510438584271.75,91463655318320.9,154394400776466.5,1822966317632674.5,3.414374517084452e+16
43.751699164593184,8048822089182614.0,4.610518659669245e+16,485821179876242.06,493430876244335.7,93640398710682.62,158097247028275.56,1866710017091518.2,3.4958664788558796e+16
44.72673314788505,8063606275306839.0,4.700348231701227e+16,486713542844119.6,494337216812376.44,95860044401174.2,161874439874414.25,1911333136292663.2,3.578975766148059e+16
