t(s),Total solute volume 1,Total retention volume 1,Total 1 volume 1,Total 2 volume 1,Total 3 volume 1,Total 4 volume 1,Total 5 volume 1,Total 6 volume 1
0.1,988500314890707.8,1201179625827040.0,98333854761724.14,114345456174609.27,0.0,0.0,0.0,0.0
0.202,1488560751940612.2,1809902700930963.0,148078776518783.62,172190294286401.75,1329404065.9995322,2741137467.9101763,44198954339.87687,1024608689289.0891
0.30604000000000003,1869078051584729.8,2273938048223353.0,185931807496558.28,216206896277842.25,3371793464.3272514,6952404259.0325,112103426398.64987,2598865240098.342
0.41216080000000005,2190608983671768.8,2666758336956771.5,217917003271432.66,253400209288171.03,5987103388.244243,12344996871.058699,199056309968.92606,4614752315171.89
0.5204040160000001,2475848016033327.0,3015890415769318.0,246291960018655.6,286395431664968.94,9112881776.046997,18790144402.189465,302981196536.5102,7024123829650.274
0.6308120963200001,2736104551694671.0,3335049709775625.0,272181712486301.44,316500786445258.1,12715387353.806555,26218275630.85847,422756270580.8093,9800969215827.705
0.7434283382464002,2977952028992483.0,3632208195735620.5,296240171982851.4,344476660661805.94,16775095320.17024,34589132733.81541,557732388498.5537,12930237481927.785
0.8582969050113283,3205601137212063.5,3912473414083310.0,318886208694167.56,370810128712722.1,21280739774.542175,43879487195.972206,707534999153.9205,16403244238230.64
0.9754628431115548,3421936681936923.0,4179346048841661.0,340406796787304.0,395834892480411.7,26226376879.37816,54077084264.20753,871966499610.5481,20215407676277.93
1.094972099973786,3629035185492884.0,4435347577860974.5,361008504173820.4,419791155121779.9,31609757292.801212,65177287024.27176,1050952121848.6354,24364993906325.285
1.2168715419732616,3828449080214267.0,4682364821066530.0,380845763436063.44,442858495321185.8,37431347205.83012,77181057854.29501,1244507384361.0564,28852362305601.91
1.3412089728127268,4021374344520478.5,4921853139178049.0,400037547898431.7,465175258709690.9,43693702887.76054,90093668786.8727,1452717297193.2695,33679483380583.125
1.4680331522689813,4208755087416931.0,5154963182214270.0,418677775465406.7,486850655749610.25,50401052283.70212,103923838797.90533,1675722451043.125,38849616240193.805
1.597393815314361,4391351806668555.5,5382623599499702.0,436842098795773.7,507972657545972.3,57559004919.28655,118683135655.68785,1913709372306.2,44367084976515.805
1.729341691620648,4569787622285461.0,5605597053460159.0,454592504508924.44,528613343936979.4,65174345016.70461,134385549345.89548,2166903644722.371,50237119189704.73
1.863928525453061,4744580580582189.0,5824519352254133.0,471980526722215.25,548832640288405.3,73254880643.05782,151047181031.297,2435564893978.2144,56465737705673.77
2.001207095962122,4916166829936281.0,6039927521552310.0,489049552524869.4,568680998365504.8,81809331803.44228,168686012312.87643,2719983067139.896,63059662314377.44
2.1412312378813647,5084917630253500.0,6252280405773286.0,505836514042478.4,588201363914678.1,90847246346.91728,187321731839.30322,3020475636806.749,70026252947623.5
2.284055862638992,5251152086349848.0,6461974089637693.0,522373155126073.06,607430649606239.1,100378936210.01494,206975603851.1573,3337385481446.7637,77373458534014.14
2.4297369798917723,5415146847367245.0,6669353645243276.0,538686996228835.3,626400857021040.9,110415428844.62025,227670368034.4652,3671079270582.781,85109779558697.12
2.578331719489608,5577143609675207.0,6874722219361091.0,554802080778391.1,645139944553802.8,120968430195.76332,249430163189.56848,4021946233991.9126,93244239526308.61
2.7298983538794,5737355000824742.0,7078348160672956.0,570739560499705.6,663672508043560.9,132050296613.93265,272280469322.608,4390397227962.5273,101786363311049.42
2.884496320956988,5895969251000241.0,7280470679298269.0,586518160120937.2,682020321147099.6,143674013786.06293,296248064209.28687,4776864034911.306,110746160917074.67
3.0421862473761276,6053153943209345.0,7481304391359989.0,602154550434134.8,700202769144743.6,155853181259.3049,321360991490.86163,5181798848953.245,120134115550063.31
3.2030299723236504,6209059054324296.0,7681043005472080.0,617663650811407.4,718237200714934.8,168602001481.17532,347648538082.9061,5605673911636.648,129961175170234.83
3.3670905717701234,6363819443755786.0,7879862340996391.0,633058876772756.0,736139215813288.5,181935272533.01117,375141219199.7435,6048981270478.181,140238746892356.17
3.5344323832055258,6517556907206991.0,8077922820272791.0,648352344289063.8,753922903242025.1,195868383920.06635,403870769681.8253,6512232639130.802,150978693741979.9
3.7051210308696363,6670381884577566.0,8275371542653592.0,663555039680647.8,771601038212933.8,210417314920.5908,433870140599.9201,6995959342638.49,162193333384296.06
3.879223451487029,6822394890330133.0,8472344023036165.0,678676961906994.8,789185247806012.9,225598635101.1499,465173500326.3475,7500712334720.879,173895438522872.38
4.0568079205167695,6973687719259038.0,8668965658970784.0,693727242514018.8,806686150447599.6,241429506685.58163,497816239428.69507,8027062276694.207,186098238727304.6
4.237944078927105,7124344469082527.0,8865352976474773.0,708714247359287.9,824113474199433.8,257927688526.76712,531834978868.8713,8575599669690.263,198815423496456.72
4.422702960505647,7274442412556407.0,9061614694122446.0,723645663367999.0,841476157641004.2,275111541478.55414,567267581089.633,9146935033435.066,212061146401053.62
4.61115701971576,7424052745135573.0,9257852636903454.0,738528572908708.0,858782436355814.6,293000035002.9625,604153163648.6803,9741699126106.773,225850030178569.34
4.803380160110075,7573241229058977.0,9454162525108050.0,753369517865500.4,876039917436350.9,311612754877.81323,642532115122.25,10360543200788.547,240197172676431.72
4.9994477633122765,7722068750723363.0,9650634658644160.0,768174555084313.5,893255643958690.1,330969911893.7894,682446113049.3837,11004139294828.174,255118153558018.97
5.199436718578522,7870591805063639.0,9847354513380168.0,782949304558045.5,910436151013518.0,351092351449.2248,723938143727.822,11673180549053.82,270629041700744.94
5.403425452950093,8018862918167494.0,1.0044403263096706e+16,797698991467324.5,927587514592372.0,372001563966.4341,767052523704.4424,12368381554315.465,286746403227522.75
5.611493962009095,8166931017369524.0,1.0241858238229592e+16,812428482996677.5,944715394398544.6,393719696066.1096,811834922829.4185,13090478723240.666,303487310122677.94
5.823723841249277,8314841756479864.0,1.0439793330663544e+16,827142320687551.4,961825071468113.5,416269562446.65826,858332388764.5209,13840230685439.334,320869349391356.94
6.040198318074262,8462637802519331.0,1.0638279352283752e+16,841844748962116.0,978921481338247.9,439674658423.91064,906593372853.7968,14618418704676.596,338910632728108.25
6.261002284435747,8610359089292073.0,1.0837384353732404e+16,856539740348099.6,996009243379378.9,463959173093.689,956667757279.2279,15425847116766.457,357629806665689.6
6.486222330124463,8758043042276217.0,1.1037173908789658e+16,871231017850435.1,1013092686809589.9,489148003085.62006,1008606883436.2135,16263343787136.121,377046063179762.56
6.715946776726952,8905724778616022.0,1.1237711368955294e+16,885922074846037.9,1030175873828862.1,515266766881.4133,1062463581473.7812,17131760587171.357,397179150728838.0
6.950265712261491,9053437197924362.0,1.1439058095762542e+16,900616184120643.2,1047262610140291.6,542341814548.07214,1118292191972.77,18031974348001.035,418049495222722.56
7.18927102650672,9201211492578204.0,1.1641273655498364e+16,915316448615798.5,1064356503908190.4,570400263507.3624,1176148633384.2883,18964885542830.812,439677775956453.1
7.433056447036854,9349076762306472.0,1.184441601723552e+16,930025763113141.5,1081460921281747.8,599469984010.1506,1236090381554.2224,19931421547205.492,462085588621397.44
7.681717575977592,9497060495717860.0,1.2048541717570832e+16,944746862119509.4,1098579042024819.5,629579635696.2366,1298176538853.2139,20932535371428.18,485295026162662.4
7.935351927497144,9645188596734604.0,1.2253706014242824e+16,959482322500583.2,1115713862591538.4,660758679433.5364,1362467860170.8901,21969206672531.93,509328799203934.0
8.194058966047088,9793485488380668.0,1.2459963026251796e+16,974234573805518.2,1132868208132115.5,693037394651.173,1429026788677.8923,23042442330961.742,534210249419210.2
8.45794014536803,9941974206454692.0,1.2667365862055064e+16,989005907585322.4,1150044743328517.5,726446897134.955,1497917492542.3843,24153277042643.082,559963363254206.0
8.72709894827539,1.009067648420589e+16,1.2875966737196206e+16,1003798485816222.8,1167245982189409.2,761019157277.7272,1569205902585.6543,25302773926195.086,586612785998609.2
9.0016409272409,1.0239612828991752e+16,1.308581708255384e+16,1018614348525420.1,1184474296917572.0,796787018778.4816,1642959750864.0803,26492025145082.242,614183836204414.1
9.281673745785717,1.0388802591773502e+16,1.3296967644245444e+16,1033455420704329.8,1201731925948855.2,833784217784.838,1719248610166.6877,27722152544531.246,642702520446279.5
9.567307220701432,1.053826403019988e+16,1.3509468576093708e+16,1048323518584025.0,1219020981249428.2,872045402474.492,1798143934418.9517,28994308303062.49,672195548420442.6
9.85865336511546,1.0688014365938238e+16,1.372336952545499e+16,1063220355338418.9,1236343454947608.8,911606153071.6482,1879719099984.9634,30309675598508.887,702690348379169.5
10.155826432417769,1.0838069836835848e+16,1.3938719713113366e+16,1078147546273142.4,1253701225367630.2,952503002295.149,1964049447861.0547,31669469288410.82,734215082898223.9
10.458942961066125,1.0988445744424218e+16,1.4155568007862886e+16,1093106613551177.4,1271096062524766.0,994773456235.3389,2051212326754.971,33074936604692.004,766798664975041.2
10.768121820287448,1.1139156497222742e+16,1.4373962996328838e+16,1108098990500613.8,1288529633134482.2,1038456015657.1711,2141287137045.3748,34527357862533.047,800470774455763.4
11.083484256693197,1.1290215650245738e+16,1.4593953048518906e+16,1123126025544712.0,1306003505182480.2,1083590197727.2653,2234355375617.2036,36028047183368.56,835261874789294.5
11.405153941827061,1.1441635941073408e+16,1.4815586379539336e+16,1138188985790171.8,1323519152097166.5,1130216558162.9226,2330500681568.684,37578353231942.75,871203230106935.2
11.733257020663602,1.1593429322807504e+16,1.5038911107865028e+16,1153289060305496.0,1341077956561912.8,1178376713801.275,2429808882786.369,39179659967362.695,908326922626139.5
12.067922161076874,1.1745606994200062e+16,1.5263975310512486e+16,1168427363118106.2,1358681214000110.5,1228113365586.833,2532368043384.7812,40833387408096.11,946665870377113.8
12.409280604298411,1.189817942721158e+16,1.5490827075426298e+16,1183604935955797.2,1376330135763078.8,1279470321975.8657,2638268512007.3438,42540992410859.46,986253845251016.4
12.75746621638438,1.2051156392231078e+16,1.571951455135972e+16,1198822750755570.5,1394025852047353.0,1332492522756.035,2747602970985.577,44303969463347.11,1027125491368608.2
13.112615540712067,1.220454698116621e+16,1.5950085995500942e+16,1214081711960567.2,1411769414565666.0,1387226063279.7385,2860466486353.435,46123851490752.21,1069316343768134.5
13.474867851526309,1.2358359628590864e+16,1.6182589819073042e+16,1229382658623815.2,1429561798993227.0,1443718219109.6653,2976956558713.673,48002210676029.695,1112862847411309.8
13.844365208556836,1.2512602131120912e+16,1.6417074631111614e+16,1244726366335658.2,1447403907209002.5,1502017471074.9268,3097173174953.1743,49940659293849.82,1157802376506181.0
14.221252512727972,1.266728166517193e+16,1.6653589280607432e+16,1260113548990269.5,1465296569349858.5,1562173530736.215,3221218860803.9062,51940850558191.375,1204173254145650.8
14.605677562982532,1.282240494408014e+16,1.6892182892353554e+16,1275544874412627.5,1483240561972123.5,1624237383907.7627,3349198767986.6763,54004479020326.14,1252014596716408.2
14.997791114242183,1.2977977669063184e+16,1.7132904921165124e+16,1291020909753607.0,1501236544595254.8,1688261246735.672,3481220594256.545,56133283287252.11,1301367032624810.8
15.397746936527026,1.3134005390034224e+16,1.7375805174740084e+16,1306542207103373.2,1519285159195719.5,1754298697121.6216,3617394838708.602,58329044158715.72,1352271680712194.0
15.805701875257567,1.3290492952427534e+16,1.762093385613704e+16,1322109248475159.2,1537386966272502.2,1822404632319.8264,3757834724850.0674,60593587352570.01,1404770862252088.8
16.221815912762718,1.3447444650483856e+16,1.7868341599959826e+16,1337722461050683.8,1555542462564922.5,1892635313713.7295,3902656290397.1724,62928783966503.34,1458907950289739.0
16.64625223101797,1.3604864237841558e+16,1.811807950773567e+16,1353382218233715.0,1573752082277722.5,1965048394695.4233,4051978444830.7437,65336551406185.32,1514727391136940.5
17.079177275638333,1.3762754937265058e+16,1.837019918257132e+16,1369088840617826.0,1592016198206445.8,2039702948939.3723,4205923027767.8755,67818854326580.61,1572274726178695.8
17.5207608211511,1.39211194495901e+16,1.8624752763174732e+16,1384842596876280.5,1610335122772172.2,2116659499068.1733,4364614868145.355,70377705586354.3,1631596613982644.0
17.97117603757412,1.407995996195515e+16,1.8881792957323924e+16,1400643704580848.8,1628709108973693.5,2195980045707.57,4528181844209.074,73015167215278.48,1692740852709021.8
18.430599558325603,1.4239278155383362e+16,1.9141373074858744e+16,1416492330956059.0,1647138351264563.8,2277728096927.686,4696754944303.456,75733351394542.66,1755756402818968.5
18.899211549492115,1.4399075211775144e+16,1.940354706026697e+16,1432388593574786.8,1665622986361969.0,2361968698067.341,4870468328454.493,78534421449865.97,1820693410078667.8
19.37719578048196,1.4559351820367216e+16,1.966836952492881e+16,1448332561000816.2,1684163093993885.2,2448768461938.172,5049459390739.764,81420592857303.83,1887603228856877.0
19.864739696091597,1.4720108183710554e+16,1.9935895779081276e+16,1464324253383478.0,1702758697590570.0,2538195599404.9995,5233868822438.528,84394134261637.27,1956538445713179.5
20.36203449001343,1.4881344023215574e+16,2.020618186355858e+16,1480363643009296.0,1721409764926019.0,2630319950339.0083,5423840675954.453,87457368507226.58,2027552903274138.2
20.869275179813698,1.5043058584310656e+16,2.0479284581360624e+16,1496450654815147.0,1740116208714681.0,2725213014939.6514,5619522429503.306,90612673681203.92,2100701724394492.5
21.38666068340997,1.5205250641256648e+16,2.075526152909943e+16,1512585166867180.8,1758877887168378.0,2822947985421.5923,5821065052557.878,93862484168882.66,2176041336600340.8
21.91439389707817,1.5367918501657834e+16,2.103417112836808e+16,1528767010809568.5,1777694604518096.5,2923599778062.4004,6028623072041.427,97209291721243.5,2253629496811171.5
22.452681775019734,1.553106001070735e+16,2.1316072657076016e+16,1544995972286839.8,1796566111505100.8,3027245065606.9023,6242354639261.693,100655646534361.06,2333525316337544.0
23.00173541052013,1.5694672555202854e+16,2.160102628079078e+16,1561271791343329.8,1815492105845447.5,3133962310023.6577,6462421597576.134,104204158340635.95,2415789286150940.0
23.561770118730532,1.5858753067366966e+16,2.1889093084122692e+16,1577594162803243.2,1834472232671906.0,3243831795609.2197,6688989550779.444,107857497511675.19,2500483302422536.0
24.133005521105144,1.6023298028504204e+16,2.218033510219012e+16,1593962736634441.8,1853506084956980.5,3356935662435.439,6922227932204.529,111618396172681.62,2587670692327141.0
24.715665631527248,1.6188303472525232e+16,2.2474815352196656e+16,1610377118299022.0,1872593203920589.8,3473357940135.226,7162310074526.715,115489649328193.55,2677416240108944.5
25.309978944157795,1.6353764989367956e+16,2.277259786515385e+16,1626836869093627.5,1891733079425786.2,3593184582021.9746,7409413280262.413,119474115999024.38,2769786213405090.5
25.91617852304095,1.6519677728342788e+16,2.307374771777737e+16,1643341506482257.0,1910925150365737.2,3716503499537.683,7663718892951.788,123574720370243.08,2864848389823809.5
26.53450209350177,1.6686036401428908e+16,2.3378331064587024e+16,1659890504424134.5,1930168805045014.2,3843404597025.128,7925412369016.137,127794452950038.52,2962672083772886.0
27.165192135371807,1.685283528654668e+16,2.3686415170235524e+16,1676483293699278.2,1949463381558141.5,3973979806818.9956,8194683350279.995,132136371739308.5,3063328173535017.5
27.808495978079243,1.7020068230830862e+16,2.3998068442093036e+16,1693119262234077.0,1968808168168217.8,4108323124651.1777,8471725737147.982,136603603411817.2,3166889128586212.0
28.464665897640828,1.7187728653927454e+16,2.4313360463110972e+16,1709797755429279.2,1988202403688276.0,4246530645365.211,8756737762426.85,141199344504761.06,3273429037153413.5
29.133959215593645,1.7355809551336332e+16,2.46323620249887e+16,1726518076492495.2,2007645277867956.2,4388700598935.176,9049922065782.738,145926862619585.16,3383023634007647.0
29.816638399905518,1.7524303497821352e+16,2.4955145161664364e+16,1743279486777449.8,2027135931787967.0,4534933386784.1875,9351485768824.406,150789497632903.22,3495750328489035.0
30.51297116790363,1.7693202650908118e+16,2.5281783183151284e+16,1760081206131897.5,2046673458264697.0,4685331618397.724,9661640550802.846,155790662917360.94,3611688232760028.5
31.223230591261704,1.7862498754488462e+16,2.561235070974052e+16,1776922413256215.8,2066256902267164.5,4840000148227.219,9980602724918.016,160933846572301.78,3730918190283233.0
31.947695203086937,1.8032183142551132e+16,2.5946923706586936e+16,1793802246074513.5,2085885261348542.5,4999046112879.548,10308593315224.129,166222612664087.8,3853522804520583.0
32.686649107148675,1.82022467430554e+16,2.6285579518698576e+16,1810719802119975.2,2105557486094289.8,5162578968587.858,10645838134124.74,171660602475941.44,3979586467850254.0
33.44038208929165,1.837268008196541e+16,2.662839690634525e+16,1827674138936196.2,2125272480588781.2,5330710528959.789,10992567860449.121,177251535767173.03,4109195390698298.5
34.20918973107749,1.854347328746055e+16,2.697545608090353e+16,1844664274495998.8,2145029102902370.0,5503555002998.956,11349018118103.125,182999212041667.16,4242437630881849.0
34.993373525699035,1.8714616094337604e+16,2.732683874115273e+16,1861689187639350.0,2164826165600592.0,5681229033396.094,11715429555285.31,188907511825513.22,4379403123160963.5
35.793240996213015,1.888609784861809e+16,2.768262811003635e+16,1878747818531732.5,2184662436277145.5,5863851735085.838,12092047924263.646,194980397953661.0,4520183708996393.0
36.60910581613728,1.905790751237507e+16,2.804290897190338e+16,1895839069144251.5,2204536638112214.5,6051544734066.439,12479124161703.996,201221916865502.66,4664873166510533.0
37.44128793246003,1.9230033668790812e+16,2.840776771023986e+16,1912961803756783.0,2224447450457537.5,6244432206478.647,12876914469546.277,207636199909279.47,4813567240649362.0
38.29011369110923,1.9402464527457224e+16,2.877729234590431e+16,1930114849485246.8,2244393509449497.0,6442640917941.176,13285680396421.24,214227464655227.66,4966363673542776.0
39.15591596493141,1.957518792992837e+16,2.9151572575875508e+16,1947296996833985.5,2264373408651487.5,6646300263139.862,13705688919603.613,221000016217371.94,5123362235061567.0
40.03903428423004,1.9748191355535984e+16,2.9530699812522584e+16,1964507000274207.5,2284385699726523.5,6855542305668.09,14137212527496.262,227958248583900.4,5284664753568829.0
40.93981496991464,1.9921461927472936e+16,2.9914767223404e+16,1981743578849248.2,2304428893141059.0,7070501818115.827,14580529302641.586,235106645956044.44,5450375146863932.0
41.85861126931294,2.0094986419154536e+16,3.0303869771603212e+16,1999005416807298.2,2324501458900743.0,7291316322405.4795,15035923005255.443,242449784095395.03,5620599453317592.0
42.7957834946992,2.0268751260860196e+16,3.069810425660459e+16,2016291164262156.8,2344601827318757.0,7518126130371.858,15503683157279.943,249992331679601.7,5795445863196244.0
43.751699164593184,2.04427425466614e+16,3.1097569355712816e+16,2033599437882390.0,2364728389817177.0,7751074384584.633,15984105126951.41,257739051666383.97,5975024750173929.0
