t(s),Total solute volume 1,Total retention volume 1,Total 1 volume 1,Total 2 volume 1,Total 3 volume 1,Total 4 volume 1,Total 5 volume 1,Total 6 volume 1
0.1,1063829490026819.8,1368988609462191.8,135960145783138.03,169198973652234.8,0.0,0.0,0.0,0.0
0.202,1594265584993528.0,2069190033728827.8,203751244360933.62,253563290370679.53,15236370540.291782,34873373516.103455,657549547719.9858,16902254711909.26
0.30604000000000003,1992376703006979.5,2608349072002815.0,254630869850592.56,316881702939767.25,38462312370.216705,88033702240.38559,1659931118535.116,42673369072331.88
0.41216080000000005,2324069975818849.0,3069304133895959.5,297022123748077.3,369636550690955.7,67972225044.57054,155577246448.1272,2933525952447.1177,75418408214142.75
0.5204040160000001,2614160490257902.5,3483063364114011.0,334096438051347.44,415774601010255.5,102966126529.56987,235673071601.15372,4443808854517.994,114249386741851.7
0.6308120963200001,2875058488289977.5,3865059845840142.5,367439873630005.9,457269666731048.3,142979555893.45526,327258189016.1188,6170735898501.467,158650843545700.16
0.7434283382464002,3113999701473113.0,4224259522088354.5,397977175600819.1,495272569867090.8,187713798269.00504,429648972640.2479,8101416651008.894,208291295725419.5
0.8582969050113283,3335631756909943.0,4566408436047493.0,426302322668961.56,530522501958161.25,236965786722.941,542380718155.30676,10227088755637.566,262945419249920.94
0.9754628431115548,3543146428032750.5,4895449612994629.0,452823231693322.94,563527105260900.4,290593379403.4301,665128169410.1365,12541619333739.477,322455507125109.44
1.094972099973786,3738845921184421.0,5214229413635759.0,477834130569254.44,594652538979744.2,348496012086.1515,797661236170.3976,15040669980158.744,386709995673925.3
1.2168715419732616,3924454373171382.5,5524884843919312.0,501555368417602.8,624173022044893.6,410602987731.1025,939818191486.9927,17721191364554.957,455630467741669.4
1.3412089728127268,4101301925267684.0,5829071715075375.0,524156940716208.7,652300109546074.8,476865938771.7912,1091488419620.2439,20581097922172.887,529163287264842.75
1.4680331522689813,4270439767482892.0,6128106805284649.0,545773192253412.2,679200990187918.5,547253739018.9767,1252600770641.388,23619048266083.383,607273952584689.4
1.597393815314361,4432715355544269.0,6423060528476944.0,566512430051972.6,705010449331665.4,621748936697.8594,1423115396602.8499,26834291248891.57,689943137966857.9
1.729341691620648,4588823446596666.0,6714819628149488.0,586463445862854.4,729838986074394.2,700345175755.5052,1603017849660.7866,30226554676370.03,777163831913798.8
1.863928525453061,4739341820293978.0,7004130934146027.0,605700081412641.6,753778494584452.2,783045283604.2164,1792314705536.9055,33795962783207.5,868939215082607.4
2.001207095962122,4884756950045243.0,7291632722904052.0,624284509254849.9,776906347038261.1,869859822536.1487,1991030248233.01,37542973719935.44,965281052774991.8
2.1412312378813647,5025482876202376.0,7577877712677490.0,642269644811902.6,799288395345806.4,960805972438.649,2199203913030.0195,41468331338188.164,1066208455093742.5
2.284055862638992,5161875358691472.0,7863350264171642.0,659700955117819.4,820981222085330.5,1055906655732.1501,2416888283890.3315,45573027429876.55,1171746905907534.0
2.4297369798917723,5294242675821858.0,8148479474220898.0,676617838933812.6,842033858022461.8,1155189842992.8813,2644147504417.155,49858271764447.41,1281927492330897.5
2.578331719489608,5422853991777582.0,8433649299342240.0,693054696135219.1,862489112935275.4,1258687995763.9863,2881056002816.989,54325468047029.125,1396786286448548.0
2.7298983538794,5547945929720912.0,8719206492527310.0,709041767771062.4,882384621047276.5,1366437615184.4312,3127697459065.233,58976194443589.99,1516363844470222.5
2.884496320956988,5669727799224206.0,9005466904071277.0,724605804143283.5,901753672435169.8,1478478873401.969,3384163961555.7783,63812187679034.56,1640704797754615.2
3.0421862473761276,5788385799909526.0,9292720540780080.0,739770602042702.6,920625881605476.4,1594855310585.0945,3650555313902.48,68835329966584.72,1769857516631317.5
3.2030299723236504,5904086435979983.0,9581235670520952.0,754557441134918.0,939027730565791.9,1715613584526.869,3926978462122.2217,74047638207096.55,1903873832586499.2
3.3670905717701234,6016979315292865.0,9871262184045470.0,768985441689050.1,956983014009202.0,1840803262866.9163,4213547019372.5376,79451255027884.16,2042808807744235.0
3.5344323832055258,6127199463199016.0,1.0163034372718918e+16,783071860292372.0,974513207323678.0,1970476650193.0525,4510380870532.528,85048441327087.78,2186720543056048.8
3.7051210308696363,6234869250012662.0,1.0456773242360978e+16,796832336185904.1,991637773150539.8,2104688643953.3582,4817605842736.426,90841570061661.0,2335670018463514.0
3.879223451487029,6340100008016916.0,1.0752688455319532e+16,810281097921896.8,1008374418564454.6,2243496614371.4395,5135353430857.647,96833121071525.0,2489720959699507.5
4.0568079205167695,6442993396890634.0,1.1050979972112096e+16,823431137868874.1,1024739312240609.1,2386960304522.5903,5463760569149.775,103025676774072.92,2648939727464237.0
4.237944078927105,6543642563678792.0,1.1351839448406758e+16,836294360458853.0,1040747268944596.5,2535141747473.9277,5802969441956.794,109421918595386.11,2813395225539697.5
4.422702960505647,6642133133753522.0,1.1655451431336652e+16,848881708834701.0,1056411907141893.9,2688105197973.255,6153127327736.306,116024624029617.56,2983158825051198.5
4.61115701971576,6738544061807065.0,1.1961994390140716e+16,861203273609232.6,1071745784345798.9,2845917076628.579,6514386471686.138,122836664237739.67,3158304302592570.5
4.803380160110075,6832948366194765.0,1.2271641609178484e+16,873268386716126.5,1086760513912545.0,3008645924883.7783,6886903983096.06,129861002112535.1,3338907790334554.0
4.9994477633122765,6925413765487230.0,1.258456196596392e+16,885085702762940.6,1101466866283075.8,3176362369385.745,7270841754210.935,137100690749221.8,3525047736557870.5
5.199436718578522,7016003232586779.0,1.2900920612624882e+16,896663269848606.8,1115874857113618.9,3349139094572.469,7666366397926.575,144558872271217.22,3716804875312152.5
5.403425452950093,7104775478990084.0,1.3220879575845312e+16,908008591453447.9,1129993824296278.0,3527050822501.0776,8073649202073.446,152238776968701.44,3914262204112239.5
5.611493962009095,7191785379568281.0,1.3544598287681192e+16,919128680727184.2,1143832495519067.2,3710174299089.1694,8492866098397.773,160143722714343.28,4117504968754808.5
5.823723841249277,7277084346461667.0,1.3872234057504336e+16,930030108273608.4,1157399047732745.0,3898588286070.4277,8924197644639.938,168277114626013.56,4326620654479583.5
6.040198318074262,7360720659252752.0,1.4203942493606876e+16,940719044347574.1,1170701159663908.2,4092373558069.628,9367829018350.158,176642444950841.2,4541698982815378.0
6.261002284435747,7442739757418271.0,1.4539877881600192e+16,951201296231107.5,1183746058328615.0,4291612904289.651,9823950021280.373,185243293148728.16,4762831913547888.0
6.486222330124463,7523184500109333.0,1.488019352560401e+16,961482341433986.0,1196540560349659.0,4496391134375.337,10292755093357.863,194083326156561.0,4990113651326702.0
6.715946776726952,7602095397528203.0,1.5225042057285862e+16,971567357264262.2,1209091108756362.8,4706795088080.175,10774443335384.732,203166298816993.84,5223640656496573.0
6.950265712261491,7679510817525341.0,1.5574575717040996e+16,981461247231940.2,1221403805843276.0,4922913648412.635,11269218539725.086,212496054457874.06,5463511659794424.0
7.18927102650672,7755467170506083.0,1.5928946610964476e+16,991168664680485.9,1233484442578983.5,5144837757982.607,11777289228340.814,222076525610267.28,5709827680602341.0
7.433056447036854,7829999075290497.0,1.6288306946737806e+16,1000694033984157.1,1245338524985681.8,5372660438305.06,12298868697620.885,231911734854622.5,5962692048486898.0
7.681717575977592,7903139508197390.0,1.6652809251107114e+16,1010041569601330.2,1256971297850514.2,5606476811849.412,12834175069521.422,242005795785958.78,6222210427790530.0
7.935351927497144,7974919937310130.0,1.702260657125992e+16,1019215293234007.9,1268387766080206.8,5846384126649.972,13383431348594.826,252362914090143.2,6488490845070206.0
8.194058966047088,8045370443617751.0,1.7397852662092376e+16,1028219049309964.6,1279592713968153.5,6092481783315.897,13946865484539.441,262987388724298.12,6761643719204347.0
8.45794014536803,8114519830501055.0,1.7778702161095078e+16,1037056518975366.0,1290590722607913.0,6344871364299.322,14524710439947.092,273883613195257.53,7041781894011240.0
8.72709894827539,8182395722843198.0,1.8165310752360892e+16,1045731232761336.1,1301386185656405.8,6603656665296.714,15117204262964.486,285056076930731.7,7329020673240958.0
9.0016409272409,8249024656881963.0,1.8557835321025696e+16,1054246582067326.2,1311983323624712.0,6868943728675.0,15724590164620.291,296509366738484.3,7623477857819976.0
9.281673745785717,8314432161782441.0,1.89564340992912e+16,1062605829586299.5,1322386196851930.0,7140840878825.496,16347116600598.57,308248168349391.94,7925273785241703.0
9.567307220701432,8378642833789282.0,1.936126680503643e+16,1070812118781594.8,1332598717298869.8,7419458759361.109,16985037357265.64,320277268040766.94,8234531371009281.0
9.85865336511546,8441680403715426.0,1.9772494773908036e+16,1078868482512138.9,1342624659281976.8,7704910372082.244,17638611641781.215,332601554336733.6,8551376152047885.0
10.155826432417769,8503567798435210.0,2.0190281085670772e+16,1086777850891456.1,1352467669253604.2,7997311117645.499,18308104176144.33,345226019782850.9,8875936332013918.0
10.458942961066125,8564327196973709.0,2.061479068551474e+16,1094543058455995.9,1362131274722857.2,8296778837876.938,18993785295043.465,358155762792520.25,9208342828436768.0
10.768121820287448,8623980081716468.0,2.104619050093411e+16,1102166850709885.1,1371618892400368.0,8603433859679.501,19695931047394.57,371395989563000.4,9548729321637332.0
11.083484256693197,8682547285206634.0,2.148464955472789e+16,1109651890105727.6,1380933835641224.2,8917399040489.172,20414823301467.867,384952016059125.5,9897232305373206.0
11.405153941827061,8740049032945306.0,2.1930339074612356e+16,1117000761514584.5,1390079321252255.5,9238799815241.309,21150749853513.85,398829270063089.8,1.0253991139168336e+16
11.733257020663602,8796504982566633.0,2.2383432599884004e+16,1124215977232666.0,1399058475722713.0,9567764244812.322,21904004539812.977,413033293288840.2,1.0619148102288538e+16
12.067922161076874,8851934259720251.0,2.2844106085527404e+16,1131299981567185.8,1407874340931261.5,9904423065907.66,22674887352082.645,427569743559837.3,1.0992848449330848e+16
12.409280604298411,8906355490959452.0,2.331253800412211e+16,1138255155039569.2,1416529879376753.0,10248909742369.89,23463704556185.035,442444397049124.06,1.1375240467398656e+16
12.75746621638438,8959786833903009.0,2.3788909445869508e+16,1145083818240199.5,1425027978975372.5,10601360517885.64,24270768814086.902,457663150580797.5,1.1766475534838142e+16
13.112615540712067,9012246004912292.0,2.4273404217028532e+16,1151788235365632.2,1433371457462617.2,10961914470071.814,25096399309031.805,473232023992107.0,1.2166708181516754e+16
13.474867851526309,9063750304501320.0,2.4766208937023084e+16,1158370617466046.5,1441563066434663.5,11330713565927.062,25940921873891.34,489157162555585.9,1.2576096150625638e+16
13.844365208556836,9114316640676204.0,2.5267513134460804e+16,1164833125428128.5,1449605495060463.8,11707902718634.424,26804669122668.133,505444839460691.75,1.299480046199393e+16
14.221252512727972,9163961550382840.0,2.5777509342280164e+16,1171177872716097.8,1457501373492918.5,12093629845706.057,27687980585131.25,522101458354574.44,1.3422985476902918e+16
14.605677562982532,9212701219223214.0,2.6296393192226828e+16,1177406927891511.5,1465253276004717.0,12488045928462.479,28591202844567.273,539133555941712.94,1.3860818964392616e+16
14.997791114242183,9260551499587978.0,2.6824363508840216e+16,1183522316930679.0,1472863723872249.2,12891305072839.887,29514689678639.008,556547804642199.1,1.430847216905568e+16
15.397746936527026,9307527927337708.0,2.736162240312081e+16,1189526025356546.2,1480335188028746.0,13303564571523.865,30458802203346.027,574351015308631.4,1.47661198803143e+16
15.805701875257567,9353645737154904.0,2.790837536603111e+16,1195420000200714.5,1487670091505914.2,13724984967406.61,31423909020086.35,592550140001560.5,1.5233940503180534e+16
16.221815912762718,9398919876676588.0,2.8464831361975372e+16,1201206151809651.2,1494870811681743.8,14155730118369.227,32410386365824.17,611152274823620.2,1.5712116130499576e+16
16.64625223101797,9443365019509420.0,2.903120292239043e+16,1206886355508031.5,1501939682350492.8,14595967263390.773,33418618266370.637,630164662812434.5,1.620083261668031e+16
17.079177275638333,9486995577218724.0,2.960770623957149e+16,1212462453130976.2,1508878995629506.8,15045867089987.818,34448996692790.32,649594696892595.9,1.670027965291689e+16
17.5207608211511,9529825710376834.0,3.0194561260848664e+16,1217936254436051.0,1515691003716417.8,15505603802990.188,35501921720947.5,669449922886947.5,1.7210650843908446e+16
17.97117603757412,9571869338746984.0,3.0791991783221644e+16,1223309538404808.0,1522377920508904.0,15975355194659.084,36577801694212.766,689738042587560.2,1.773214378608453e+16
18.430599558325603,9613140150674876.0,3.140022554855502e+16,1228584054443038.8,1528941923098355.2,16455302716156.604,37677053389349.41,710466916886826.0,1.8264960147346464e+16
18.899211549492115,9653651611752294.0,3.201949433942809e+16,1233761523488007.2,1535385153147781.8,16945631550374.943,38800102185608.72,731644568969129.0,1.880930574833485e+16
19.37719578048196,9693416972812488.0,3.2650034075730444e+16,1238843639030297.2,1541709718163512.0,17446530686137.0,39947382237057.87,753279187563642.2,1.9365390645237236e+16
19.864739696091597,9732449277312854.0,3.329208491208824e+16,1243832068057309.0,1547917692669323.2,17958192993779.766,41119336648174.49,775379130258848.2,1.9933429214147936e+16
20.36203449001343,9770761368154850.0,3.394589133620175e+16,1248728451924900.5,1554011119291176.0,18480815302133.188,42316417652740.77,797952926879390.1,2.0513640236996564e+16
20.869275179813698,9808365893988166.0,3.461170226817116e+16,1253534407163028.0,1559992009759847.8,19014598476909.62,43539086796073.01,821009282925999.4,2.1106246989061104e+16
21.38666068340997,9845275315041588.0,3.5289771160884588e+16,1258251526220989.0,1565862345838331.0,19559747500517.76,44787815120627.1,844557083079200.1,2.1711477328083308e+16
21.91439389707817,9881501908520304.0,3.5980356101538304e+16,1262881378157190.8,1571624080180242.2,20116471553318.13,46063083355019.36,868605394767586.6,2.232956378500468e+16
22.452681775019734,9917057773605974.0,3.6683719914357064e+16,1267425509278179.0,1577279137125088.2,20684984096336.97,47365382106507.945,893163471801510.6,2.2960743656343476e+16
23.00173541052013,9951954836093110.0,3.740013026457884e+16,1271885443731172.8,1582829413435651.8,21265502955456.273,48695212056981.1,918240758073072.4,2.3605259098233364e+16
23.561770118730532,9986204852692708.0,3.8129859763767624e+16,1276262684054082.0,1588276778982481.2,21858250407099.227,50053084162499.914,943846891323288.6,2.426335722214551e+16
24.133005521105144,1.001981941503183e+16,3.8873186076515016e+16,1280558711686662.0,1593623077380004.2,22463453265431.25,51439519856446.34,969991706977459.5,2.4935290192317228e+16
24.715665631527248,1.0052809953375094e+16,3.963039202858753e+16,1284774987446147.0,1598870126578434.0,23081342971096.016,52855051256329.77,996685242049676.6,2.562131532491079e+16
25.309978944157795,1.0085187740093066e+16,4.040176571658033e+16,1288912951970489.2,1604019719415383.0,23712155681509.562,54300221374306.516,1023937739117564.8,2.632169518892802e+16
25.91617852304095,1.0116963892899246e+16,4.118760061912939e+16,1292974026132079.5,1609073624130725.2,24356132362733.39,55775584331468.33,1051759650368280.6,2.7036697708904896e+16
26.53450209350177,1.0148149377877046e+16,4.198819570974033e+16,1296959611424594.0,1614033584848007.0,25013518882950.09,57281705575960.336,1080161641716946.2,2.7766596269414852e+16
27.165192135371807,1.0178755012315226e+16,4.2803855571282696e+16,1300871090325375.8,1618901322025435.8,25684566107565.316,58819162104987.46,1109154596998626.2,2.851166982140555e+16
27.808495978079243,1.0208791467370148e+16,4.363489051220721e+16,1304709826635652.0,1623678532879260.5,26369529995960.434,60388542690772.27,1138749622235017.5,2.927220299040034e+16
28.464665897640828,1.023826927057028e+16,4.448161668453185e+16,1308477165800651.2,1628366891782165.5,27068671699920.473,61990448110529.016,1168958049977151.0,3.004848618659114e+16
29.133959215593645,1.0267198808178684e+16,4.5344356203652296e+16,1312174435211514.0,1632968050638956.0,27782257663763.883,63625491380519.17,1199791443725273.5,3.084081571685357e+16
29.816638399905518,1.0295590327426776e+16,4.622343727002236e+16,1315802944490794.2,1637483639241903.2,28510559726199.824,65294297994257.2,1231261602427239.8,3.164949389871501e+16
30.51297116790363,1.0323453938632584e+16,4.71191942927555e+16,1319363985763122.8,1641915265607549.2,29253855223940.406,66997506164934.766,1263380565056737.2,3.247482917630673e+16
31.223230591261704,1.0350799617214376e+16,4.803196801519751e+16,1322858833912658.5,1646264516297086.2,30012427097095.34,68735767072134.98,1296160615272687.2,3.3317136238331508e+16
31.947695203086937,1.0377637205611782e+16,4.896210564251336e+16,1326288746828486.2,1650532956721796.2,30786563996376.438,70509745112910.12,1329614286161193.5,3.417673613808076e+16
32.686649107148675,1.0403976415122734e+16,4.990996097134151e+16,1329654965639477.2,1654722131435276.8,31576560392142.406,72320118157295.94,1363754365061457.5,3.5053956415533148e+16
33.44038208929165,1.042982682766652e+16,5.087589452156019e+16,1332958714939578.5,1658833564413840.5,32382716685310.43,74167577808338.95,1398593898477093.0,3.5949131221569404e+16
34.20918973107749,1.0455197897480886e+16,5.186027367021125e+16,1336201203004697.8,1662868759326410.2,33205339320166.918,76052829666713.7,1434146197074348.8,3.686260144433806e+16
34.993373525699035,1.0480098952760594e+16,5.286347278763224e+16,1339383622002122.8,1666829199795141.8,34044740899105.848,77976593600007.69,1470424840768659.8,3.779471483780663e+16
35.793240996213015,1.0504539197244966e+16,5.388587337583767e+16,1342507148193433.0,1670716349647931.0,34901240299325.88,79939604016757.03,1507443683901128.5,3.874582615253417e+16
36.60910581613728,1.052852771176013e+16,5.492786420920168e+16,1345572942131574.5,1674531653163683.0,35775162791517.22,81942610145311.42,1545216860506421.8,3.971629726870307e+16
37.44128793246003,1.0552073455722732e+16,5.598984147748261e+16,1348582148853046.5,1678276535311472.2,36666840160569.73,83986376317610.67,1583758789673714.0,4.0706497331443496e+16
38.29011369110923,1.0575185268609394e+16,5.707220893123953e+16,1351535898065708.5,1681952401984274.0,37576610828333.98,86071682257960.5,1623084181002238.2,4.171680288849161e+16
39.15591596493141,1.0597871871397598e+16,5.817537802968389e+16,1354435304332928.0,1685560640228119.2,38504819978467.25,88199323376890.56,1663208040153071.5,4.2747598030216856e+16
40.03903428423004,1.0620141867981906e+16,5.9299768091013304e+16,1357281467254580.2,1689102618467362.2,39451819683398.625,90370111070179.56,1704145674498838.5,4.379927453205713e+16
40.93981496991464,1.0642003746570122e+16,6.044580644527369e+16,1360075471645450.2,1692579686726669.0,40417969033442.27,92584873023139.73,1745912698872982.0,4.4872231999401864e+16
41.85861126931294,1.0663465881061686e+16,6.161392858979205e+16,1362818387711453.0,1695993176850355.5,41403634268096.58,94844453520245.36,1788525041420268.5,4.596687801496e+16
42.7957834946992,1.0684536532413466e+16,6.280457834723105e+16,1365511271224126.2,1699344402719499.8,42409188909560.07,97149713760198.48,1831998949550296.5,4.708362828865395e+16
43.751699164593184,1.070522384999416e+16,6.401820802630499e+16,1368155163693770.0,1702634660467441.8,43435013898497.125,99501532176520.8,1876350995995716.8,4.822290681007882e+16
