t(s),Total solute volume 1,Total retention volume 1,Total 1 volume 1,Total 2 volume 1,Total 3 volume 1,Total 4 volume 1,Total 5 volume 1,Total 6 volume 1
0.1,821307387244814.4,914309965951331.9,46537842289353.97,46464736417161.86,0.0,0.0,0.0,0.0
0.202,1237586201828948.2,1377727624702688.0,70125500434477.414,70015341091282.33,1612401.9197217347,2629687.709484148,29830017.03363419,547275871.8461268
0.30604000000000003,1554587692732909.5,1730626382208613.0,88087795235812.69,87949419150308.62,4091223.3130324287,6672430.798970345,75689176.77380392,1388636751.8832192
0.41216080000000005,1822718174885939.5,2029120364359103.8,103280906002599.44,103118663243158.5,7267295.561437377,11852329.751289597,134447763.49083963,2466660014.730673
0.5204040160000001,2060836471436271.2,2294203888274334.5,116773432573114.61,116589994564600.62,11065565.331771063,18046979.05823565,204717256.6631434,3755870544.7693243
0.6308120963200001,2278336780804277.0,2536334910935979.5,129097679578329.75,128894881556276.62,15445785.578016868,25190739.26693841,285753068.57089293,5242607501.678228
0.7434283382464002,2480678633372189.5,2761591176568050.0,140563001065662.84,140342192305561.11,20384955.633737158,33246098.28082696,377129677.1057136,6919063906.565026
0.8582969050113283,2671359306317763.0,2973865979676428.0,151367563685687.88,151129782165611.16,25870107.70410819,42191906.75026525,478607172.5674909,8780838178.25407
0.9754628431115548,2852775266925210.5,3175827154538898.5,161647158761397.56,161393229146542.9,31894753.127818618,52017582.232542835,590065511.9484925,10825727904.126343
1.094972099973786,3026652094508320.5,3369395679589465.0,171499563007487.47,171230156366820.28,38456914.52544264,62719899.79587964,711468112.8330966,13053061903.359737
1.2168715419732616,3194280485782898.5,3556008406960659.0,180997911332055.16,180713583847805.62,45557943.46973322,74301063.7418595,842839979.7973219,15463298916.208801
1.3412089728127268,3356655442945999.5,3736773011564451.5,190198583668004.7,189899802955849.44,53201766.25882341,86767477.52672878,984253750.896445,18057771601.878296
1.4680331522689813,3514563097232681.5,3912564646126999.5,199146124667011.12,198833288367969.75,61394380.440855846,100128922.6366052,1135820383.1606479,20838515647.413925
1.597393815314361,3668637367796960.5,4084089015839290.0,207876454168722.2,207549903497768.1,70143506.7523315,114397990.92903352,1297682713.3100355,23808151627.654697
1.729341691620648,3819398334177400.0,4251925095925550.0,216419041504534.28,216079071383619.12,79458341.88343802,129589681.41462785,1470010883.81098,26969801088.195538
1.863928525453061,3967279045040767.5,4416554976070285.0,224798424564764.38,224445291369559.1,89349379.17895545,145721107.8357743,1652999025.7690427,30327025687.242958
2.001207095962122,4112644749830761.5,4578385269758185.0,233035299523938.25,232669227118740.38,99828276.60151222,162811283.32613307,1846862816.1949284,33883782379.384262
2.1412312378813647,4255807012558268.0,4737762826247630.0,241147320573917.8,240768505094003.84,110907758.51950154,180880960.45003137,2051837704.6187418,37644395014.43068
2.284055862638992,4397034277011169.0,4894986492080462.0,249149698574911.94,248758312253298.8,122601542.1300542,199952510.3470645,2268177377.8772717,41613509661.369675
2.4297369798917723,4536559914304415.0,5050316069968305.0,257055657065130.7,256651851366119.78,134924282.67210245,220049834.66390258,2496153007.1521525,45796105521.41728
2.578331719489608,4674588448092029.0,5203979248866021.0,264876784993745.8,264460693176693.25,147891532.53376696,241198298.0066908,2736052317.908729,50197461399.97472
2.7298983538794,4811300436627805.0,5356177038865257.0,272623313355483.34,272195052607990.94,161519711.4799932,263424679.59855807,2988179082.4382014,54823150508.62621
2.884496320956988,4946856349041590.0,5507088086402028.0,280304334832547.94,279864008058628.34,175826085.5405028,286757138.84770775,3252852729.2761583,59679033299.27123
3.0421862473761276,5081399677493712.0,5656872138817654.0,287927980139016.4,287475677470236.7,190828752.8686464,311225192.2844571,3530408081.5856905,64771252664.28195
3.2030299723236504,5215059461206913.0,5805672854202226.0,295501561040369.75,295037361122328.3,206546635.2795495,336859699.76071167,3821195200.609685,70106231064.3408
3.3670905717701234,5347952352452926.0,5953620101326225.0,303031687418748.2,302555658513654.7,222999474.48276523,363692858.30577105,4125579315.97352,75690669249.69928
3.5344323832055258,5480184321929942.0,6100831858130492.0,310524363904964.44,310036564842425.0,240207832.25051564,391758202.40075266,4443940828.797751,81531546317.26237
3.7051210308696363,5611852077418114.0,6247415791027552.0,317985070263960.44,317485551265483.4,258193093.93114033,421090609.70874196,4776675376.698553,87636120903.11081
3.879223451487029,5743044252377953.0,6393470578095732.0,325418828744499.9,324907632142197.75,276977474.84470516,451726311.50551987,5124193952.109282,94011933353.29457
4.0568079205167695,5873842408400346.0,6539087025047426.0,332830260881125.2,332307421747196.4,296584029.1950882,483702907.21442807,5486923067.15797,100666808748.77106
4.237944078927105,6004321885862182.0,6684349012214258.0,340223635694950.6,339689182395438.5,317036661.20806646,517059382.57166684,5865304959.72672,107608860685.89853
4.422702960505647,6134552529903413.0,6829334302736800.0,347602910829807.0,347056865513738.56,338360138.2636355,551836131.0440094,6259797836.405291,114846495733.81488
4.61115701971576,6264599313308314.0,6974115235984395.0,354971767846628.2,354414146879707.56,360580105.83706474,588074978.1964091,6670876148.906902,122388418505.74324
4.803380160110075,6394522873600252.0,7118759325475101.0,362333642656916.9,361764457007416.94,383723104.099959,625819208.7669297,7099030901.195146,130243637293.73526
4.9994477633122765,6524379978333352.0,7263329776862248.0,369691751887638.0,369111007470865.94,407816586.06208795,665113596.2545595,7544769985.115468,138421470226.3894
5.199436718578522,6654223929954217.0,7407885938648647.0,377049115821929.56,376456813808669.7,432888937.1586054,706004434.8643001,8008618542.767087,146931551917.16223
5.403425452950093,6784104919540856.0,7552483695989450.0,384408578443072.7,383804715536525.3,458969496.2066839,748539573.6856891,8491119354.20975,155783840577.49084
5.611493962009095,6914070337082936.0,7697175816115773.0,391772825015927.0,391157393701044.5,486088577.6715789,792768453.0068609,8992833249.39535,164988625574.3624
5.823723841249277,7044165044647796.0,7842012252441644.0,399144397565377.75,398517386333872.0,514277495.19530886,838742142.6878518,9514339543.458584,174556535416.44327
6.040198318074262,7174431617713405.0,7987040413233927.0,406525708551014.94,405887102104895.5,543568586.3521904,886513382.5347921,10056236494.704891,184498546156.63074
6.261002284435747,7304910559086030.0,8132305399762690.0,413919052988373.7,413268832424434.9,573995238.6046697,936136624.6316819,10619141784.804617,194825990202.00894
6.486222330124463,7435640489115006.0,8277850218065126.0,421326619227096.1,420664762204481.5,605591916.4407843,987668077.5992943,11203693020.847279,205550565524.8739
6.715946776726952,7566658315339308.0,8423715967812708.0,428750498563641.0,428076979456300.25,638394189.6811833,1041165752.7615654,11810548259.034018,216684345270.73798
6.950265712261491,7697999384223228.0,8569942011239666.0,436192693839099.06,435507483874741.75,672438762.9494854,1096689512.2092562,12440386549.891438,228239787761.18857
7.18927102650672,7829697617243525.0,8716566124651087.0,443655127150313.25,442958194537249.94,707763506.3046292,1154301118.7587214,13093908504.983511,240229746891.156
7.433056447036854,7961785633260749.0,8863624634663073.0,451139646783826.6,450430956826915.44,744407487.038268,1214064287.8108306,13771836885.176943,252667482921.6251
7.681717575977592,8094294858833475.0,9011152541020128.0,458648033466624.1,457927548673401.0,782411002.6441058,1276044741.1211364,14474917210.587948,265566673670.11826
7.935351927497144,8227255627901711.0,9159183627579040.0,466182006014509.94,465449686192443.4,821815614.9693953,1340310262.49814,15203918392.399849,278941426102.4448
8.194058966047088,8360697272072347.0,9307750562830646.0,473743226447964.56,472999028793673.1,862664185.5619773,1406930755.451302,15959633386.798428,292806288330.22876
8.45794014536803,8494648202574174.0,9456884991148404.0,481333304635966.6,480577183817145.3,905000912.2288634,1475978302.8150687,16742879871.321512,307176262019.6675
8.72709894827539,8629135984810064.0,9606617615796258.0,488953802520359.1,488185710751066.4,948871366.8249961,1547527228.3791282,17554500943.967194,322066815217.83716
9.0016409272409,8764187406315113.0,9756978274596280.0,496606237966564.3,495826125076462.56,994322534.2930081,1621654160.5590136,18395365845.44662,337493895603.6138
9.281673745785717,8899828538827310.0,9907996009042622.0,504292088280706.1,503499901778774.7,1041402852.9770348,1698438098.1445498,19266370705.006683,353473944171.0372
9.567307220701432,9036084795090172.0,1.0059699127551198e+16,512012793428222.44,511208478561414.25,1090162256.2355707,1777960478.166924,20168439310.285908,370023909353.59326
9.85865336511546,9172980980931262.0,1.0212115263451084e+16,519769758984795.94,518953258792063.7,1140652215.3802526,1860305245.928264,21102523901.700966,387161261598.5498
10.155826432417769,9310541343096298.0,1.0365271428251034e+16,527564358846786.5,526735614208844.7,1192925783.9692492,1945558927.2404242,22069605991.89306,404904008401.0649
10.458942961066125,9448789613261464.0,1.0519194060652188e+16,535397937725107.4,534556887410276.7,1247037643.4856045,2033810702.9226015,23070697210.797653,423270709808.39374
10.768121820287448,9587749048599114.0,1.0673909071724358e+16,543271813443796.06,542418394150249.9,1303044150.4326055,2125152485.6098945,24106840176.929184,442280494405.0436
11.083484256693197,9727442469228370.0,1.0829441886614788e+16,551187279062097.9,550321425456750.4,1361003384.879717,2219678998.927694,25179109395.502007,461953075790.3013
11.405153941827061,9867892292846498.0,1.0985817483119174e+16,559145604836767.2,558267249591106.5,1420975200.4942877,2317487859.0892243,26288612184.038574,482308769560.0334
11.733257020663602,1.0009120566803312e+16,1.1143060427406764e+16,567148040039524.4,566257113862568.6,1483021276.0956438,2418679658.9759855,27436489626.14357,503368510805.25494
12.067922161076874,1.0151148997854026e+16,1.130119490716141e+16,575195814642931.1,574292246311552.1,1547205168.7698178,2523358054.7634153,28623917554.148438,525153872140.3652
12.409280604298411,1.0293998979799936e+16,1.1460244762371978e+16,583290140886605.8,582373857273378.9,1613592368.584437,2631629855.156367,29852107561.362,547687082274.544
12.75746621638438,1.0437691619205032e+16,1.162023351398126e+16,591432214734397.8,590503140833177.0,1682250354.9449887,2743605113.301456,31122308044.685097,570991045140.2368
13.112615540712067,1.0582247759357312e+16,1.1781184390581664e+16,599623217232123.5,598681276181466.0,1753248654.6349473,2859397221.445721,32435805278.378864,595089359593.1843
13.474867851526309,1.072768800262633e+16,1.1943120353325894e+16,607864315774401.2,606909428879024.4,1826658901.5837882,2979123008.4132686,33793924519.799362,620006339698.9181
13.844365208556836,1.0874032731353698e+16,1.2106064119205298e+16,616156665288381.9,615188752038736.1,1902554898.4084,3102902839.974225,35198031147.939995,645767035621.1888
14.221252512727972,1.1021302127399386e+16,1.2270038182832486e+16,624501409341301.0,623520387431422.5,1981012679.7747593,3230860722.182371,36649531835.6506,672397255128.1863
14.605677562982532,1.1169516190455278e+16,1.243506483685185e+16,632899681178180.6,631905466521903.8,2062110577.6282961,3363124407.760464,38149875756.42764,699923585733.0627
14.997791114242183,1.1318694755226488e+16,1.2601166191091006e+16,641352604695375.2,640345111441018.5,2145929288.342796,3499825505.6145782,39700555826.69773,728373417485.5815
15.397746936527026,1.1468857507571056e+16,1.2768364190552796e+16,649861295355100.5,648840435898713.2,2232551941.8391805,3641099593.5610585,41303109984.54522,757774966432.39
15.805701875257567,1.162002399968067e+16,1.2936680632340946e+16,658426861045617.6,657392546042881.5,2322064172.726918,3787086334.352361,42959122505.85896,788157298763.7716
16.221815912762718,1.177221366437734e+16,1.3106137181601676e+16,667050402891331.9,666002541268186.4,2414554193.52244,3937929595.090164,44670225358.90385,819550355665.3486
16.64625223101797,1.1925445828592864e+16,1.327675538655701e+16,675733016016575.8,674671514978639.6,2510112870.000205,4093777570.116841,46438099598.34781,851984978893.6088
17.079177275638333,1.2079739726093114e+16,1.3448556692697824e+16,684475790266609.5,683400555307474.6,2608833798.7337427,4254782907.478429,48264476799.80364,885492937094.6951
17.5207608211511,1.2235114509501828e+16,1.3621562456197774e+16,693279810888926.1,692190745797381.0,2710813386.8852434,4421102839.054909,50151140535.969215,920106952886.3591
17.97117603757412,1.2391589261673998e+16,1.3795793956604514e+16,702146159177701.6,701043166043944.8,2816150934.3038025,4592899314.455735,52099927895.4793,955860730723.4442
18.430599558325603,1.2549183006463632e+16,1.3971272408856864e+16,711075913083939.6,709958892304817.4,2924948717.993837,4770339138.780779,54112731045.60437,992788985567.7535
18.899211549492115,1.2707914718925204e+16,1.4148018974672956e+16,720070147793501.0,718938998076867.1,3037312079.016183,4953594114.348983,56191498839.956474,1030927472383.5824
19.37719578048196,1.2867803334984204e+16,1.4326054773348234e+16,729129936275079.6,727984554643270.8,3153349511.8861494,5142841186.499199,58338238472.38756,1070313016480.6091
19.864739696091597,1.3028867760607094e+16,1.450540089199642e+16,738256349799791.9,737096631592291.9,3273172756.5332365,5338262593.568933,60555017178.279015,1110983544726.1958
20.36203449001343,1.3191126880495554e+16,1.4686078395263132e+16,747450458433837.4,746276297309168.8,3396896892.8887234,5540046021.158992,62843963984.44792,1152978117649.4685
20.869275179813698,1.3354599566327404e+16,1.486810833453434e+16,756713331505428.0,755524619442316.4,3524640438.1677375,5748384760.792511,65207271508.899925,1196336962459.8657
21.38666068340997,1.3519304684558448e+16,1.5051511756658196e+16,766046038046888.5,764842665344720.8,3656525446.912985,5963477873.0781765,67647197811.67448,1241101507002.8433
21.91439389707817,1.3685261103797326e+16,1.5236309712191954e+16,775449647212524.6,774231502491162.9,3792677613.867734,6185530355.487511,70166068298.02826,1287314414675.7031
22.452681775019734,1.3852487701758126e+16,1.5422523263179948e+16,784925228672590.2,783692198871548.8,3933226379.745057,6414753314.856026,72766277675.20284,1335019620326.323
23.00173541052013,1.402100337179053e+16,1.561017349046248e+16,794473852983294.9,793225823360356.2,4078305039.960302,6651364144.716814,75450291964.00809,1384262367157.3718
23.561770118730532,1.4190827028980664e+16,1.5799281500507736e+16,804096591932507.2,802833446061782.6,4228050856.392136,6895586707.573882,78220650566.43623,1435089244658.313
24.133005521105144,1.4361977615809272e+16,1.5989868431752156e+16,813794518860354.0,812516138629847.4,4382605172.236306,7147651522.219042,81079968390.4887,1487548227586.832
24.715665631527248,1.4534474107346604e+16,1.6181955460426032e+16,823568708953587.1,822274974562286.1,4542113530.013502,7407795956.193306,84030938033.35426,1541688716020.566
25.309978944157795,1.4708335515955306e+16,1.637556380583273e+16,833420239512063.6,832111029466620.1,4706725792.789841,7676264423.487454,87076332024.01793,1597561576498.953
25.91617852304095,1.4883580895464694e+16,1.6570714735040536e+16,843350190185266.1,842025381296305.4,4876596268.664332,7953308587.571138,90219005126.31088,1655219184273.6724
26.53450209350177,1.5060229344770626e+16,1.6767429566936134e+16,853359643176292.8,852019110554395.5,5051883838.572848,8239187569.830469,93461896703.31017,1714715466684.338
27.165192135371807,1.5238300010805602e+16,1.696572967557836e+16,863449683410135.6,862093300461564.4,5232752087.451538,8534168163.485201,96808033143.89217,1776105947674.2039
27.808495978079243,1.5417812090813944e+16,1.7165636492779688e+16,873621398662625.4,872249037084835.2,5419369438.796183,8838525053.04379,100260530352.10202,1839447793458.022
28.464665897640828,1.5598784833856812e+16,1.7367171509831234e+16,883875879645691.1,882487409422725.2,5611909292.644226,9152541039.341122,103822596299.84909,1904799859351.3105
29.133959215593645,1.5781237541460836e+16,1.7570356278275722e+16,894214220044105.1,892809509441912.5,5810550166.997366,9476507270.187073,107497533643.24454,1972222737766.9111
29.816638399905518,1.5965189567312384e+16,1.7775212409619624e+16,904637516498186.1,903216432059975.2,6015475842.689862,9810723476.635204,111288742402.68474,2041778807380.6863
30.51297116790363,1.6150660315890682e+16,1.7981761573864958e+16,915146868526327.6,913709275068051.6,6226875511.695685,10155498214.859436,115199722706.55217,2113532283463.9495
31.223230591261704,1.6337669239919864e+16,1.8190025496727216e+16,925743378380629.2,924289138986672.5,6444943928.851713,10511149113.602528,119234077598.1093,2187549269374.9038
31.947695203086937,1.6526235836510278e+16,1.8400025955395776e+16,936428150828247.8,934957126847481.2,6669881566.958574,10878003127.132902,123395515904.87694,2263897809195.972
32.686649107148675,1.6716379641848976e+16,1.8611784772680628e+16,947202292850551.1,945714343892844.0,6901894775.201685,11256396793.616476,127687855169.43411,2342647941497.619
33.44038208929165,1.6908120224290516e+16,1.882532380937837e+16,958066913251610.9,956561897184965.2,7141195940.815167,11646676498.777756,132115024640.20862,2423871754202.3306
34.20918973107749,1.7101477175688466e+16,1.90406649546822e+16,969023122167028.4,967500895115480.5,7388003653.889488,12049198744.687662,136681068320.42233,2507643440515.067
34.993373525699035,1.7296470100802878e+16,1.9257830114450056e+16,980072030463722.4,978532446806192.1,7642542875.199774,12464330423.477858,141390148072.91705,2594039355878.473
35.793240996213015,1.749311860461043e+16,1.947684119713936e+16,991214749020881.0,989657661391139.6,7905045106.90601,12892449095.739447,146246546778.10925,2683138075902.356
36.60910581613728,1.7691442277340866e+16,1.9697720097211612e+16,1002452387882082.9,1000877647170068.8,8175748565.949995,13333943273.319311,151254671541.82742,2775020455207.8867
37.44128793246003,1.7891460677059082e+16,1.992048867580557e+16,1013786055268349.9,1012193510623016.1,8454898359.9445095,13789212706.181343,156419056949.2575,2869769687117.166
38.29011369110923,1.8093193309611964e+16,2.0145168738477476e+16,1025216856441864.0,1023606355275826.9,8742746665.320091,14258668672.949762,161744368360.64563,2967471364108.5767
39.15591596493141,1.829665960576016e+16,2.0371782009808076e+16,1036745892410170.4,1035117280406388.6,9039552907.464188,14742734274.70161,167235405243.86243,3068213538947.7754
40.03903428423004,1.8501878895316896e+16,2.0600350104678936e+16,1048374258460830.0,1046727379581577.1,9345583942.553915,15241844731.521835,172897104538.2914,3172086786393.042
40.93981496991464,1.8708870378124732e+16,2.083089449602821e+16,1060103042516852.5,1058437739015281.8,9661114240.751038,15756447681.279758,178734544043.9184,3279184265362.4297
41.85861126931294,1.891765309170579e+16,2.1063436478904456e+16,1071933323303659.6,1070249435738244.6,9986426070.393703,16287003480.031246,184752945828.85324,3389601781438.7583
42.7957834946992,1.9128245875435136e+16,2.1297997130649776e+16,1083866168319042.5,1082163535571207.9,10321809682.784252,16833985503.393559,190957679647.88528,3503437849576.4062
43.751699164593184,1.9340667331098496e+16,2.153459726705742e+16,1095902631598230.9,1094181090893498.6,10667563497.139233,17397880448.18413,197354266364.02405,3620793756862.6963
44.72673314788505,1.955493577971251e+16,2.1773257394369284e+16,1108043751267196.2,1106303138200164.1,11023994285.231556,17979188633.55798,203948381364.35367,3741773625174.338
