t(s),Total solute volume 1,Total retention volume 1,Total 1 volume 1,Total 2 volume 1,Total 3 volume 1,Total 4 volume 1,Total 5 volume 1,Total 6 volume 1
0.1,1373795654025336.8,3540173632894849.0,759959875137435.1,1406418103732074.5,0.0,0.0,0.0,-1.66771727949885e-108
0.202,2057435895806185.2,5306413516694437.0,1138137856068329.2,2106293137635143.0,711515269.8486855,2997144265.722855,136534573751.57497,4406383951488.37
0.30604000000000003,2579997812566541.0,6660261483746927.0,1427210055938819.2,2641264270401078.5,1802298321.7374816,7592166466.746373,346649479993.6406,11433300895705.717
0.41216080000000005,3021737595401784.0,7807942688184502.0,1671572847877043.5,3093493956091649.5,3198072329.6150618,13472048410.806103,615689793429.3698,20505928899851.96
0.5204040160000001,3413526600270147.0,8828761553124588.0,1888303734101092.5,3494586681324804.0,4865421030.145639,20496003193.78648,937162950693.0801,31382013053624.246
0.6308120963200001,3770839998832934.5,9762466189979196.0,2085963312107504.0,3860385111667478.5,6786192266.308405,28587556542.868538,1307552022765.7156,43934841599700.31
0.7434283382464002,4102694259915566.5,1.0632216503384006e+16,2269539336415773.0,4200119830744440.0,8949802180.949583,37702119733.23606,1724808310523.8694,58091616075771.06
0.8582969050113283,4414872337922918.0,1.145287116641074e+16,2442230837262209.0,4519711120530997.0,11350063572.447277,47813626823.801445,2187734494297.6492,73809972509924.05
0.9754628431115548,4711339083441236.0,1.223462360916618e+16,2606231101309036.0,4823217984474439.0,13983620236.045996,58907938486.84286,2695680943760.9556,91066867438960.78
1.094972099973786,4994949558021127.0,1.2984821087337852e+16,2763119499137454.0,5113563282827446.0,16849078388.91053,70979182748.0542,3248377469563.8457,109852541621116.61
1.2168715419732616,5267838557651308.0,1.3708964762000818e+16,2914076962894142.0,5392932506185777.0,19946483718.696976,84027551846.85764,3845832106248.1313,130166929127775.55
1.3412089728127268,5531650635673556.0,1.4411300106840634e+16,3060013230986079.0,5663009260764118.0,23276986908.53844,98057893139.49277,4488266409154.769,152017378127680.66
1.4680331522689813,5787683728534592.0,1.509518545846729e+16,3201646299359498.0,5925122304823357.0,26842619591.88409,113078765233.19754,5176072129941.319,175417132235075.5
1.597393815314361,6036982955525354.0,1.5763332650239934e+16,3339554309890985.5,6180341575864223.0,30646138752.06185,129101782469.71255,5909781136007.393,200384279902146.72
1.729341691620648,6280404185660090.0,1.6417970048940664e+16,3474210714483812.5,6429543267021346.0,34690915512.436226,146141146419.95135,6690043916251.459,226941005797243.22
1.863928525453061,6518658472053182.0,1.70609564968034e+16,3606008855395295.5,6673455316616624.0,38980853814.72976,164213303292.64923,7517613866380.074,255113044714800.97
2.001207095962122,6752343941876958.0,1.7693863071880118e+16,3735279606208908.0,6912690055402535.0,43520329864.83428,183336688832.78888,8393335589199.482,284929275783802.94
2.1412312378813647,6981969208735774.0,1.8318033105116824e+16,3862304323153890.0,7147768174905483.0,48314146402.531105,203531535670.37485,9318136060313.686,316421416579291.25
2.284055862638992,7207970903990993.0,1.893462711738374e+16,3987324543130389.5,7379136675063676.0,53367497802.57764,224819726299.6312,10293017887189.0,349623790087402.1
2.4297369798917723,7430727034018791.0,1.954465705608067e+16,4110549372713003.0,7607182538676934.0,58685943253.94196,247224680089.79556,11319054129294.623,384573145919279.56
2.578331719489608,7650567314691796.0,2.014901278462946e+16,4232161205006865.0,7832243311299009.0,64275386074.62458,270771266143.8599,12397384303816.027,421308522675754.06
2.7298983538794,7867781277350328.0,2.074848286193131e+16,4352320203730471.0,8054615399699480.0,70142057763.5535,295485736113.58777,13529211306640.902,459871142050530.2
2.884496320956988,8082624705365149.0,2.134377104546325e+16,4471167863810610.0,8274560661274068.0,76292505764.53412,321395672652.6224,14715799050529.842,500304327784471.7
3.0421862473761276,8295324802020123.0,2.193550954538967e+16,4588829870165455.0,8492311694647807.0,82733584178.87772,348529950291.7302,15958470672961.38,542653444348886.5
3.2030299723236504,8506084381638672.0,2.252426977797706e+16,4705418416163104.0,8708076130327090.0,89472446849.94598,376918706306.40967,17258607202213.256,586965851492822.0
3.3670905717701234,8715085299771201.0,2.3110571171413988e+16,4821034101141767.0,8922040142343025.0,96516542378.15137,406593319717.0936,18617646596390.793,633290871699512.2
3.5344323832055258,8922491284149060.0,2.369488843838758e+16,4935767496444430.0,9134371346431174.0,103873610724.49939,437586396981.5259,20037083089350.504,681679768265870.8
3.7051210308696363,9128450289060362.0,2.4277657629648864e+16,5049700447818778.0,9345221210316386.0,111551681134.98357,469931763251.6235,21518466791811.406,732185732217134.1
3.879223451487029,9333096467236576.0,2.4859281209572828e+16,5162907166230606.0,9554727072425068.0,119559071174.18529,503664458303.17706,23063403506773.13,784863876644355.0
4.0568079205167695,9536551832175954.0,2.5440132340480716e+16,5275455147432420.0,9763013843683468.0,127904386699.19885,538820736426.95624,24673554726624.85,839771237339078.1
4.237944078927105,9738927667972676.0,2.6020558521852988e+16,5387405951856339.0,9970195450825608.0,136596522638.0006,575438069708.786,26350637785702.93,896966778820299.1
4.422702960505647,9940325731708290.0,2.6600884699788844e+16,5498815869756372.0,1.0176376067337776e+16,145644664462.06845,613555154234.3668,28096426147019.3,956511405020699.5
4.61115701971576,1.0140839284274642e+16,2.718141593852504e+16,5609736491441645.0,1.0381651168759866e+16,155058290263.23886,653211918839.6528,29912749805779.227,1018467974034019.1
4.803380160110075,1.03405539784025e+16,2.7762439727660028e+16,5720215198518467.0,1.0586108441801964e+16,164847173360.7744,694449536094.9076,31801495795396.89,1082901316432242.8
4.9994477633122765,1.0539548627146296e+16,2.834422798457855e+16,5830295589002883.0,1.0789828571078092e+16,175021385377.35855,737310435264.3126,33764608784177.934,1149878256746450.5
5.199436718578522,1.0737895871738878e+16,2.8927038800468404e+16,5940017846766135.0,1.0992885922820294e+16,185591299732.99832,781838317026.133,35804091752820.31,1219467637773511.0
5.403425452950093,1.093566276429931e+16,2.951111796953785e+16,6049419063878749.0,1.1195349141423768e+16,196567595514.07687,828078169773.3877,37922006744482.695,1291740347426236.0
5.611493962009095,1.1132911278144976e+16,3.0096700334047384e+16,6158533522906141.0,1.1397281671877312e+16,207961261681.57465,876076287343.3824,40120475680474.805,1366769347889451.5
5.823723841249277,1.1329698756267536e+16,3.0684010972161256e+16,6267392944997891.0,1.159874221888915e+16,219783601587.9619,925880288047.6765,42401681235687.266,1444629706881342.5
6.040198318074262,1.1526078306764864e+16,3.127326625109863e+16,6376026708633739.0,1.1799785151708932e+16,232046237776.82773,977539134893.1985,44767867768756.73,1525398630849646.2
6.261002284435747,1.1722099152584772e+16,3.1864674764391336e+16,6484462043095765.0,1.200046086217688e+16,244761117043.0477,1031103156901.0167,47221342302686.04,1609155499957293.8
6.486222330124463,1.1917806941765526e+16,3.2458438169057268e+16,6592724200088132.0,1.2200816082331414e+16,257940515734.40945,1086624071442.377,49764475552239.555,1695981904732786.5
6.715946776726952,1.2113244023396366e+16,3.3054751936038652e+16,6700836606393604.0,1.2400894166922914e+16,271597045278.2131,1144155007522.5764,52399702994935.516,1785961684278002.2
6.950265712261491,1.2308449693728056e+16,3.3653806025225284e+16,6808821000017597.0,1.2600735345368414e+16,285743657918.5285,1203750529952.3423,55129525982877.67,1879180965940487.2
7.18927102650672,1.2503460416206066e+16,3.4255785494702504e+16,6916697551906804.0,1.2800376947010078e+16,300393652651.61334,1265466664354.127,57956512893017.9,1975728206369505.0
7.433056447036854,1.2698310018652692e+16,3.4860871052462536e+16,7024484975026881.0,1.2999853602979592e+16,315560681348.55206,1329360922957.1226,60883300313740.55,2075694233885311.2
7.681717575977592,1.2893029870365692e+16,3.5469239557650308e+16,7132200622330347.0,1.319919742750234e+16,331258755055.42804,1395492331140.348,63912594265908.61,2179172292099801.8
7.935351927497144,1.308764904151785e+16,3.608106447742957e+16,7239860574933661.0,1.3398438181082314e+16,347502250462.4937,1463921454687.7048,67047171456723.03,2286258084733915.5
8.194058966047088,1.3282194446917916e+16,3.669651630473061e+16,7347479721643291.0,1.3597603417676644e+16,364305916534.698,1534710427722.8823,70289880564929.47,2397049821583527.5
8.45794014536803,1.3476690975919032e+16,3.731576294143628e+16,7455071830818754.0,1.3796718617689158e+16,381684881296.7283,1607922981295.3289,73643643556055.84,2511648265590677.0
8.72709894827539,1.3671161610028746e+16,3.7938970050973944e+16,7562649615432541.0,1.399580730837317e+16,399654658766.42566,1683624472591.3186,77111457026498.44,2630156780981612.0
9.0016409272409,1.3865627529576356e+16,3.856630138376776e+16,7670224792076513.0,1.4194891173031754e+16,418231156030.9741,1761881914746.6282,80696393575383.9,2752681382436940.0
9.281673745785717,1.4060108210623784e+16,3.9197919078578584e+16,7777808134571414.0,1.4393990150230024e+16,437430680460.7956,1842764007239.4014,84401603203229.8,2879330785262366.5
9.567307220701432,1.4254621513161054e+16,3.983398394238297e+16,7885409522755035.0,1.4593122524084944e+16,457269947056.46985,1926341166843.5334,88230314736510.17,3010216456531487.5
9.85865336511546,1.444918376150274e+16,4.047465571112643e+16,7993037986956159.0,1.4792305006570888e+16,477766085924.3944,2012685559124.5164,92185837277300.39,3145452667174317.5
10.155826432417769,1.4643809817693668e+16,4.112009329340853e+16,8100701748601264.0,1.4991552812668492e+16,498936649877.19995,2101871130460.9312,96271561677238.47,3285156544987485.5
10.458942961066125,1.4838513148638848e+16,4.17704549989188e+16,8208408257349755.0,1.5190879729088776e+16,520799622155.2029,2193973640575.9856,100490962035088.86,3429448128543628.0
10.768121820287448,1.5033305887592488e+16,4.242589875323941e+16,8316164225108481.0,1.5390298177222136e+16,543373424265.4274,2289070695564.407,104847597217245.55,3578450421979199.0
11.083484256693197,1.5228198890569594e+16,4.308658230044419e+16,8423975657237783.0,1.5589819270889796e+16,566676923934.9055,2387241781400.932,109345112400545.19,3732289450641149.5
11.405153941827061,1.542320178818321e+16,4.375266339477369e+16,8531847881226808.0,1.5789452869411722e+16,590729443175.1885,2488568297917.3975,113987240636796.5,3891094317574063.5
11.733257020663602,1.5618323033356446e+16,4.4424299982524056e+16,8639785573087156.0,1.5989207626451918e+16,615550766455.1049,2593133593235.959,118777804438468.02,4054997260830410.0
12.067922161076874,1.581356994531152e+16,4.510165037516992e+16,8747792781686688.0,1.618909103505181e+16,641161148978.9874,2701022998646.7686,123720717384991.17,4224133711587334.5
12.409280604298411,1.6008948750196888e+16,4.5784873414635576e+16,8855872951223851.0,1.638910946922231e+16,667581325067.6915,2812323863918.788,128819985749176.03,4398642353054323.5
12.75746621638438,1.6204464618677412e+16,4.6474128631535336e+16,8964028942021884.0,1.658926822242656e+16,694832516639.8319,2927125593033.0405,134079710143240.89,4578665180156601.0
13.112615540712067,1.6400121700780332e+16,4.7169576397124584e+16,9072263049804958.0,1.678957154325338e+16,722936441790.8317,3045519680327.8286,139504087183993.17,4764347559979768.0
13.474867851526309,1.6595923158261902e+16,4.787137806962665e+16,9180577023602922.0,1.699002266855251e+16,751915323467.3547,3167599747046.193,145097411176704.5,4955838292962066.0
13.844365208556836,1.6791871194734032e+16,4.857969613554157e+16,9288972082416790.0,1.7190623854276558e+16,781791898234.9365,3293461578275.9487,150864075817252.84,5153289674820463.0
14.221252512727972,1.698796708376877e+16,4.929469434648306e+16,9397448930765612.0,1.739137640425308e+16,812589425136.6055,3423203160273.201,156808575912109.9,5356857559198064.0
14.605677562982532,1.7184211195178248e+16,5.001653785203971e+16,9506007773224184.0,1.7592280697088334e+16,844331694640.3998,3556924718160.636,162935509115780.06,5566701421020362.0
14.997791114242183,1.7380603019650008e+16,5.074539332911393e+16,9614648328050798.0,1.7793336211387846e+16,877043037673.8486,3694728753992.161,169249577685303.44,5782984420548345.0
15.397746936527026,1.7577141191902766e+16,5.14814291081495e+16,9723369839996580.0,1.7994541549461702e+16,910748334743.4596,3836720085175.895,175755590251466.12,6005873468117080.0
15.805701875257567,1.777382351251236e+16,5.222481529662473e+16,9832171092379426.0,1.819589445966927e+16,945473025137.4502,3983005883248.0146,182458463606364.88,6235539289548886.0
16.221815912762718,1.7970646968546604e+16,5.2975723900155544e+16,9941050418498570.0,1.839739185754355e+16,981243116210.0231,4133695712990.2275,189363224507002.94,6472156492230544.0
16.64625223101797,1.816760775313473e+16,5.3734328941524856e+16,1.0050005712460246e+16,1.859902984582576e+16,1018085192745.5703,4288901571884.2,196475011494611.56,6715903631844828.0
17.079177275638333,1.836470128408872e+16,5.450080657792833e+16,1.015903443947859e+16,1.880080373352841e+16,1056026426401.3646,4448737929896.702,203799076729406.6,6966963279746861.0
17.5207608211511,1.8561922221682756e+16,5.527533521670315e+16,1.0268133645711028e+16,1.9002708054137364e+16,1095094585227.3414,4613321769589.796,211340787840523.22,7225522090976665.0
17.97117603757412,1.875926448569098e+16,5.605809562978848e+16,1.0377299967683122e+16,1.9204736583053784e+16,1135318043261.7732,4782772626550.835,219105629790885.28,7491770872899906.0
18.430599558325603,1.8956721271773424e+16,5.684927106714285e+16,1.048652964135314e+16,1.94068823543697e+16,1176725790201.7292,4957212630137.72,227099206756807.97,7765904654469426.0
18.899211549492115,1.9154285067296388e+16,5.764904736933214e+16,1.059581851086349e+16,1.9609137677063452e+16,1219347441147.4084,5136766544535.522,235327244022134.53,8048122756100973.0
19.37719578048196,1.935194766666393e+16,5.845761307948218e+16,1.0705162037021862e+16,1.9811494150695588e+16,1263213246419.525,5321561810121.072,243795589886769.44,8338628860157491.0
19.864739696091597,1.954970018623427e+16,5.927515955477985e+16,1.0814555305552818e+16,2.001394268067946e+16,1308354101449.2,5511728585133.095,252510217589479.8,8637631082037122.0
20.36203449001343,1.974753307888814e+16,6.0101881077690296e+16,1.0923993035156546e+16,2.021647349319533e+16,1354801556739.8792,5707399787646.179,261477227244883.28,8945342041860977.0
20.869275179813698,1.9945436148311176e+16,6.093797496705148e+16,1.1033469585409872e+16,2.0419076149812224e+16,1402587827901.1292,5908711137847.369,270702847794574.5,9261978936757902.0
21.38666068340997,2.0143398563049656e+16,6.178364168919176e+16,1.1142978964541494e+16,2.0621739561877084e+16,1451745805754.2334,6115801200615.776,280193438972387.75,9587763613744768.0
21.91439389707817,2.0341408870392428e+16,6.2639084969210424e+16,1.125251483711123e+16,2.0824452004726508e+16,1502309066509.8765,6328811428405.853,289955493283821.0,9922922643201492.0
22.452681775019734,2.053945501012999e+16,6.350451190255215e+16,1.1362070531621388e+16,2.102720113177266e+16,1554311882018.304,6547886204436.341,299995637999723.2,1.0267687392941972e+16
23.00173541052013,2.073752432823745e+16,6.4380133066997704e+16,1.1471639048085794e+16,2.122997398851076e+16,1607789230092.7905,6773172886188.053,310320637164355.06,1.0622294102883022e+16
23.561770118730532,2.0935603590524212e+16,6.526616263518572e+16,1.1581213065580776e+16,2.143275702649354e+16,1662776804907.298,7004821849214.505,320937393618025.94,1.0986983960315072e+16
24.133005521105144,2.11336789962913e+16,6.616281848777659e+16,1.1690784949799914e+16,2.163553611731204e+16,1719311027469.6494,7242986531270.981,331852951034532.5,1.136200317578008e+16
24.715665631527248,2.133173619203313e+16,6.707032232736082e+16,1.1800346760633902e+16,2.1838296566623436e+16,1777429056171.8606,7487823476768.577,343074495973702.06,1.1747603059563694e+16
25.309978944157795,2.1529760285218544e+16,6.798889979320982e+16,1.1909890259793632e+16,2.2041023128259012e+16,1837168797419.4365,7739492381561.313,354609359949395.2,1.2144040098810278e+16
25.91617852304095,2.1727735858182776e+16,6.8918780576963736e+16,1.2019406918495246e+16,2.2243700018445916e+16,1898568916341.965,7998156138075.94,366465021513394.75,1.2551576035271968e+16
26.53450209350177,2.1925646982159836e+16,6.986019853934353e+16,1.2128887925222572e+16,2.2446310930173076e+16,1961668847587.5618,8263980880794.971,378649108355662.7,1.297047794370395e+16
27.165192135371807,2.212347723148204e+16,7.0813391827972616e+16,1.2238324193581908e+16,2.2648839047727468e+16,2026508806204.152,8537136032106.088,391169399421538.44,1.3401018310921354e+16
27.808495978079243,2.2321209697971384e+16,7.1778602996390104e+16,1.2347706370263314e+16,2.2851267061427524e+16,2093129798610.9565,8817794348531.39,404033827046492.56,1.3843475115534306e+16
28.464665897640828,2.251882700554494e+16,7.27560791243313e+16,1.245702484311989e+16,2.3053577182575464e+16,2161573633663.8916,9106131967352.734,417250479109168.75,1.4298131908380944e+16
29.133959215593645,2.271631132505496e+16,7.374607193935176e+16,1.2566269749377002e+16,2.325575115864919e+16,2231882933819.128,9402328453650.822,430827601203487.8,1.476527789367978e+16
29.816638399905518,2.291364438938018e+16,7.474883793986446e+16,1.267543098398081e+16,2.3457770288752732e+16,2304101146399.3735,9706566847776.898,444773598830696.5,1.524520801092601e+16
30.51297116790363,2.3110807508786452e+16,7.576463851966163e+16,1.2784498208095138e+16,2.365961543934096e+16,2378272554967.912,10019033713279.207,459097039612309.5,1.573822301755862e+16
31.223230591261704,2.3307781586568304e+16,7.679374009398446e+16,1.2893460857754492e+16,2.38612670602331e+16,2454442290815.9824,10339919185306.475,473806655525013.5,1.6244629572427538e+16
31.947695203086937,2.3504547134985536e+16,7.78364142272092e+16,1.300230815267952e+16,2.4062705200927108e+16,2532656344569.422,10669417019514.584,488911345158642.06,1.6764740320094188e+16
32.686649107148675,2.370108429150255e+16,7.889293776220622e+16,1.3111029105260718e+16,2.4263909527225388e+16,2612961577921.121,11007724641502.93,504420175998470.25,1.7298873975999612e+16
33.44038208929165,2.389737283534076e+16,7.996359295143995e+16,1.32196125297145e+16,2.4464859338179628e+16,2695405735496.1523,11355043196810.668,520342386733165.4,1.7847355412539598e+16
34.20918973107749,2.409339220434823e+16,8.104866758986072e+16,1.3328047051415614e+16,2.46655335833612e+16,2780037456857.211,11711577601503.47,536687389589790.9,1.8410515746087536e+16
34.993373525699035,2.428912151219217e+16,8.214845514965133e+16,1.3436321116407514e+16,2.4865910880462236e+16,2866906288658.292,12077536593385.406,553464772697416.9,1.8988692425009972e+16
35.793240996213015,2.44845395658764e+16,8.326325491688165e+16,1.3544423001092624e+16,2.5065969533228404e+16,2956062696955.1064,12453132783871.414,570684302480946.8,1.9582229318722416e+16
36.60910581613728,2.4679624883583932e+16,8.439337213012664e+16,1.3652340822102856e+16,2.5265687549725812e+16,3047558079681.39,12838582710558.576,588355926086899.0,2.019147680783677e+16
37.44128793246003,2.4874355712844612e+16,8.553911812110125e+16,1.3760062546349264e+16,2.5465042660939572e+16,3141444779300.7275,13234106890537.186,606489773842975.4,2.081679187545498e+16
38.29011369110923,2.5068710049023584e+16,8.670081045736458e+16,1.386757600124974e+16,2.5664012339701708e+16,3237776095643.9453,13639929874483.908,625096161753353.8,2.1458538199665936e+16
39.15591596493141,2.52626656541271e+16,8.78787730871434e+16,1.397486888513214e+16,2.5862573819943164e+16,3336606298942.9414,14056280301582.307,644185594031755.0,2.2117086247308656e+16
40.03903428423004,2.545620007591897e+16,8.907333648632982e+16,1.408192877780892e+16,2.60607041162642e+16,3437990643072.1133,14483390955318.74,663768765674431.6,2.2792813369064944e+16
