t(s),Total solute volume 1,Total retention volume 1,Total 1 volume 1,Total 2 volume 1,Total 3 volume 1,Total 4 volume 1,Total 5 volume 1,Total 6 volume 1
0.1,988500314890707.8,1201179625827040.0,98333854761724.14,114345456174609.27,0.0,0.0,0.0,0.0
0.202,1489073359858504.8,1809454358279075.8,148129769635747.0,172249590559444.53,2029926.6871871224,4185563.387345414,67489324.786634,1564520564.7802904
0.30604000000000003,1870378628301002.5,2272801312439157.0,186061186030181.16,216357341384031.9,5150353.752518326,10619663.207978353,171235805.8474015,3969718117.055245
0.41216080000000005,2192918467776838.2,2664739957588804.0,218146745710629.84,253667360451234.28,9148472.021170799,18863500.787053753,304163583.02615166,7051474550.871844
0.5204040160000001,2479363097185144.5,3012818013673292.0,246641632621439.94,286802041096609.1,13929844.281138096,28722353.09043417,463132778.4599897,10736985122.263569
0.6308120963200001,2741008782902351.5,3330762137584054.0,272669574705518.38,317068086766260.06,19443833.751975622,40091810.592079945,646459816.799531,14987214459.196688
0.7434283382464002,2984421322331543.5,3626550757738849.0,296883723167942.3,345225000622688.3,25661509.217319045,52912219.13838177,853182792.9094391,19779860150.964153
0.8582969050113283,3213806953338119.5,3905295085688633.0,319702505377035.25,371759342142941.0,32566567.3674965,67149962.44103271,1082759654.318428,25102354347.038826
0.9754628431115548,3432048083035593.0,4170497681980245.5,341412656905286.56,397004535764747.7,40150860.465466835,82788240.43352509,1334919504.3461087,30948416011.834736
1.094972099973786,3641220258320249.0,4424680652718375.5,362220648630656.25,421200671811533.7,48411919.78749644,99821962.77788661,1609580261.366545,37316141786.714134
1.2168715419732616,3842875980142982.0,4669730526273494.0,382280919961316.7,444527336904921.25,57351467.65350136,118254680.77489842,1906799186.8452115,44206858958.51277
1.3412089728127268,4038212097319055.5,4907101661691619.0,401712530806747.6,467122977359618.5,66974468.24549495,138096630.217972,2226741327.0286007,51624393771.79138
1.4680331522689813,4228174228830443.0,5137943137309950.0,420609549280604.6,489096978305515.0,77288494.0155286,159363424.97059232,2569658447.348062,59574583020.65923
1.597393815314361,4413524909408309.0,5363181557747382.0,439047830674628.2,510537546475116.3,88303287.69727147,182075153.8648296,2935874470.241281,68064936424.65642
1.729341691620648,4594889742592169.0,5583577136705207.0,457089608664298.3,531517048990596.7,100030451.22099224,206255739.26580372,3325775132.2458973,77104396829.29723
1.863928525453061,4772789646014249.0,5799762879755506.0,474786702999387.06,552095743359379.1,112483220.13607469,231932471.9467126,3739800484.037229,86703166320.48792
2.001207095962122,4947663983425083.0,6012272693169229.0,492182820627409.1,572324453287210.2,125676297.52241029,259135668.62576354,4178439368.3437805,96872578195.99695
2.1412312378813647,5119887541161609.0,6221562012831293.0,509315244475635.8,592246532442845.0,139625730.4463757,287898417.22706413,4642225312.378242,107625001732.32585
2.284055862638992,5289783236375723.0,6428023246614498.0,526216097637953.5,611899334491178.6,154348817.58780614,318256386.4139269,5131733456.636516,118973770979.59554
2.4297369798917723,5457631797146009.0,6631997537145670.0,542913306331262.06,631315332846869.1,169864040.20201445,350247683.2373927,5647578259.535756,130933131544.08734
2.578331719489608,5623679250518409.0,6833783860883111.0,559431344789430.4,650522986858621.6,186191010.89439884,383912747.5130877,6190411794.282286,143518201101.4659
2.7298983538794,5788142795029327.0,7033646164103553.0,575791819449079.1,669547421117354.5,203350436.2376138,419294274.7404484,6760922505.973799,156744940580.39136
2.884496320956988,5951215463414746.0,7231819028788136.0,592013932785716.6,688410964818316.6,221364090.32692742,456437161.5757458,7359834332.372305,170630133777.70108
3.0421862473761276,6113069866192565.0,7428512221635396.0,608114855717148.4,707133584802551.8,240254797.11593425,495388469.40957433,7987906116.604378,185191373741.8115
3.2030299723236504,6273861227814327.0,7623914383443136.0,624110029633214.4,725733236765845.5,260046419.90733165,536197402.69757646,8645931257.751083,200447054671.48743
3.3670905717701234,6433729871847156.0,7818196048982422.0,640013413616283.8,744226152733880.1,280763856.7596714,578915299.4895118,9334737558.131386,216416368374.8558
3.5344323832055258,6592803272386619.0,8011512139779233.0,655837688511321.5,762627078360824.2,302433040.8553042,623595632.1879374,10055187235.533411,233119304552.65775
3.7051210308696363,6751197760575749.0,8204004037800893.0,671594426686677.9,780949470332106.0,325080945.0868469,670294017.0052085,10808177075.702734,250576654333.27768
3.879223451487029,6909019954389760.0,8395801322870606.0,687294234265962.2,799205661755749.9,348735590.27982455,719068230.9179981,11594638705.724987,268810016610.64197
4.0568079205167695,7066367964503636.0,8587023237990792.0,702946871085112.1,817407001651942.4,373426056.59167165,769978235.1712536,12415538973.015171,287841806830.55096
4.237944078927105,7223332417565134.0,8777779932788380.0,718561352485352.9,835563973320836.9,399182497.72196984,823086204.5787437,13271880417.77456,307695267943.98816
4.422702960505647,7379997329491132.0,8968173524717554.0,734146036186837.6,853686295361730.5,426036157.642726,878456562.0197183,14164701829.232729,328394483302.9447
4.61115701971576,7536440854748386.0,9158299009566052.0,749708696825433.8,871783008346616.9,454019389.615718,936156017.6513778,15095078877.93005,349964391319.18286
4.803380160110075,7692735932440084.0,9348245046566658.0,765256590224025.9,889862549556703.6,483165677.3102997,996253612.4523127,16064124817.8349,372430801742.06714
4.9994477633122765,7848950846019070.0,9538094638553356.0,780796509071550.4,907932817727623.8,513509657.8721316,1058820765.7886487,17072991253.325464,395820413440.24646
5.199436718578522,8005149710307711.0,9727925723785220.0,796334831370687.6,926001229385800.0,545087146.8234152,1123931326.7565985,18122868967.06449,420160833595.0717
5.403425452950093,8161392897021135.0,9917811693044078.0,811877562767963.2,944074768071133.6,577935164.6996585,1191661629.1056302,19214988805.609344,445480598232.5864
5.611493962009095,8317737407856148.0,1.0107821843213024e+16,827430373672786.0,962160027516077.0,612091965.5061742,1262090552.2672672,20350623556.971626,471809361945.89514
5.823723841249277,8474237203715528.0,1.0298021776579816e+16,842998631988075.1,980263249641515.2,647597065.9909966,1335299572.34964,21531085217.77435,499177252865.2973
6.040198318074262,8630943494071719.0,1.0488473753647446e+16,858587431925489.4,998390358160734.5,684491278.0446217,1411372842.9170368,22757731600.79918,527615893806.2855
6.261002284435747,8787904994923650.0,1.0679237005844848e+16,874201619646328.8,1016546988330594.2,722816741.0650637,1490397252.4560397,24031963742.918583,557157766514.1887
6.486222330124463,8945168157451077.0,1.0870368013597258e+16,889845816012634.0,1034738513423443.2,762616956.6042203,1572462498.1194835,25355227969.45204,587836402693.8103
6.715946776726952,9102777372084738.0,1.1061920754332256e+16,905524436887626.5,1052970068333056.8,803936824.3489056,1657661159.9168704,26729017090.46091,619686411755.8912
6.950265712261491,9260775151030622.0,1.1253946924304492e+16,921241711292817.2,1071246570688257.6,846822679.5844765,1746088777.9617622,28154871646.326477,652743509694.6716
7.18927102650672,9419202291969104.0,1.1446496137547068e+16,937001697692461.5,1089572739788944.4,891322332.140282,1837843932.7746224,29634381202.596416,687044549107.6384
7.433056447036854,9578098025254998.0,1.1639616104774746e+16,952808298636687.1,1107953113633541.0,937485106.8218205,1933028328.6511025,31169185694.260273,722627550361.2922
7.681717575977592,9737500146612820.0,1.1833352794662662e+16,968665273961714.5,1126392064268619.2,985361885.3392483,2031746880.1157753,32760976819.775677,759531733910.3018
7.935351927497144,9897445137043416.0,1.202775057958673e+16,984576252717933.4,1144893811659177.0,1035005149.7463025,2134107801.4901438,34411499485.31161,797797553780.9257
8.194058966047088,1.005796827142508e+16,1.2222852367626808e+16,1000544743973290.4,1163462436251164.5,1086469027.4075,2240222699.611937,36122553299.804,837466732232.469
8.45794014536803,1.0219103717093242e+16,1.2418699722393486e+16,1016574146619783.8,1182101890374731.2,1139809337.5150917,2350206669.7498546,37895994121.5369,878582295613.2865
8.72709894827539,1.0380884623514278e+16,1.2615332972034792e+16,1032667758294027.0,1200816008617338.2,1195083639.1803586,2464178394.7644877,39733735657.06732,921188611430.3627
9.0016409272409,1.0543343204027242e+16,1.2812791308604492e+16,1048828783508708.4,1219608517279243.0,1252351281.1269307,2582260247.5725036,41637751113.41259,965331426653.7119
9.281673745785717,1.0706510810502082e+16,1.3011112878825282e+16,1065060341079465.2,1238483043009693.2,1311673453.0164077,2704578396.976614,43610074904.50955,1011057907279.0262
9.567307220701432,1.0870418001660772e+16,1.3210334867151822e+16,1081365470921308.2,1257443120709993.8,1373113238.439297,2831262916.9291267,45652804413.04031,1058416679173.9573
9.85865336511546,1.1035094605715284e+16,1.341049357192977e+16,1097747140279687.6,1276492200779180.0,1436735669.6066232,2962447899.3023663,47768101808.80215,1107457870235.2966
10.155826432417769,1.1200569777898714e+16,1.3611624475350482e+16,1114208249453604.2,1295633655769016.5,1502607783.779864,3098271570.243267,49958195924.87313,1158233153886.1372
10.458942961066125,1.1366872053399298e+16,1.3813762307820996e+16,1130751637061339.5,1314870786507132.5,1570798681.4792776,3238876410.194955,52225384192.90382,1210795793943.7588
10.768121820287448,1.1534029396147404e+16,1.4016941107295974e+16,1147380084893677.8,1334206827740513.2,1641379586.5125139,3384409277.6716623,54572034638.931915,1265200690890.7612
11.083484256693197,1.1702069243854908e+16,1.4221194274057704e+16,1164096322394355.8,1353644953345461.2,1714423907.8678997,3535021536.878317,57000587941.188835,1321504429583.3408
11.405153941827061,1.1871018549662736e+16,1.4426554621375426e+16,1180903030803036.2,1373188281145183.2,1790007303.5184088,3690869189.2700496,59513559551.43697,1379765328432.5127
11.733257020663602,1.2040903820712216e+16,1.4633054422428854e+16,1197802846992313.8,1392839877371593.0,1868207746.1846921,3852113009.151006,62113541881.43784,1440043490095.3403
12.067922161076874,1.2211751153923062e+16,1.4840725453838388e+16,1214798367026840.2,1412602760803931.5,1949105591.10731,4018918683.416023,64803206556.22314,1502400853714.8828
12.409280604298411,1.2383586269230162e+16,1.5049599036109334e+16,1231892149469635.5,1432479906613448.8,2032783645.8803606,4191456955.542813,67585306735.901245,1566901248749.1406
12.75746621638438,1.2556434540505442e+16,1.5259706071264874e+16,1249086718458128.5,1452474249940331.2,2119327242.400625,4369903773.94614,70462679507.80197,1633610450430.6426
13.112615540712067,1.2730321024367896e+16,1.5471077077914306e+16,1266384566570115.8,1472588689226307.0,2208824310.9883504,4554440444.809825,73438248350.82176,1702596236899.99
13.474867851526309,1.2905270487063694e+16,1.5683742223978424e+16,1283788157497746.8,1492826089324031.8,2301365456.737711,4745253789.516094,76515025673.89937,1773928448058.069
13.844365208556836,1.3081307429581644e+16,1.5897731357271904e+16,1301299928545950.2,1513189284402335.2,2397044038.1569343,4942536306.796283,79696115430.62184,1847679046183.1921
14.221252512727972,1.3258456111151484e+16,1.6113074034122626e+16,1318922292969973.5,1533681080664396.0,2495956248.1602244,5146486339.730457,82984715812.01761,1923922178360.979
14.605677562982532,1.343674057125912e+16,1.6329799546191144e+16,1336657642165437.5,1554304258894367.2,2598201197.475319,5357308247.728269,86384122019.66731,2002734240776.3743
14.997791114242183,1.3616184650300102e+16,1.6547936945637132e+16,1354508347722894.5,1575061576846498.2,2703881000.5329328,5575212583.626966,89897729121.32968,2084193944918.5825
15.397746936527026,1.379681200898136e+16,1.676751506876653e+16,1372476763357849.8,1595955771489419.0,2813100863.9059725,5800416276.047138,93529034991.34305,2168382385751.5696
15.805701875257567,1.3978646146570226e+16,1.6988562558280768e+16,1390565226726164.8,1616989561117137.8,2925969177.3688936,6033142817.1508255,97281643338.1392,2255383111904.091
16.221815912762718,1.416171041808211e+16,1.7211107884237988e+16,1408776061133820.5,1638165647337215.0,3042597607.649368,6273622455.951087,101159266821.27213,2345282197935.0605
16.64625223101797,1.4346028050488676e+16,1.7435179363826238e+16,1427111577149301.0,1659486716945661.2,3163101194.9467516,6522092397.326511,105165730260.43414,2438168318731.5938
17.079177275638333,1.4531622158022016e+16,1.7660805180040774e+16,1445574074125990.2,1680955443697260.0,3287598452.294,6778797006.898715,109304973939.01315,2534132826098.8076
17.5207608211511,1.4718515756643106e+16,1.7888013399347932e+16,1464165841641484.0,1702574489979219.0,3416211467.841882,7043988021.935428,113581057004.80658,2633269827602.1924
17.97117603757412,1.4906731777737502e+16,1.811683198841236e+16,1482889160859988.8,1724346508395414.5,3549066010.14656,7317924768.446325,117998160970.59384,2735676267725.0044
18.430599558325603,1.5096293081095026e+16,1.8347288829957196e+16,1501746305823537.2,1746274143267849.2,3686291636.544104,7600874384.643889,122560593317.3377,2841452011405.061
18.899211549492115,1.5287222467226656e+16,1.857941173782037e+16,1520739544677233.2,1768360032061398.5,3828021804.697599,7893112050.946042,127272791202.8718,2950699930017.05
19.37719578048196,1.5479542689066144e+16,1.881322847126717e+16,1539871140833281.8,1790606806737413.2,3974393987.4051237,8194921226.702309,132139325279.00208,3063525989868.346
19.864739696091597,1.5673276463100586e+16,1.904876674861071e+16,1559143354078275.0,1813017095041248.5,4125549790.7592883,8506593893.830865,137164903620.03877,3180039343278.1035
20.36203449001343,1.5868446479971058e+16,1.928605426019119e+16,1578558441627682.0,1835593521728498.8,4281635075.75139,8828430807.557983,142354375765.85602,3300352422311.5996
20.869275179813698,1.6065075414579728e+16,1.952511868075916e+16,1598118659131329.2,1858338709734160.5,4442800083.416007,9160741754.457802,147712736882.66153,3424581035243.3804
21.38666068340997,1.6263185935738952e+16,1.976598768130422e+16,1617826261633200.2,1881255281288790.0,4609199563.614318,9503845817.994722,153245132044.74503,3552844465825.179
21.91439389707817,1.6462800715393024e+16,2.000868894036774e+16,1637683504488869.2,1904345858985203.2,4780992907.557153,9858071651.777052,158956860640.5635,3685265575436.241
22.452681775019734,1.6663942437442408e+16,2.0253250154876136e+16,1657692644243273.0,1927613066799289.0,4958344284.171483,10223757760.735504,164853380906.60956,3821970908196.14
23.00173541052013,1.6866633806197418e+16,2.049969905052615e+16,1677855939471668.5,1951059531067833.8,5141422780.416883,10601252790.446077,170940314592.6099,3963090799121.918
23.561770118730532,1.707089755448596e+16,2.0748063391754136e+16,1698175651586201.8,1974687881426440.0,5330402545.661223,10990915824.823372,177223451761.6804,4108759485413.997
24.133005521105144,1.7276756451438964e+16,2.099837099131569e+16,1718654045610337.2,1998500751710070.0,5525462940.2279215,11393116692.414528,183708755729.17032,4259115220957.0566
24.715665631527248,1.7484233309974204e+16,2.125064971950356e+16,1739293390923377.0,2022500780818758.0,5726788688.229893,11808236281.53287,190402368144.0332,4414300394124.763
25.309978944157795,1.7693350993998716e+16,2.150492751302648e+16,1760095961976921.5,2046690613550762.8,5934570034.808258,12236666864.473463,197310614216.6385,4574461648979.236
25.91617852304095,1.790413242534801e+16,2.176123238357181e+16,1781064038985159.8,2071072901405256.8,6149002907.897267,12678812431.061398,204440008097.0713,4739750009958.543
26.53450209350177,1.811660059047859e+16,2.2019592426072396e+16,1802199908590649.8,2095650303356487.8,6370289084.639705,13135089031.789118,211797258408.03314,4910321010148.078
27.165192135371807,1.8330778546930012e+16,2.2280035826697132e+16,1823505864507126.0,2120425486601289.2,6598636362.580207,13605925130.805532,219389273936.6083,5086334823233.816
27.808495978079243,1.854668942957006e+16,2.254259087058179e+16,1844984208140766.8,2145401127281478.5,6834258735.767367,14091761969.026846,227223169489.21625,5267956399238.109
28.464665897640828,1.8764356456636536e+16,2.2807285949317104e+16,1866637249191222.8,2170579911182764.8,7077376575.898488,14593053937.64459,235306271914.2221,5455355604140.895
29.133959215593645,1.8983802935587732e+16,2.3074149568208388e+16,1888467306233597.5,2195964534411493.0,7328216818.64439,15110268962.314867,243646126296.7536,5648707363492.184
29.816638399905518,1.920505226877183e+16,2.3343210353319212e+16,1910476707282445.8,2221557704050470.8,7587013155.294618,15643888898.317966,252250502330.40918,5848191810123.437
30.51297116790363,1.9428127958925532e+16,2.361449705831239e+16,1932667790338737.5,2247362138794990.0,7854006229.866966,16194409936.984625,261127400870.617,6053994436068.734
31.223230591261704,1.9653053614509084e+16,2.3888038571096016e+16,1955042903920593.2,2273380569569995.5,8129443841.828427,16762343023.693287,270285060674.55872,6266306248808.617
31.947695203086937,1.9879852954885744e+16,2.4163863920286236e+16,1977604407578526.0,2299615740129219.5,8413581154.577902,17348214287.746807,279731965332.6347,6485323931951.752
32.686649107148675,2.0108549815350396e+16,2.44420022814902e+16,2000354672395670.8,2326070407636843.5,8706680909.843874,17952565484.446404,289476850396.56635,6711250010472.969
33.44038208929165,2.0339168152011436e+16,2.4722482983416492e+16,2023296081473426.2,2352747343232235.0,9009013648.15389,18575954449.684456,299528710709.3618,6944293020626.913
34.20918973107749,2.0571732046527652e+16,2.5005335513814296e+16,2046431030402669.2,2379649332577895.0,9320857935.534931,19218955567.385254,309896807942.40234,7184667684660.319
34.993373525699035,2.0806265710700424e+16,2.5290589525241264e+16,2069761927720576.5,2406779176390636.5,9642500596.606548,19882160250.12726,320590678345.061,7432595090446.628
35.793240996213015,2.104279349091835e+16,2.557827484065812e+16,2093291195352763.2,2434139690955736.0,9974236954.231445,20566177433.28587,331620140712.3002,7688302876169.399
36.60910581613728,2.128133987244914e+16,2.586842145884271e+16,2117021269040235.2,2461733708623396.5,10316371075.889338,21271634083.039925,342995304575.7743,7952025420181.644
37.44128793246003,2.1521929483570852e+16,2.616105955961438e+16,2140954598750342.5,2489564078286624.0,10669216026.942366,21999175718.587025,354726578624.01245,8224004036170.07
38.29011369110923,2.1764587099529636e+16,2.6456219508853436e+16,2165093649070519.5,2517633665839060.5,11033094130.960413,22749466948.916508,366824679357.29083,8504487173753.271
39.15591596493141,2.2009337646309068e+16,2.6753931863297176e+16,2189440899583207.0,2545945354610976.5,11408337237.275871,23523192024.48885,379300639982.81696,8793730624643.591
40.03903428423004,2.225620620418925e+16,2.7054227375086656e+16,2213998845219932.5,2574502045780997.5,11795286995.935982,24321055404.16813,392165819555.81305,9091997734501.672
40.93981496991464,2.2505218011070256e+16,2.735713699603307e+16,2238769996591910.5,2603306658760496.5,12194295140.219986,25143782337.75294,405431912372.05695,9399559620611.5
41.85861126931294,2.275639846552706e+16,2.7662691881564384e+16,2263756880293942.0,2632362131547057.5,12605723776.885805,25992119464.443966,419110957617.3449,9716695395501.842
42.7957834946992,2.3009773129558068e+16,2.7970923394305204e+16,2288962039177819.0,2661671421042312.0,13029945684.305935,26866835427.579773,433215349279.18866,10043692396636.83
43.751699164593184,2.326536773097971e+16,2.8281863107234e+16,2314388032590546.0,2691237503329001.5,13467344618.648573,27768721505.960247,447757846325.922,10380846422294.076
