t(s),Total solute volume 1,Total retention volume 1,Total 1 volume 1,Total 2 volume 1,Total 3 volume 1,Total 4 volume 1,Total 5 volume 1,Total 6 volume 1
0.1,1225891390677807.5,1918426285810987.5,281662698191601.44,410872196941578.9,0.0,0.0,0.0,0.0
0.202,1843528398526091.8,2888005826800547.0,423571936316784.75,617880685334120.8,1141494355.6482346,3335877387.9999275,90620786527.2898,2929708465279.139
0.30604000000000003,2313640272849137.5,3628347562389157.5,531585568423715.56,775444331482949.5,2893784899.1717696,8456756764.882661,229757860484.23047,7436281231204.754
0.41216080000000005,2710636413903930.5,4255572809156512.5,622800016187615.9,908502358836962.1,5136454342.327261,15010721218.259394,407838175211.9454,13206034877226.271
0.5204040160000001,3062559193328356.0,4813421871409266.0,703658338553103.1,1026453506883176.2,7815557267.133969,22840119721.41356,620576550008.4417,20099600417635.15
0.6308120963200001,3383400353713317.5,5323712700821320.0,777375300005291.4,1133987276660041.5,10901781968.83933,31859291619.14392,865644907886.8717,28041364461191.984
0.7434283382464002,3681296557604474.5,5799132996088709.0,845820392739544.8,1233830768511612.8,14378012478.76769,42018217278.85474,1141683882837.7927,36987197120477.76
0.8582969050113283,3961460995304041.0,6247814292529233.0,910191407433609.0,1327731245855242.8,18234211978.113415,53287565252.65385,1447896358728.494,46911225800378.836
0.9754628431115548,4227465459836050.0,6675331586278535.0,971309004782687.0,1416885838060589.8,22464898957.36119,65651316567.60006,1783847001304.0889,57799320382381.836
1.094972099973786,4481880725630015.0,7085701751124342.0,1029763849899085.4,1502156171076270.2,27067747604.35083,79102674485.92712,2149351094706.6934,69645483002180.74
1.2168715419732616,4726628294861013.0,7481931752101970.0,1085997430096518.4,1584186259448444.5,32042745271.93611,93641602283.03476,2544407626415.5825,82449675722026.03
1.3412089728127268,4963187943622721.0,7866342005525413.0,1140349741020360.2,1663472067917103.5,37391653619.279205,109273248484.68529,2969156491489.0684,96216431571645.39
1.4680331522689813,5192727236984361.0,8240768099796165.0,1193089044227719.0,1740404919944851.8,43117647630.68881,126006891935.06573,3423849824255.093,110953924275414.44
1.597393815314361,5416186075589029.0,8606692437358621.0,1244431292744779.0,1815299834525782.2,49225064860.889,143855208991.3298,3908832084229.1147,126673322140949.53
1.729341691620648,5634333971883719.0,8965333390798767.0,1294553290942095.8,1888414723002496.5,55719226156.550674,162833749600.78308,4424525818604.538,143388326176085.66
1.863928525453061,5847810076097783.0,9317707591630118.0,1343601890965354.2,1959963804253860.5,62606304495.07312,182960553996.15717,4971421246114.714,161114832208522.2
2.001207095962122,6057151895853947.0,9664674614403024.0,1391700591397664.2,2030127230417804.2,69893227251.75487,204255867082.16678,5550068495680.199,179870679143611.44
2.1412312378813647,6262816377057231.0,1.0006969770255022e+16,1438954380837198.2,2099058152404595.0,77587602324.07979,226741922542.21146,6161071739703.008,199675458691417.44
2.284055862638992,6465195686928550.0,1.034522865607632e+16,1485453364231452.2,2166888009770199.8,85697661684.13826,250442777877.1427,6805084711432.186,220550369995120.97
2.4297369798917723,6664629237649159.0,1.068000585507977e+16,1531275525448364.8,2233730560585204.2,94232217926.02936,275384187420.6459,7482807254333.0,242518107737374.5
2.578331719489608,6861412988000195.0,1.1011789403882326e+16,1576488864435447.8,2299684998991086.5,103200630680.48672,301593504190.6547,8194982655063.769,265602775665658.22
2.7298983538794,7055806738532949.0,1.1341012139867598e+16,1621153073369368.0,2364838400264173.5,112612780644.97592,329099603996.2957,8942395581236.027,289829819735224.9
2.884496320956988,7248039923861627.0,1.1668060712523238e+16,1665320867502110.0,2429267662172163.0,122479049578.88588,357932826977.2877,9725870492892.393,315225976617875.94
3.0421862473761276,7438316262965728.0,1.1993282820244522e+16,1709039053621641.2,2493041063578843.5,132810305034.67561,388124932983.76276,10546270430089.934,341819234410195.2
3.2030299723236504,7626817530366344.0,1.2316993081497508e+16,1752349396523217.0,2556219528399134.5,143617888896.28906,419709068082.5209,11404496102838.213,369638803148999.44
3.3670905717701234,7813706642486564.0,1.2639477842531712e+16,1795289328136318.8,2618857660029858.0,154913609013.97504,452719740112.2935,12301485226938.941,398715093302927.6
3.5344323832055258,7999130204771938.0,1.2960999147993768e+16,1837892532754989.8,2681004595047767.5,166709733384.90747,487192801678.92474,13238212062001.824,429079700821991.1
3.7051210308696363,8183220629981376.0,1.3281798046079098e+16,1880189433739639.8,2742704713180179.5,179018986448.4994,523165439330.625,14215687117401.33,460765397634709.3
3.879223451487029,8366097912336612.0,1.360209735984656e+16,1922207601148363.8,2803998231932526.5,191854547155.52563,560676167917.0718,15234956999102.678,493806126714897.44
4.0568079205167695,8547871123166146.0,1.3922104026686988e+16,1963972095378405.8,2864921707871311.0,205230048539.01773,599764829337.3928,16297104375755.121,528237001017503.25
4.237944078927105,8728639679402893.0,1.4242011085737544e+16,2005505758618156.2,2925508461776430.0,219159578568.0316,640472595037.2998,17403248046668.445,564094305719780.0
4.422702960505647,8908494425483053.0,1.4561999376223422e+16,2046829463425880.8,2985788941252483.5,233657682106.74188,682841971736.531,18554543097573.496,601415503310574.4
4.61115701971576,9087518560922698.0,1.4882238996851874e+16,2087962325851192.8,3045791031617295.0,248739363833.81738,726916809962.7115,19752181132648.87,640239241154239.4
4.803380160110075,9265788439464404.0,1.5202890566460366e+16,2128921889048165.5,3105540323745436.5,264420092002.7683,772742315042.9868,20997390573339.254,680605361221983.4
4.9994477633122765,9443374260713760.0,1.5524106318394878e+16,2169724282186878.8,3165060345878576.5,280715802944.506,820365060264.8042,22291437016122.418,722554911736331.4
5.199436718578522,9620340671283488.0,1.5846031055030592e+16,2210384358573147.0,3224372765106105.0,297642906229.84955,869833001965.4331,23635623642693.008,766130160516948.6
5.403425452950093,9796747289375760.0,1.6168802984052722e+16,2250915816177421.0,3283497563185214.0,315218290423.0891,921195496348.9233,25031291677092.406,811374609850454.8
5.611493962009095,9972649164274530.0,1.6492554454295436e+16,2291331303208413.5,3342453190545274.5,333459329368.5766,974503317860.895,26479820885176.09,858333012734821.8
5.823723841249277,1.0148097180248448e+16,1.6817412605876124e+16,2331642510914497.0,3401256701660768.0,352383888961.2134,1029808678977.6113,27982630112518.344,907051390371937.0
6.040198318074262,1.032313841277372e+16,1.7143499946891164e+16,2371860255429998.5,3459923874443613.5,372010334359.036,1087165251287.1748,29541177857434.613,957577050800734.8
6.261002284435747,1.0497816443694812e+16,1.7470934866935476e+16,2411994550187000.0,3518469315873120.5,392357537602.1597,1146628187758.402,31156962876283.387,1009958608578901.8
6.486222330124463,1.0672171640887058e+16,1.7799832096070806e+16,2452054670171079.0,3576906555728209.0,413444885607.36676,1208254146107.649,32831524818609.773,1064246005434135.2
6.715946776726952,1.084624140711988e+16,1.8130303116525796e+16,2492049209100475.0,3635248129996962.5,435292288511.8385,1272101313186.0989,34566444890025.707,1120490531816776.1
6.950265712261491,1.1020060402105894e+16,1.8462456533303716e+16,2531986130444473.0,3693505655299045.5,457920188343.04034,1338229430320.4119,36363346541002.35,1178744849294658.8
7.18927102650672,1.1193660741130244e+16,1.8796398408955836e+16,2571872813060765.0,3751689895458632.5,481349567994.746,1406699819548.162,38223896179984.375,1239063013738698.8
7.433056447036854,1.1367072173161312e+16,1.913223256701502e+16,2611716092118426.0,3809810821200500.5,505601960491.6739,1477575410696.9082,40149803909436.06,1301500499254140.8
7.681717575977592,1.1540322240933754e+16,1.9470060867945548e+16,2651522295878879.0,3867877663803624.0,530699458527.3402,1550920769261.924,42142824283596.3,1366114222817880.0
7.935351927497144,1.1713436425147952e+16,1.9809983460929736e+16,2691297278827336.0,3925898963431445.5,556664724261.5275,1626802125042.7747,44204757086862.414,1432962569586845.2
8.194058966047088,1.1886438274639224e+16,2.015209901435885e+16,2731046451580736.0,3983882612759657.0,583520999365.2976,1705287401503.5647,46337448131844.58,1502105418846532.8
8.45794014536803,1.2059349524124298e+16,2.0496504927515216e+16,2770774807941301.0,4041835896440310.0,611292115302.8179,1786446245825.4219,48542790076241.55,1573604170571917.0
8.72709894827539,1.2232190200922046e+16,2.0843297525606772e+16,2810486949416895.5,4099765526870512.5,640002503840.3525,1870350059623.1301,50822723257767.37,1647521772576135.0
9.0016409272409,1.2404978721868048e+16,2.1192572240040136e+16,2850187107488250.0,4157677676674616.5,669677207773.8118,1957072030300.5908,53179236546447.88,1723922748224659.8
9.281673745785717,1.2577731981490398e+16,2.1544423775579468e+16,2889879163868350.0,4215578008257294.0,700341891866.9768,2046687163022.35,55614368213666.266,1802873224694877.2
9.567307220701432,1.2750465432382172e+16,2.1898946265840144e+16,2929566668969000.5,4273471700741408.0,732022853993.3865,2139272313280.431,58130206817391.05,1884440961762882.2
9.85865336511546,1.2923193158595064e+16,2.2256233418386068e+16,2969252858763795.5,4331363474566717.0,764747036475.3816,2234906220037.647,60728892103080.16,1968695381100906.5
10.155826432417769,1.309592794278084e+16,2.261637865055567e+16,3008940670214669.5,4389257613993183.5,798542037614.4121,2333669539430.1724,63412615919787.69,2055707596070177.2
10.458942961066125,1.326868132772301e+16,2.297947521700534e+16,3048632755409522.0,4447157987724024.5,833436123407.1997,2435644879013.4473,66183623151046.08,2145550441995333.0
10.768121820287448,1.3441463672829568e+16,2.3345616329851144e+16,3088331494542049.5,4505068067839934.0,869458239442.7422,2540916832536.945,69044212660125.36,2238298506907536.5
11.083484256693197,1.3614284206092776e+16,2.3714895272188884e+16,3128039007850139.0,4562990947214045.0,906638022975.5536,2649572015234.2495,71996738249307.02,2334028162744396.5
11.405153941827061,1.3787151071968106e+16,2.408740550568714e+16,3167757166616561.5,4620929355559129.0,945005815170.867,2761699099615.965,75043609632827.08,2432817596995777.0
11.733257020663602,1.3960071375575152e+16,2.4463240772875544e+16,3207487603324684.0,4678885674241987.0,984592673517.7961,2877388851753.8887,78187293423179.53,2534746844785231.5
12.067922161076874,1.4133051223581588e+16,2.48424951946805e+16,3247231721052022.0,4736861949986384.0,1025430384406.8289,2996734168045.5977,81430314130483.28,2639897821377577.5
12.409280604298411,1.4306095762093996e+16,2.5225263363709204e+16,3286990702176090.5,4794859907572413.0,1067551475868.1028,3119830112449.52,84775255174640.48,2748354355103739.5
12.75746621638438,1.4479209211846746e+16,2.5611640433726144e+16,3326765516459429.5,4852880961630565.0,1110989230467.3838,3246773954180.9624,88224759910033.2,2860202220694696.0
13.112615540712067,1.4652394900950518e+16,2.6001722205725756e+16,3366556928574003.0,4910926227617773.0,1155777698356.6467,3377665205860.553,91781532662519.94,2975529173016722.0
13.474867851526309,1.4825655295437832e+16,2.639560521096438e+16,3406365505119341.5,4968996532055147.0,1201951710476.572,3512605662106.9697,95448339778515.05,3094424981200937.5
13.844365208556836,1.4998992027819352e+16,2.679338679127884e+16,3446191621183732.5,5027092422098928.0,1249546891908.3518,3651699438566.396,99228010685945.03,3216981463160399.5
14.221252512727972,1.5172405923844778e+16,2.7195165176989684e+16,3486035466492798.5,5085214174509701.0,1298599675372.4243,3795053011371.884,103123438966895.05,3343292520488753.5
14.605677562982532,1.534589702764465e+16,2.760103956265827e+16,3525897051186137.0,5143361804079022.0,1349147314872.0256,3942775257026.21,107137583441774.1,3473454173734805.0
14.997791114242183,1.5519464625412866e+16,2.801111018094319e+16,3565776211258654.5,5201535071566838.0,1401227899479.4875,4094977492702.6357,111273469264841.25,3607564598047762.5
15.397746936527026,1.5693107267776232e+16,2.842547837477945e+16,3605672613700196.0,5259733491198986.0,1454880367263.58,4251773516958.1357,115534189030954.44,3745724159188822.5
15.805701875257567,1.586682279098356e+16,2.884424666808486e+16,3645585761364050.5,5317956337768899.0,1510144519356.3157,4413279650854.706,119922903893412.05,3888035449904736.5
16.221815912762718,1.6040608337036526e+16,2.9267518835179884e+16,3685514997592197.0,5376202653384789.0,1567061034157.7886,4579614779484.761,124442844692786.45,4034603326659943.0
16.64625223101797,1.6214460372873188e+16,2.969539996909168e+16,3725459510622953.5,5434471253899111.0,1625671481677.9756,4750900393897.083,129097313096651.81,4185534946724248.0
17.079177275638333,1.6388374708706336e+16,3.012799654890082e+16,3765418337804413.0,5492760735054995.0,1686018338014.4685,4927260633420.923,133889682750135.42,4340939805613498.5
17.5207608211511,1.6562346515610208e+16,3.0565416506273176e+16,3805390369635229.5,5551069478380619.0,1748144999965.5469,5108822328385.87,138823400437235.02,4500929774881515.0
17.97117603757412,1.6736370342441658e+16,3.1007769291312276e+16,3845374353652384.0,5609395656860456.0,1812095799778.0354,5295715043236.449,143901987252872.53,4665619140261888.0
18.430599558325603,1.6910440132174606e+16,3.145516593785387e+16,3885368898184291.0,5667737240410041.0,1877916020029.7732,5488071120040.787,149129039785655.9,4835124640159245.0
18.899211549492115,1.7084549237720622e+16,3.190771912831704e+16,3925372475985734.0,5726092001178508.0,1945651908646.7544,5686025722393.313,154508231311368.47,5009565504489729.0
19.37719578048196,1.7258690437302966e+16,3.236554325821708e+16,3965383427770178.5,5784457518701147.0,2015350694055.301,5889716879712.906,160043312997200.6,5189063493871874.0
19.864739696091597,1.7432855949444902e+16,3.2828754500439844e+16,4005399965653592.0,5842831184923175.0,2087060600469.8174,6099285531937.983,165738115116781.78,5373742939169009.0
20.36203449001343,1.7607037447630422e+16,3.3297470869366376e+16,4045420176522844.5,5901210209113283.0,2160830863317.1216,6314875574621.569,171596548276083.0,5563730781385839.0
20.869275179813698,1.7781226074688372e+16,3.3771812284935252e+16,4085442025340678.5,5959591622684695.0,2236711744798.6216,6536633904429.667,177622604650294.62,5759156611921977.0
21.38666068340997,1.7955412456949592e+16,3.4251900636721452e+16,4125463358398440.5,6017972283940142.0,2314754549591.8516,6764710465048.091,183820359231799.94,5960152713186875.0
21.91439389707817,1.8129586718220556e+16,3.473785984810645e+16,4165481906526704.5,6076348882755259.0,2395011640693.3804,6999258293503.044,190193971089404.97,6166854099580367.0
22.452681775019734,1.8303738493615056e+16,3.5229815940609524e+16,4205495288273262.5,6134717945214420.0,2477536455405.374,7240433566902.469,196747684639005.97,6379398558845507.0
23.00173541052013,1.847785694328133e+16,3.5727897098446676e+16,4245501013057060.5,6193075838211542.0,2562383521468.5205,7488395649605.996,203485830925907.16,6597926693799717.0
23.561770118730532,1.865193076605893e+16,3.623223373337822e+16,4285496484306066.0,6251418774027495.0,2649608473344.318,7743307140832.479,210412828919040.4,6822581964452472.0
24.133005521105144,1.88259482130975e+16,3.674295854990533e+16,4325479002586302.0,6309742814894331.0,2739268068650.468,8005333922715.7,217533186817362.16,7053510730518470.0
24.715665631527248,1.899989710146598e+16,3.726020661086993e+16,4365445768728768.0,6368043877556831.0,2831420204752.9995,8274645208819.3545,224851503368736.47,7290862294336029.0
25.309978944157795,1.9173764827778616e+16,3.7784115403510376e+16,4405393886960090.5,6426317737839252.0,2926123935519.7485,8551413593124.551,232372469201673.7,7534788944202054.0
25.91617852304095,1.934753838186171e+16,3.831482490602431e+16,4445320368042696.5,6484560035225994.0,3023439488240.0225,8835815099504.062,240100868170273.2,7785445998135937.0
26.53450209350177,1.952120436048257e+16,3.8852477654685656e+16,4485222132429183.0,6542766277463010.0,3123428280715.6157,9128029231698.47,248041578712841.5,8042991848085614.0
27.165192135371807,1.9694748981160324e+16,3.939721881156054e+16,4525096013435463.0,6600931845186613.0,3226152938529.1675,9428239023811.842,256199575224603.12,8307588004591191.0
27.808495978079243,1.9868158096075596e+16,3.9949196232868344e+16,4564938760436706.0,6659051996585464.0,3331677312496.185,9736631091345.277,264579929445047.28,8579399141921697.0
28.464665897640828,2.0041417206093844e+16,4.050856053802625e+16,4604747042089369.0,6717121872100800.0,3440066496307.4272,10053395682788.213,273187811860422.5,8858593143702709.0
29.133959215593645,2.021451147491664e+16,4.1075465179420456e+16,4644517449582646.0,6775136499169256.0,3551386844369.2295,10378726731789.371,282028493121989.5,9145341149053714.0
29.816638399905518,2.038742574337156e+16,4.165006651294124e+16,4684246499921625.0,6833090797012328.0,3665705989849.565,10712821909930.291,291107345480652.8,9439817599255302.0
30.51297116790363,2.05601445438503e+16,4.223252386932011e+16,4723930639244758.0,6890979581475469.0,3783092862938.3833,11055882680126.686,300429844238643.2,9742200284967858.0
31.223230591261704,2.073265211490324e+16,4.282299962630401e+16,4763566246176993.0,6948797569919753.0,3903617709331.248,11408114350683.857,310001569218983.94,1.0052670394025052e+16
31.947695203086937,2.0904932415996436e+16,4.342165928170359e+16,4803149635220492.0,7006539386167714.0,4027352108945.9175,11769726130034.27,319828206253487.44,1.0371412559826482e+16
32.686649107148675,2.1076969142435876e+16,4.402867152734769e+16,4842677060183547.0,7064199565505387.0,4154368994882.111,12140931182187.416,329915548690109.2,1.0698614910355734e+16
33.44038208929165,2.1248745740461304e+16,4.464420832397872e+16,4882144717648620.0,7121772559741305.0,4284742672635.126,12521946682923.49,340269498920512.56,1.1034469117851382e+16
34.20918973107749,2.1420245422512228e+16,4.526844497712019e+16,4921548750479837.0,7179252742322964.0,4418548839574.924,12912993876764.266,350896069928748.94,1.1379170449160074e+16
34.993373525699035,2.1591451182664876e+16,4.590156021394933e+16,4960885251369829.0,7236634413510771.0,4555864604702.38,13314298134755.979,361801386862008.2,1.1732917816802408e+16
35.793240996213015,2.1762345812239508e+16,4.6543736261204456e+16,5000150266425762.0,7293911805608988.0,4696768508695.577,13726089013101.629,372991688624441.06,1.2095913830783946e+16
36.60910581613728,2.193291191557514e+16,4.719515892415842e+16,5039339798793611.0,7351079088252850.0,4841340544259.139,14148600312680.889,384473329495095.5,1.2468364851184774e+16
37.44128793246003,2.2103131925966852e+16,4.78560176666881e+16,5078449812320126.0,7408130373750178.0,4989662176790.411,14582070139498.01,396252780771081.56,1.2850481041563426e+16
38.29011369110923,2.2272988121761756e+16,4.8526505692468664e+16,5117476235250865.0,7465059722475970.0,5141816365376.956,15026740966100.041,408336632437083.0,1.3242476423211504e+16
39.15591596493141,2.2442462642604756e+16,4.9206820027323784e+16,5156414963962989.0,7521861148317524.0,5297887584140.39,15482859694009.229,420731594862432.1,1.364456893029795e+16
40.03903428423004,2.2611537505827576e+16,4.989716160275645e+16,5195261866730846.0,7578528624167490.0,5457961843941.793,15950677717214.68,433444500526966.6,1.4056980465942418e+16
40.93981496991464,2.278019462297293e+16,5.059773534069464e+16,5234012787522388.0,7635056087461792.0,5622126714465.34,16430450986771.559,446482305776964.7,1.4479936959259344e+16
41.85861126931294,2.2948415816440028e+16,5.1308750239474664e+16,5272663549824020.0,7691437445759050.0,5790471346696.422,16922440076555.422,459852092612480.25,1.491366842341579e+16
42.7957834946992,2.3116182836245004e+16,5.203041946109409e+16,5311209960491095.0,7747666582357566.0,5963086495811.821,17426910250223.535,473561070507464.06,1.5358409014746876e+16
