t(s),Total solute volume 1,Total retention volume 1,Total 1 volume 1,Total 2 volume 1,Total 3 volume 1,Total 4 volume 1,Total 5 volume 1,Total 6 volume 1
0.1,1384269013029218.2,1.039366397781807e+16,2531887414418598.5,6477507550370256.0,0.0,0.0,0.0,0.013903653951609765
0.202,1978088788661938.5,1.5105209275130598e+16,3618012885598012.0,9256287382191794.0,177418121374.5143,1211408602544.4348,42063781923201.62,209367610031730.2
0.30604000000000003,2425372701582118.5,1.8901254596557228e+16,4436115654851736.5,1.1349322228467396e+16,439442624505.36676,3004206725452.1816,110288279654336.02,576712082651687.4
0.41216080000000005,2787608084965342.0,2.2204089255532652e+16,5098660627825790.0,1.3044375265900606e+16,765224676268.2512,5233891911380.487,197403597843294.6,1070042562409964.1
0.5204040160000001,3093170595143369.0,2.5202661346553656e+16,5657548276374859.0,1.4474230511455644e+16,1143542211278.4517,7823386928746.659,299566963379315.6,1669178071060448.0
0.6308120963200001,3357629784547789.5,2.799706654000837e+16,6141256052273219.0,1.5711745209093312e+16,1567313333770.9187,10724092084014.963,414399385953538.4,2359744702722723.0
0.7434283382464002,3590634924472913.0,3.0647001474626784e+16,6567432925873058.0,1.6802072707268946e+16,2031671070103.2751,13902624051261.047,540291187727265.9,3130635434163248.0
0.8582969050113283,3798655951518201.5,3.319127144880334e+16,6947912713519466.0,1.7775488762219714e+16,2533088566113.2695,17334803197596.238,676112327079365.4,3973233802702882.5
0.9754628431115548,3986316467090877.5,3.5656760256714196e+16,7291152197870486.0,1.8653629286235704e+16,3068947227214.9185,21002687897680.668,821049153400996.2,4880541516991231.0
1.094972099973786,4157035835649291.5,3.8063022702279064e+16,7603405555777038.0,1.945249501948311e+16,3637249978517.2935,24892604346175.8,974515033184522.1,5847041403860415.0
1.2168715419732616,4313413340575403.0,4.042484186005165e+16,7889426997336862.0,2.0184249169170716e+16,4236440956515.5527,28993907390630.223,1136082346356155.0,6868439658265371.0
1.3412089728127268,4457466275019463.0,4.2753750352321864e+16,8152906245164360.0,2.085833154396406e+16,4865282680067.1,33298136114833.527,1305434706746450.0,7941448162632645.0
1.4680331522689813,4590787266899998.0,4.505898463321179e+16,8396756289179259.0,2.1482194749007276e+16,5522771185322.299,37798430350350.4,1482332901876176.5,9063592224713416.0
1.597393815314361,4714653259193665.0,4.73481100935934e+16,8623312716684595.0,2.2061814154692896e+16,6208077493282.462,42489128332931.67,1666591190210482.2,1.023304156698556e+16
1.729341691620648,4830103471974697.0,4.962744553009474e+16,8834476308625911.0,2.2602052717250732e+16,6920507648858.702,47365492196687.26,1858061476852999.8,1.1448465555544868e+16
1.863928525453061,4937996125733566.0,5.190236024855882e+16,9031816789235654.0,2.310692641372091e+16,7659475494489.181,52423521135452.47,2056623126260438.5,1.2708914796978312e+16
2.001207095962122,5039049984512255.0,5.417748748104185e+16,9216648810403350.0,2.357979864179017e+16,8424483767520.782,57659821840407.6,2262176528773997.5,1.401372920995416e+16
2.1412312378813647,5133874978179211.0,5.645688116326128e+16,9390087961271482.0,2.4023523515764388e+16,9215110601436.334,63071516095036.75,2474639093783675.0,1.536246898756603e+16
2.284055862638992,5222995030574287.0,5.874413337517437e+16,9553092521994674.0,2.444055269009994e+16,10030999707912.38,68656173659219.1,2693942802252025.5,1.6754863156886326e+16
2.4297369798917723,5306865266508620.0,6.104246383810274e+16,9706494936154728.0,2.4833015878906164e+16,10871853102637.754,74411762605435.12,2920032681655737.5,1.81907714591694e+16
2.578331719489608,5385885042632389.0,6.33547891678315e+16,9851025644828966.0,2.5202781833312252e+16,11737425441142.867,80336610667006.88,3152865702724234.5,1.967015690822553e+16
2.7298983538794,5460407831203491.0,6.568377720461474e+16,9987331164462686.0,2.555150459203851e+16,12627519257015.969,86429372724382.34,3392409789981511.5,2.119306693494713e+16
2.884496320956988,5530748788672872.0,6.8031890166373416e+16,1.011598793016073e+16,2.588065889812584e+16,13541980764693.01,92689002117734.61,3638642872164490.0,2.2759620694367052e+16
3.0421862473761276,5597190694640138.0,7.040141930661484e+16,1.0237513158309486e+16,2.61915679898818e+16,14480696228155.732,99114725818602.88,3891552056061695.5,2.4369999985674932e+16
3.2030299723236504,5659988762594684.0,7.27945130291757e+16,1.0352373645642874e+16,2.6485426112417108e+16,15443589016760.43,105706024314623.39,4151133018214355.5,2.6024441876975284e+16
3.3670905717701234,5719374623693880.0,7.521319990656262e+16,1.0460993055755128e+16,2.6763317159467764e+16,16430617364324.988,112462616324956.6,4417389614444798.0,2.7723232219511748e+16
3.5344323832055258,5775559632263864.0,7.765940769188253e+16,1.0563757965013036e+16,2.70262301412581e+16,17441772666447.947,119384447205243.73,4690333608180203.0,2.946670012529563e+16
3.7051210308696363,5828737571347579.0,8.013497915497794e+16,1.0661022811126222e+16,2.7275071844908516e+16,18477078051660.113,126471679213481.97,4969984390551086.0,3.125521377977944e+16
3.879223451487029,5879086833995691.0,8.264168537920227e+16,1.0753113882826302e+16,2.7510677041599212e+16,19536587003456.543,133724682098570.06,5256368616041711.0,3.3089177735637372e+16
4.0568079205167695,5926772179855401.0,8.518123700785938e+16,1.0840332532745928e+16,2.7733816706357896e+16,20620381945940.145,141144023415727.28,5549519762434938.0,3.4969031421103544e+16
4.237944078927105,5971946180347988.0,8.77552938183067e+16,1.092295782071236e+16,2.7945204780620708e+16,21728572844702.164,148730458935218.7,5849477688610906.0,3.689524831623481e+16
4.422702960505647,6014750454335818.0,9.03654729199207e+16,1.1001248773837252e+16,2.8145503954414188e+16,22861295947017.055,156484924010312.4,6156288278456929.0,3.886833523891922e+16
4.61115701971576,6055316765053372.0,9.301335581290408e+16,1.107544639285268e+16,2.833533079934722e+16,24018712773832.63,164408526686427.53,6470003227079766.0,4.088883138911079e+16
4.803380160110075,6093768013016129.0,9.570049450164629e+16,1.1145775468186568e+16,2.8515260414851516e+16,25201009407359.17,172502542854324.2,6790679971759543.0,4.295730708157088e+16
4.9994477633122765,6130219131894523.0,9.842841682311826e+16,1.1212446218557028e+16,2.868583062036079e+16,26408396036985.246,180768413186586.7,7118381722986715.0,4.5074362320095624e+16
5.199436718578522,6164777881032542.0,1.0119863112329138e+17,1.1275655740525114e+16,2.8847545663845332e+16,27641106669666.37,189207741204422.25,7453177528378461.0,4.7240625461635864e+16
5.403425452950093,6197545528210132.0,1.040126303905109e+17,1.1335589257298132e+16,2.9000879416744628e+16,28899398895015.855,197822291712659.84,7795142307370251.0,4.945675219028005e+16
5.611493962009095,6228617423996440.0,1.0687189593347094e+17,1.1392421169247358e+16,2.914627806159969e+16,30183553615993.574,206613988985779.22,8144356818994876.0,5.172342491703084e+16
5.823723841249277,6258083478555290.0,1.0977790067326144e+17,1.14463159260061e+16,2.9284162323210956e+16,31493874697331.465,215584914375231.97,8500907555834077.0,5.404135260058248e+16
6.040198318074262,6286028558698818.0,1.1273211210439197e+17,1.1497428752697832e+16,2.9414929326599668e+16,32830688527523.176,224737303312099.94,8864886582933180.0,5.641127089162286e+16
6.261002284435747,6312532825502446.0,1.157359949689359e+17,1.1545906267448366e+16,2.95389541768302e+16,34194343522983.25,234073541906514.88,9236391354640848.0,5.883394245908453e+16
6.486222330124463,6337672031172705.0,1.1879101368062021e+17,1.159188702436963e+16,2.9656591348161868e+16,35585209618942.34,243596163455389.47,9615524543954384.0,6.131015735988726e+16
6.715946776726952,6361517789564727.0,1.2189863453102275e+17,1.1635502008347828e+16,2.976817594990066e+16,37003677791547.51,253307845168361.2,1.0002393910958042e+16,6.384073334929163e+16
6.950265712261491,6384137829520301.0,1.2506032770702594e+17,1.1676875098409828e+16,2.9874024911866164e+16,38450159644343.875,263211405342449.6,1.0397112224058202e+16,6.642651607818464e+16
7.18927102650672,6405596235443291.0,1.2827756914637045e+17,1.171612350774623e+16,2.9974438110140668e+16,39925087075988.81,273309801101741.38,1.0799797234519208e+16,6.906837917034333e+16
7.433056447036854,6425953676054153.0,1.3155184225587677e+17,1.175335820211372e+16,3.0069699437506516e+16,41428912030053.56,283606126706803.5,1.1210571694538684e+16,7.17672242069268e+16
7.681717575977592,6445267620298480.0,1.3488463951427866e+17,1.1788684294741516e+16,3.0160077813772764e+16,42962106315592.484,294103612353785.8,1.1629563403307008e+16,7.452398066348952e+16
7.935351927497144,6463592538740064.0,1.3827746397861027e+17,1.1822201414688412e+16,3.024582812817778e+16,44525161480254.09,304805623335289.44,1.2056905264197276e+16,7.733960584799109e+16
8.194058966047088,6480980089052769.0,1.417318307098566e+17,1.1854004046115788e+16,3.032719210738267e+16,46118588715875.945,315715659422699.9,1.2492735338449014e+16,8.021508488071778e+16
8.45794014536803,6497479285002438.0,1.4524926813039997e+17,1.1884181837362926e+16,3.040439910620556e+16,47742918778563.53,326837354344388.6,1.2937196885017552e+16,8.315143074368856e+16
8.72709894827539,6513136649216247.0,1.4883131932293062e+17,1.1912819880368944e+16,3.0477666822489276e+16,49398701909642.15,338174475265165.44,1.3390438381260154e+16,8.61496844124212e+16
9.0016409272409,6527996350826910.0,1.5247954327815414e+17,1.1939998962429986e+16,3.054720194119019e+16,51086507749124.63,349730922209251.9,1.3852613523723186e+16,8.921091507002554e+16
9.281673745785717,6542100329627098.0,1.5619551609690397e+17,1.1965795793282878e+16,3.0613200715341788e+16,52806925238340.86,361510727404098.8,1.4323881211808158e+16,9.23362203942016e+16
9.567307220701432,6555488408645794.0,1.5998083215115677e+17,1.1990283211012062e+16,3.067584949283897e+16,54560562512445.93,373518054550831.9,1.4804405519265188e+16,9.552672690233158e+16
9.85865336511546,6568198397095326.0,1.6383710520785965e+17,1.201353037034395e+16,3.07353251981625e+16,56348046786373.54,385757198046902.6,1.5294355659339224e+16,9.878359033808539e+16
10.155826432417769,6580266185497805.0,1.6776596951926483e+17,1.2035602916637218e+16,3.0791795777508316e+16,58170024239435.74,398232582197829.7,1.5793905949227476e+16,1.0210799608395675e+17
10.458942961066125,6591725834552124.0,1.7176908088349533e+17,1.2056563148424168e+16,3.0845420614626496e+16,60027159904376.55,410948760458917.4,1.630323577863098e+16,1.0550115958689829e+17
10.768121820287448,6602609659007413.0,1.758481176791689e+17,1.2076470170818798e+16,3.0896350923294388e+16,61920137566522.89,423910414746523.56,1.6822529585933688e+16,1.0896432678780147e+17
11.083484256693197,6612948307512413.0,1.8000478187800077e+17,1.209538004156471e+16,3.094473012096011e+16,63849659678018.86,437122354853628.5,1.7351976844200848e+16,1.1249877454923104e+17
11.405153941827061,6622770839141420.0,1.842408000393039e+17,1.2113345911004278e+16,3.0990694186835332e+16,65816447291202.47,450589517997838.75,1.7891772057959314e+16,1.1610581107907456e+17
11.733257020663602,6632104797071949.0,1.8855792429017837e+17,1.2130418156838268e+16,3.1034372006660068e+16,67821240014172.14,464316968522752.75,1.844211477072563e+16,1.1978677635034565e+17
12.067922161076874,6640976279711913.0,1.9295793329493734e+17,1.2146644514220532e+16,3.107588570553377e+16,69864795990610.92,478309897766718.7,1.900320958253646e+16,1.2354304251917746e+17
12.409280604298411,6649410009443104.0,1.9744263321696275e+17,1.2162070201492796e+16,3.111535096959206e+16,71947891905060.45,492573624106863.44,1.957526617630643e+16,1.2737601434411642e+17
12.75746621638438,6657429399056824.0,2.0201385867577258e+17,1.2176738041698356e+16,3.115287735688466e+16,74071323014102.55,507113593181192.5,2.0158499351656344e+16,1.3128712961028114e+17
13.112615540712067,6665056615900169.0,2.0667347370163782e+17,1.2190688579908356e+16,3.118856859754052e+16,76235903203322.73,521935378287507.94,2.0753129064861436e+16,1.3527785956193653e+17
13.474867851526309,6672312643719261.0,2.11423372689654e+17,1.220396019633585e+16,3.122252288315618e+16,78442465069485.53,537044680954927.7,2.1359380473712936e+16,1.3934970934670549e+17
13.844365208556836,6679217342172991.0,2.162654813547847e+17,1.2216589215188956e+16,3.1254833145283348e+16,80691860027045.25,552447331681693.44,2.1977483986303148e+16,1.4350421847412757e+17
14.221252512727972,6685789503990958.0,2.212017576890561e+17,1.2228610009215254e+16,3.1285587322892956e+16,82984958437916.02,568149290831694.0,2.2607675312995772e+16,1.4774296129069155e+17
14.605677562982532,6692046909758475.0,2.262341929218252e+17,1.2240055099905902e+16,3.131486861873486e+16,85322649763321.2,584156649681498.2,2.325019552109235e+16,1.5206754747288874e+17
14.997791114242183,6698006380325653.0,2.3136481248385e+17,1.225095525335418e+16,3.1342755744580012e+16,87705842736521.78,600475631609597.1,2.390529109192826e+16,1.5647962253931578e+17
15.397746936527026,6703683826854365.0,2.365956769757692e+17,1.2261339571793488e+16,3.1369323155408828e+16,90135465555254.6,617112593419869.0,2.4573213980317204e+16,1.6098086838242016e+17
15.805701875257567,6709094298534009.0,2.4192888314153334e+17,1.2271235580871556e+16,3.1394641272691344e+16,92612466092796.83,634074026791894.4,2.52542216764043e+16,1.6557300382014742e+17
16.221815912762718,6714252028013327.0,2.4736656484731082e+17,1.2280669312747212e+16,3.1418776696979564e+16,95137812126686.17,651366559851577.5,2.594857727008707e+16,1.7025778516750538e+17
16.64625223101797,6719170474609953.0,2.529108940664051e+17,1.2289665385122476e+16,3.144179241010108e+16,97712491584261.81,668996958856464.9,2.665654951822286e+16,1.7503700682790797e+17
17.079177275638333,6723862365371234.0,2.58564081870754e+17,1.2298247076344606e+16,3.1463747967298084e+16,100337512804333.22,686972129991152.4,2.7378412914870028e+16,1.799125019040745e+17
17.5207608211511,6728339734069027.0,2.6432837942963005e+17,1.2306436396729196e+16,3.1484699679698376e+16,103013904814427.86,705299121269147.4,2.8114447764812096e+16,1.8488614282823782e+17
17.97117603757412,6732613958217428.0,2.7020607901620157e+17,1.2314254156267306e+16,3.150470078753547e+16,105742717623203.95,723985124538486.2,2.886494026059955e+16,1.8995984201142016e+17
18.430599558325603,6736695794206113.0,2.7619951502266358e+17,1.2321720028885728e+16,3.1523801624550356e+16,108525022527735.8,743037477589195.0,2.9630182563316052e+16,1.9513555251158832e+17
18.899211549492115,6740595410642774.0,2.82311064984677e+17,1.2328852613431866e+16,3.154204977401371e+16,111361912435482.08,762463666361420.2,3.04104728872424e+16,2.0041526872054925e+17
19.37719578048196,6744322419997633.0,2.885431506158804e+17,1.2335669491552808e+16,3.1559490216802292e+16,114254502200834.78,782271327253576.2,3.1206115588555052e+16,2.0580102706951824e+17
19.864739696091597,6747885908639761.0,2.9489823885325165e+17,1.234218728263316e+16,3.157616547195049e+16,117203928976204.55,802468249530304.5,3.20174212581595e+16,2.1129490675336224e+17
20.36203449001343,6751294465351465.0,3.013788429140957e+17,1.2348421695949036e+16,3.1592115730080052e+16,120211352577649.39,823062377830302.6,3.2844706818726596e+16,2.1689903047358067e+17
20.869275179813698,6754556208401825.0,3.0798752336543616e+17,1.235438758018677e+16,3.160737898008764e+16,123277955865072.83,844061814774273.5,3.368829562596901e+16,2.2261556520015155e+17
21.38666068340997,6757678811255296.0,3.147268892065639e+17,1.2360098970465046e+16,3.1621991129445264e+16,126404945137033.23,865474823673275.2,3.4548517574171216e+16,2.284467229524167e+17
21.91439389707817,6760669526985678.0,3.215995989654902e+17,1.2365569132989168e+16,3.1635986118442976e+16,129593550540201.67,887309831337758.9,3.5425709205965596e+16,2.3439476159922906e+17
22.452681775019734,6763535211460396.0,3.2860836181002074e+17,1.2370810607456044e+16,3.164939602867696e+16,132845026493495.03,909575430987480.2,3.63202138263316e+16,2.4046198567861485e+17
23.00173541052013,6766282345354747.0,3.35755938674146e+17,1.237583524731931e+16,3.1662251186063136e+16,136160652126894.72,932280385262361.6,3.723238162078432e+16,2.4665074723723533e+17
23.561770118730532,6768917055051263.0,3.430451434004312e+17,1.2380654258015134e+16,3.1674580258633424e+16,139541731734938.14,955433629334219.6,3.8162569777710504e+16,2.5296344668995178e+17
24.133005521105144,6771445132474942.0,3.504788438990525e+17,1.2385278233241708e+16,3.168641034935274e+16,142989595244851.9,979044274119143.6,3.91111426148065e+16,2.5940253369981248e+17
24.715665631527248,6773872053911521.0,3.5805996332412064e+17,1.2389717189378776e+16,3.1697767084177156e+16,146505598699272.22,1003121609590164.4,4.007847170957131e+16,2.659705080787923e+17
25.309978944157795,6776202997852919.0,3.6579148126791475e+17,1.2393980598127656e+16,3.1708674695559936e+16,150091124753482.66,1027675108189721.0,4.106493603380833e+16,2.7266992070962288e+17
25.91617852304095,6778442861911290.0,3.7367643497363264e+17,1.2398077417447884e+16,3.171915610159927e+16,153747583187086.5,1052714428341380.5,4.207092209209309e+16,2.7950337448905267e+17
26.53450209350177,6780596278841186.0,3.8171792056725594e+17,1.2402016120862364e+16,3.1729232981012308e+16,157476411430020.12,1078249418060158.9,4.309682406416749e+16,2.864735252928824e+17
27.165192135371807,6782667631707418.0,3.8991909430913146e+17,1.2405804725200148e+16,3.1738925844111852e+16,161279075102812.72,1104290118660833.6,4.41430439512268e+16,2.9358308296312154e+17
27.808495978079243,6784661068235061.0,3.9828317386585126e+17,1.2409450816843178e+16,3.174825409995572e+16,165157068571000.38,1130846768563587.5,4.52099917260722e+16,3.008348123176104e+17
28.464665897640828,6786580514376746.0,4.068134396030249e+17,1.241296157654149e+16,3.1757236119833748e+16,169111915513605.97,1157929807196424.2,4.629808548710677e+16,3.0823153418245594e+17
29.133959215593645,6788429687131601.0,4.1551323589953344e+17,1.241634380285966e+16,3.17658892972529e+16,173145169505609.9,1185549878993855.5,4.740775161616112e+16,3.157761264476287e+17
29.816638399905518,6790212106649416.0,4.2438597248386003e+17,1.2419603934315786e+16,3.177423010457741e+16,177258414614353.4,1213717837491448.5,4.853942494014071e+16,3.234715251460707e+17
30.51297116790363,6791931107652709.0,4.334351257930904e+17,1.2422748070273052e+16,3.1782274146477544e+16,181453266009830.06,1242444749515986.8,4.9693548896494424e+16,3.313207255566669e+17
31.223230591261704,6793589850209031.0,4.426642403551937e+17,1.2425781990642648e+16,3.179003621033744e+16,185731370588844.72,1271741899471102.5,5.087057570251034e+16,3.3932678333143443e+17
31.947695203086937,6795191329884792.0,4.520769301951806e+17,1.2428711174455702e+16,3.1797530313769228e+16,190094407613042.97,1301620793718413.5,5.207096652845121e+16,3.4749281564728826e+17
32.686649107148675,6796738387311495.0,4.6167688026576685e+17,1.243154081736025e+16,3.180476974937729e+16,194544089360833.8,1332093165054372.0,5.329519167454911e+16,3.5582200238275366e+17
33.44038208929165,6798233717194313.0,4.714678479031532e+17,1.2434275848098364e+16,3.1811767126913204e+16,199082161793255.94,1363170977283163.0,5.454373075188396e+16,3.6431758731998675e+17
34.20918973107749,6799679876792215.0,4.8145366430855635e+17,1.24369209440167e+16,3.1818534412957684e+16,203710405233861.53,1394866429886197.8,5.581707286717644e+16,3.7298287937249344e+17
34.993373525699035,6801079293898014.0,4.916382360561252e+17,1.2439480545662328e+16,3.1825082968262652e+16,208430635062713.78,1427191962788895.0,5.7115716811532056e+16,3.818212538389185e+17
35.793240996213015,6802434274345663.0,5.020255466278839e+17,1.2441958870513958e+16,3.183142358288095e+16,213244702424621.47,1460160261225588.8,5.844017125317722e+16,3.90836153683316e+17
36.60910581613728,6803747009071346.0,5.126196579763534e+17,1.2444359925896962e+16,3.1837566509208156e+16,218154494951751.84,1493784260703598.2,5.979095493423322e+16,4.000310908422886e+17
37.44128793246003,6805019580753685.0,5.234247121155084e+17,1.244668752112864e+16,3.1843521493054976e+16,223161937500786.72,1528077152067580.2,6.116859687157907e+16,4.094096475594237e+17
