t(s),Total solute volume 1,Total retention volume 1,Total 1 volume 1,Total 2 volume 1,Total 3 volume 1,Total 4 volume 1,Total 5 volume 1,Total 6 volume 1
0.1,1343181032126672.5,2872917611672401.5,563076449980376.4,966660129565354.2,0.0,0.0,0.0,-1.5603494592410886e-89
0.202,2016536490351987.8,4313750406122179.0,845354594309142.8,1451260731510538.2,109783103.77608262,412099155.27795607,16115380578.722378,581952687673.4436
0.30604000000000003,2530988408134487.0,5415041929966694.0,1061018582117508.6,1821501465858712.2,278335092.7778686,1044819378.5231317,40894627509.59412,1491256074007.0588
0.41216080000000005,2966335298769425.5,6347402885326112.0,1243520857732627.8,2134811882277736.8,494221350.7792568,1855229305.6990037,72640547560.24684,2659856548107.4785
0.5204040160000001,3352970220418307.5,7175811125938617.0,1405602531780131.8,2413065268072586.5,752343041.3045795,2824187506.7017856,110601034231.88606,4058928102812.6094
0.6308120963200001,3706092015870789.0,7932759661077666.0,1553635129125233.8,2667199928383748.0,1049959882.350612,3941406931.8466744,154372298729.04276,5673224032351.947
0.7434283382464002,4034547875363503.0,8637162732985443.0,1691327490764754.2,2903583009379808.5,1385501489.2606752,5200992371.713005,203723011861.51608,7494047971654.689
0.8582969050113283,4344010016615516.0,9301147538350950.0,1821057473714177.0,3126296692632099.5,1758078219.3744006,6599604117.318663,258522124909.86697,9516475581923.19
0.9754628431115548,4638367208777171.0,9933029161434170.0,1944455293420380.5,3338139647365397.0,2167239985.0860786,8135552535.482083,318703316551.13617,11738005762142.89
1.094972099973786,4920420381526704.0,1.0538797644181e+16,2062695130872645.2,3541127646490307.5,2612842622.2769823,9808296415.600008,384245304622.0967,14157818847686.834
1.2168715419732616,5192264878975576.0,1.1122935129512212e+16,2176655377711440.0,3736768667113892.5,3094967562.1457973,11618141419.15189,455160014840.37305,16776332587484.209
1.3412089728127268,5455516064697498.0,1.1688898115516108e+16,2287013212376806.5,3926225253970184.5,3613870562.85638,13566047619.918846,531485031172.01794,19594919522252.992
1.4680331522689813,5711450126832064.0,1.2239418428616986e+16,2394303627180342.5,4110415854035498.5,4169947466.002308,15653500955.148748,613278553930.4532,22615718566728.24
1.597393815314361,5961096002139517.0,1.277669970534553e+16,2498957963895438.5,4290080972429465.0,4763710506.238489,17882424293.041058,700615912041.6339,25841504834270.15
1.729341691620648,6205297652477658.0,1.3302550499922362e+16,2601330020751696.0,4465827991547188.0,5395771467.735428,20255114202.96416,793587083497.5946,29275597176639.836
1.863928525453061,6444757585595168.0,1.3818477301550922e+16,2701714296837320.0,4638162492101368.0,6066829453.723246,22774195043.017094,892294895008.7162,32921791097551.895
2.001207095962122,6680068082265462.0,1.4325751275028748e+16,2800359082862256.5,4807510726664124.0,6777661864.896586,25442585093.499767,996853694064.7787,36784309295880.695
2.1412312378813647,6911734117536720.0,1.482545724891879e+16,2897476070002064.0,4974236115630676.0,7529117672.032393,28263471302.738888,1107388358726.3713,40867764801635.96
2.284055862638992,7140190521455157.0,1.531853039205159e+16,2993247543864605.0,5138651597447313.0,8322112368.762373,31240290340.117855,1224033554736.7112,45177133327055.83
2.4297369798917723,7365815052185410.0,1.5805784154170902e+16,3087831864888067.5,5301029037073747.0,9157624181.347805,34376714367.81945,1346933177656.2725,49717732507467.086
2.578331719489608,7588938509594222.0,1.6287931881850248e+16,3181367708068132.0,5461606504526159.0,10036691237.16149,37676640411.49439,1476239936106.9963,54495206393988.51
2.7298983538794,7809852667379012.0,1.6765603772702138e+16,3273977388194750.5,5620593983470815.0,10960409477.36757,41144182524.600586,1612115044548.9453,59515514021011.79
2.884496320956988,8028816571344164.0,1.7239360338258432e+16,3365769500159902.5,5778177903967061.0,11929931156.808113,44783666157.07748,1754728002480.376,64784921187509.17
3.0421862473761276,8246061596240463.0,1.770970321419807e+16,3456841038841093.0,5934524781773020.0,12946463814.397728,48599624290.27389,1904256442883.793,70309994812503.2
3.2030299723236504,8461795546985842.0,1.8177083928760896e+16,3547279118378877.5,6089784169911787.0,14011269626.06996,52596795007.9509,2060886036971.8765,76097599382798.64
3.3670905717701234,8676206015535689.0,1.8641911080849724e+16,3637162379414364.0,6244091074543574.0,15125665073.162622,56780120251.41686,2224810445355.193,82154895125413.11
3.5344323832055258,8889463151674523.0,1.910455626605498e+16,3726562150635960.5,6397567949048775.0,16291020874.468277,61154745564.44477,2396231308011.676,88489337621257.23
3.7051210308696363,9101721967761230.0,1.9565359007111724e+16,3815543414954372.0,6550326352706824.0,17508762141.621773,65726020676.57933,2575358267122.453,95108678639347.44
3.879223451487029,9313124269490108.0,2.002463088552113e+16,3904165618899090.0,6702468340226084.0,18780368726.142036,70499500805.89996,2762409018111.176,102020968018199.92
4.0568079205167695,9523800284012538.0,2.0482659026794916e+16,3992483355145249.0,6854087633470370.0,20107375733.051243,75480948587.10313,2957609385196.2676,109234556457236.47
4.237944078927105,9733870041242006.0,2.093970905860866e+16,4080546941572054.0,7005270615556336.0,21491374181.09749,80676336549.92432,3161193418516.6123,116758099108981.86
4.422702960505647,9943444552408702.0,2.139602763602727e+16,4168402915326033.0,7156097179035576.0,22934011793.586098,86091850087.85248,3373403510476.7656,124600559884603.45
4.61115701971576,1.0152626820938324e+16,2.1851844608751496e+16,4256094456592719.5,7306641453403764.0,24436993906.95853,91733890868.86263,3594490529419.079,132771216402499.62
4.803380160110075,1.0361512713788262e+16,2.2307374890500064e+16,4343661753870497.0,7456972432183829.0,26002084486.744568,97609080649.21999,3824713969096.084,141279665523257.6
4.9994477633122765,1.0570191715969066e+16,2.2762820079093988e+16,4431142320274424.0,7607154515939874.0,27631107242.507996,103724265458.89648,4064342112709.975,150135829425197.72
5.199436718578522,1.0778747586736672e+16,2.3218369866742424e+16,4518571268619305.0,7757247984525450.0,29325946835.01135,110086520133.17177,4313652210522.3154,159349962183514.1
5.403425452950093,1.0987258932585018e+16,2.3674203272861424e+16,4605981551624672.0,7907309409455002.0,31088550170.134113,116703153169.90257,4572930670229.874,168932656823181.75
5.611493962009095,1.1195799709496822e+16,2.4130489726044932e+16,4693404172463843.0,8057392015363503.0,32920927775.14936,123581711895.95567,4842473259459.569,178894852821639.06
5.823723841249277,1.1404439664765994e+16,2.4587390017229176e+16,4780868369980796.0,8207545997977261.0,34825155253.84485,130729987929.62181,5122585319865.99,189247844042092.2
6.040198318074262,1.1613244726977034e+16,2.504505714239759e+16,4868401782173933.0,8357818804774160.0,36803374817.70991,138156022928.5738,5413581992422.182,200003287082299.8
6.261002284435747,1.1822277351322418e+16,2.5503637050173256e+16,4956030590956995.0,8508255383501737.0,38857796891.02045,145868114615.23105,5715788453585.119,211173210027026.2
6.486222330124463,1.2031596826293634e+16,2.5963269307199516e+16,5043779650727282.0,8658898402896459.0,40990701788.16979,153874823073.3341,6029540162092.702,222770021595194.34
6.715946776726952,1.2241259546840888e+16,2.6424087692199776e+16,5131672602877332.0,8809788449271416.0,43204441462.02939,162184977311.15848,6355183116213.501,234806520675135.56
6.950265712261491,1.2451319258321644e+16,2.688622072795162e+16,5219731978060852.0,8960964202081039.0,45501441322.49536,170807682088.20166,6693074121325.117,247295906243375.2
7.18927102650672,1.2661827274914856e+16,2.734979215903774e+16,5307979287754374.0,9112462591109512.0,47884202124.69496,179752325003.3709,7043581067743.783,260251787664125.94
7.433056447036854,1.2872832675643084e+16,2.781492138209165e+16,5396435106431940.0,9264318937543928.0,50355301926.60213,189028583843.72675,7407083218768.719,273688195368188.44
7.681717575977592,1.3084382480697306e+16,2.8281723834303816e+16,5485119145482421.0,9416567080871644.0,52917398116.04982,198646434193.73972,7783971508939.171,287619591911229.94
7.935351927497144,1.3296521810383438e+16,2.8750311345148156e+16,5574050319841664.0,9569239493271096.0,55573229507.33709,208616157305.80063,8174648852533.606,302060883412590.7
8.194058966047088,1.3509294028693422e+16,2.9220792455615184e+16,5663246808179102.0,9722367382936772.0,58325618507.809044,218948348233.40393,8579530462366.951,317027431376745.6
8.45794014536803,1.3722740873234932e+16,2.9693272708664976e+16,5752726107365796.0,9875980787587232.0,61177473354.95356,229653924229.0515,8999044178965.756,332535064900453.1
8.72709894827539,1.393690257302779e+16,3.016785491412769e+16,5842505081855836.0,1.0030108659240578e+16,64131790424.70202,240744133409.45126,9433630810222.863,348600093269421.94
9.0016409272409,1.415181795547921e+16,3.064463939086478e+16,5932600008531788.0,1.018477894120276e+16,67191656611.75222,252230563691.07803,9883744481651.893,365239318949016.75
9.281673745785717,1.4367524543686944e+16,3.1123724188651668e+16,6023026617495057.0,1.0340018638094258e+16,70360251782.84543,264125151999.60748,10349852997379.09,382470050974194.3
9.567307220701432,1.4584058645074168e+16,3.160520529193753e+16,6113800129222734.0,1.0495853879639074e+16,73640851304.04117,276440193757.1329,10832438212026.082,400310118744431.0
9.85865336511546,1.4801455432240594e+16,3.208917680737859e+16,6204935288461288.0,1.0652309978851778e+16,77036828643.12671,289188352651.43243,11331996413651.111,418777886229941.6
10.155826432417769,1.5019749016806988e+16,3.25757311368141e+16,6296446395182918.0,1.0809411485181596e+16,80551658048.38855,302382670691.8944,11849038717929.656,437892266595976.6
10.458942961066125,1.5238972516939106e+16,3.306495913716189e+16,6388347332892468.0,1.0967182233108212e+16,84188917305.05681,316036578557.02875,12384091473767.295,457672737252464.7
10.768121820287448,1.5459158119159036e+16,3.355695026853858e+16,6480651594539290.0,1.1125645386626204e+16,87952290570.80945,330163906238.7635,12937696680549.373,478139355336638.6
11.083484256693197,1.5680337134981474e+16,3.405179273176562e+16,6573372306259924.0,1.128482348000491e+16,91845571291.79572,344778893989.00226,13510412417242.303,499312773636767.2
11.405153941827061,1.5902540052853484e+16,3.454957359629161e+16,6666522249151812.0,1.1444738455168574e+16,95872665200.70456,359896203574.18414,14102813283571.38,521214256965386.5
11.733257020663602,1.6125796585823646e+16,3.5050378919450524e+16,6760113879256606.0,1.160541169600264e+16,100037593398.47037,375530929843.8078,14715490853509.436,543865698990866.2
12.067922161076874,1.6350135715319562e+16,3.5554293857877656e+16,6854159345912378.0,1.1766864059859826e+16,104344495521.26358,391698612619.12695,15349054141319.496,567289639536430.9
12.409280604298411,1.6575585731373796e+16,3.6061402771818536e+16,6948670508616654.0,1.19291159065097e+16,108797632994.48141,408415248908.4079,16004130080403.477,591509282356095.9
12.75746621638438,1.6802174269601238e+16,3.657178932299005e+16,7043658952527776.0,1.2092187124750692e+16,113401392375.49313,425697305455.4138,16681364015215.975,616548513397293.6
13.112615540712067,1.7029928345200742e+16,3.708553656658691e+16,7139136002718740.0,1.225609715688027e+16,118160288786.96442,443561731627.8828,17381420206511.824,642431919560212.9
13.474867851526309,1.725887438422493e+16,3.760272703796683e+16,7235112737285938.0,1.2420865021199392e+16,123078969442.62294,462025972653.0542,18104982350201.37,669184807964247.9
13.844365208556836,1.7489038252339184e+16,3.81234428344965e+16,7331599999405129.0,1.2586509332709484e+16,128162217267.38547,481107983207.40643,18852754110096.656,696833225732118.6
14.221252512727972,1.7720445281266966e+16,3.864776569299289e+16,7428608408417677.0,1.2753048322144864e+16,133414954613.80486,500826241367.9879,19625459664837.38,725403980302592.2
14.605677562982532,1.7953120293101246e+16,3.917577706315452e+16,7526148370022149.0,1.292049985346899e+16,138842247076.84952,521199762932.88513,20423844269292.508,754924660282906.0
14.997791114242183,1.8187087622642916e+16,3.970755817733962e+16,7624230085638896.0,1.3088881439951196e+16,144449307409.06808,542248116118.53827,21248674830740.625,785423656852300.2
15.397746936527026,1.842237113791351e+16,4.02431901170162e+16,7722863561009105.0,1.3258210258929018e+16,150241499538.23523,563991436641.754,22100740500136.76,816930185728314.8
15.805701875257567,1.8658994258973256e+16,4.078275387618067e+16,7822058614083627.0,1.3428503165351476e+16,156224342689.61475,586450443194.4692,22980853278782.766,849474309707663.4
16.221815912762718,1.889697997516658e+16,4.1326330422012344e+16,7921824882252408.0,1.359977670418991e+16,162403515615.0218,609646453319.4314,23889848640719.35,883086961793849.6
16.64625223101797,1.913635086090228e+16,4.187400075301274e+16,8022171828959793.0,1.3772047121795118e+16,168784860930.8991,633601399695.1111,24828586171169.8,917799968923785.6
17.079177275638333,1.9377129090069564e+16,4.242584595485316e+16,8123108749747841.0,1.3945330376271974e+16,175374389567.6638,658337846838.3246,25797950221364.86,953646076306026.9
17.5207608211511,1.9619336449179068e+16,4.29819472541382e+16,8224644777765212.0,1.4119642146936868e+16,182178285332.6204,683879008233.1917,26798850580089.18,990658972383301.9
17.97117603757412,1.986299434931235e+16,4.354238607027437e+16,8326788888776445.0,1.429499784291742e+16,189202909588.7635,710248763895.1296,27832223162290.797,1028873314432362.2
18.430599558325603,2.0108123836953852e+16,4.410724406561894e+16,8429549905703033.0,1.4471412610948206e+16,196454806051.83728,737471678378.8021,28899030715102.84,1068324754814278.2
18.899211549492115,2.0354745603775852e+16,4.467660319406859e+16,8532936502725100.0,1.4648901342412648e+16,203940705708.0495,765573019238.9869,30000263541630.72,1109049967888558.8
19.37719578048196,2.0602879995437436e+16,4.52505457482386e+16,8636957208970355.0,1.482747867967554e+16,211667531854.8688,794578775953.5042,31136940242862.766,1151086677604613.8
19.864739696091597,2.0852547019456684e+16,4.582915440536604e+16,8741620411813924.0,1.5007159021748384e+16,219642405267.363,824515679317.4344,32310108478067.22,1194473685784353.5
20.36203449001343,2.1103766352207804e+16,4.641251227206938e+16,8846934359811722.0,1.5187956529325208e+16,227872649492.5736,855411221317.9775,33520845744042.633,1239250901109715.5
20.869275179813698,2.1356557345091704e+16,4.700070292807718e+16,8952907165287312.0,1.536988512922344e+16,236365796274.44525,887293675499.4231,34770260173592.883,1285459368829346.8
21.38666068340997,2.161093902992532e+16,4.759381046903976e+16,9059546806591022.0,1.555295851826234e+16,245129591111.84995,920192117827.7528,36059491353603.14,1333141301198548.0
21.91439389707817,2.186693012358962e+16,4.819191954852353e+16,9166861130048628.0,1.5737190166608188e+16,254171998952.29132,954136448064.5885,37389711163094.76,1382340108666919.8
22.452681775019734,2.2124549031974384e+16,4.879511541928413e+16,9274857851614818.0,1.5922593320613234e+16,263501210023.86896,989157411660.1919,38762124631643.1,1433100431828296.5
23.00173541052013,2.238381385325466e+16,4.940348397390921e+16,9383544558246838.0,1.6109181005173638e+16,273125645808.14008,1025286622175.3615,40177970818543.79,1485468174147579.2
23.561770118730532,2.264474238052966e+16,5.001711178491123e+16,9492928709010910.0,1.6296966025628904e+16,283053965156.5011,1062556584242.141,41638523713117.97,1539490535479301.5
24.133005521105144,2.290735210385587e+16,5.063608614435187e+16,9603017635934182.0,1.648596096922473e+16,293295070552.7665,1101000717073.3242,43145093156546.24,1595216046392893.8
24.715665631527248,2.3171660211699372e+16,5.12604951030698e+16,9713818544613860.0,1.667617820615821e+16,303858114524.6033,1140653378530.8188,44699025785630.21,1652694603319658.0
25.309978944157795,2.3437683591833804e+16,5.18904275095833e+16,9825338514593504.0,1.6867629890224504e+16,314752506206.5368,1181549889762.94,46301705998875.49,1711977504536599.5
25.91617852304095,2.3705438831707548e+16,5.252597304873134e+16,9937584499516968.0,1.7060327959080688e+16,325987918057.21234,1223726560420.8691,47954556945296.51,1773117487002380.0
26.53450209350177,2.397494221830145e+16,5.316722228011781e+16,1.0050563327068696e+16,1.725428413414329e+16,337574292733.64417,1267220714464.3816,49659041536344.93,1836168764060709.0
27.165192135371807,2.4246209737496852e+16,5.38142666764147e+16,1.0164281698709128e+16,1.744950992013408e+16,349521850125.1795,1312070716567.2087,51416663481364.04,1901187064026568.0
27.808495978079243,2.4519257072974416e+16,5.44671986615851e+16,1.0278746189212516e+16,1.7646016604286866e+16,361841094549.90485,1358315999132.1736,53228968346970.914,1968229669670677.2
28.464665897640828,2.4794099604659316e+16,5.512611164907464e+16,1.0393963246015662e+16,1.784381525522894e+16,374542822116.2477,1405997089926.4834,55097544640773.71,2037355458617813.5
29.133959215593645,2.507075240673071e+16,5.579110008002487e+16,1.0509939188383004e+16,1.804291672154839e+16,387638128252.49304,1455155640347.4346,57024024919826.01,2108624944674353.0
29.816638399905518,2.5349230245209764e+16,5.6462259461558776e+16,1.0626680206396004e+16,1.8243331630058304e+16,401138415406.9859,1505834454328.8123,59010086924225.18,2182100320100738.8
30.51297116790363,2.5629547575142044e+16,5.7139686405182024e+16,1.0744192359771444e+16,1.8445070383769016e+16,415055400921.733,1558077517898.2942,61057454736256.734,2257845498844318.5
31.223230591261704,2.5911718537386296e+16,5.782347866534712e+16,1.086248157651565e+16,1.8648143159577068e+16,429401125082.14996,1611930029396.1062,63167899965490.305,2335926160748168.5
31.947695203086937,2.6195756955023812e+16,5.851373517822506e+16,1.0981553651419014e+16,1.8852559905680956e+16,444187959345.678,1667438430365.1294,65343242960229.23,2416409796751350.5
32.686649107148675,2.648167632939986e+16,5.921055610072261e+16,1.1101414244396656e+16,1.905833033873237e+16,459428614751.96747,1724650437122.7092,67585354045711.74,2499365755096135.5
33.44038208929165,2.6769489835808644e+16,5.9914042849789416e+16,1.1222068878679482e+16,1.9265463940730788e+16,475136150517.34875,1783615073024.2021,69896154789465.336,2584865288557620.5
34.20918973107749,2.705921031883346e+16,6.062429814205316e+16,1.1343522938860626e+16,1.947396995566971e+16,491323982816.24713,1844382701428.3914,72277619294208.89,2672981602710949.5
34.993373525699035,2.7350850287351736e+16,6.1341426033818984e+16,1.1465781668801688e+16,1.9683857385942172e+16,508005893752.2136,1907005059374.6875,74731775518694.14,2763789905251578.0
35.793240996213015,2.7644421909216004e+16,6.206553196147392e+16,1.1588850169402768e+16,1.989513498851229e+16,525196040521.1842,1971535291982.0586,77260706626875.45,2857367456383502.5
36.60910581613728,2.7939937005619628e+16,6.279672278232977e+16,1.171273339624061e+16,2.010781127086078e+16,542908964769.593,2038027987579.369,79866552365794.12,2953793620290636.5
37.44128793246003,2.823740704515735e+16,6.353510681594084e+16,1.1837436157078726e+16,2.0321894486710372e+16,561159602149.8947,2106539213576.8481,82551510472556.02,3053149917705981.5
38.29011369110923,2.8536843137589824e+16,6.4280793885930744e+16,1.196296310925328e+16,2.0537392631538292e+16,579963292076.0189,2177126553088.1763,85317838110775.28,3155520079593430.5
39.15591596493141,2.8838256027320756e+16,6.5033895362364584e+16,1.2089318756938876e+16,2.0754313437881656e+16,599335787681.2733,2249849142312.502,88167853336854.92,3260990101956559.0
40.03903428423004,2.914165608659567e+16,6.579452420469579e+16,1.2216507448297184e+16,2.0972664370443224e+16,619293265981.1127,2324767708685.6396,91103936596465.75,3369648301788606.5
40.93981496991464,2.94470533084314e+16,6.656279500532404e+16,1.2344533372512966e+16,2.119245262100219e+16,639852338243.1979,2401944609809.3984,94128532251578.86,3481585374177845.0
