t(s),Total solute volume 1,Total retention volume 1,Total 1 volume 1,Total 2 volume 1,Total 3 volume 1,Total 4 volume 1,Total 5 volume 1,Total 6 volume 1
0.1,803801399340899.0,888695292650996.4,42833262785020.44,42060630525076.21,0.0,0.0,0.0,0.0
0.202,1211234754579391.2,1339161030937132.8,64544720410828.69,63380454036231.71,3336167.1904513235,5303554.278741522,57896173.06484509,1035374783.4098504
0.30604000000000003,1521493083206517.5,1682189144761883.5,81077879659835.31,79615385944222.22,8465042.970080756,13457004.504895424,146903297.1597069,2627125963.898209
0.41216080000000005,1783918586166945.0,1972333021206920.2,95062105803720.23,93347362737609.4,15036582.28416018,23903878.607600227,260946600.77958882,4666611583.327736
0.5204040160000001,2016969843168775.8,2230000700977594.2,107481026388972.7,105542269162585.94,22895485.56848502,36397294.53454296,397330989.49863756,7105633487.145701
0.6308120963200001,2229841463414604.5,2465357859097797.5,118824607112885.98,116681232850599.05,31958472.260328315,50804859.93634086,554611199.8924683,9918345182.070965
0.7434283382464002,2427876930651079.5,2684312318347187.5,129377593491095.53,127043863039791.52,42177946.54609512,67050911.047987044,731961247.3279012,13089975117.850302
0.8582969050113283,2614499165382886.0,2890648503856194.0,139322387362932.36,136809271380744.95,53527071.60191525,85092784.98304938,928915401.7650537,16612194379.702448
0.9754628431115548,2792053674177560.5,3086959639625050.5,148783976939903.9,146100191530864.97,65992416.430827245,104909130.2999797,1145240579.8106947,20480834597.309513
1.094972099973786,2962229337416753.0,3275112976642510.5,157852359897248.03,155004997775250.22,79569884.11172727,126493434.07832837,1380865682.9391136,24694624259.666363
1.2168715419732616,3126289399027689.5,3456505177907295.0,166594852439200.5,163589792059405.8,94262265.39354694,149850132.83076543,1635839142.2092242,29254429463.84802
1.3412089728127268,3285207695918939.0,3632212935289535.5,175063348742978.2,171905532486405.25,110077678.08720526,174992131.58113992,1910301835.2500198,34162769574.922413
1.4680331522689813,3439753635710312.5,3803086921882734.5,183298849283118.5,179992479958713.22,127028525.29227984,201939147.74188992,2204469007.1800747,39423493908.23024
1.597393815314361,3590547650940840.5,3969813102798204.5,191334415895587.2,187883099938453.53,145130775.19264197,230716566.19445452,2518617772.0812774,45041558211.74214
1.729341691620648,3738098755593821.0,4132954258072706.5,199197173103619.1,195604027673060.1,164403449.47425744,261354626.01947492,2853078234.931316,51022865895.008896
1.863928525453061,3882830783747514.5,4292978992404960.5,206909706332527.66,203177441188906.12,184868252.30874676,293887830.6864916,3208227052.934225,57374152883.14094
2.001207095962122,4025101212223763.0,4450282545691177.5,214491064939353.03,210622046231321.97,206549297.17232898,328354514.1346882,3584482762.764473,64102910160.87558
2.1412312378813647,4165214974271250.5,4605202065526007.0,221957498315506.12,217953799076497.44,229472903.37263548,364796515.8678944,3982301977.575908,71217291357.49843
2.284055862638992,4303434799956489.5,4758028039731006.0,229323006918394.2,225186447643085.9,253667444.2605498,403258941.8134996,4402177160.243428,78726109491.08278
2.4297369798917723,4439989092661748.0,4909013004640207.0,236599761990952.47,232331943627499.78,279163233.34386396,443789981.83770967,4844634375.582773,86638772411.96414
2.578331719489608,4575078021831687.0,5058378281321281.0,243798430235725.72,239400761324862.84,305992439.8983079,486440775.9505918,5310231893.670749,94965263912.03609
2.7298983538794,4708878301200665.0,5206319258437513.0,250928428438794.84,246402147659998.47,334189027.2788479,531265316.23872554,5799559119.291792,103716124579.51999
2.884496320956988,4841546982615966.0,5353009586742881.0,257998125636414.12,253344320707354.72,363788709.2008555,578320377.3648485,6313235833.236587,112902438230.677
3.0421862473761276,4973224501990858.0,5498604546725645.0,265015005428869.8,260234629077026.9,394828920.4430969,627665469.9940635,6851911683.878678,122535822817.37207
3.2030299723236504,5104037149644056.0,5643243779847951.0,271985797620836.1,267079681180565.03,427348799.2999056,679362812.8979292,7416265882.648282,132628424981.03244
3.3670905717701234,5234099092336345.0,5787053524138301.0,278916585972399.0,273885451038370.28,461389179.7448142,733477320.4969894,8007007068.040099,143192917620.58536
3.5344323832055258,5363514042367999.0,5930148459571826.0,285812897142533.0,280657365618796.2,496992591.7352265,790076603.3452749,8624873310.901983,154242499986.99405
3.7051210308696363,5492376646053294.0,6072633243191397.0,292679774678630.56,287400377493049.44,534203268.4364689,849230979.6145979,9270632239.803505,165790899925.23502
3.879223451487029,5620773647030673.0,6214603795285873.0,299521841007412.9,294119025707892.2,573067159.4069813,911013496.055427,9945081269.855057,177852377966.3379
4.0568079205167695,5748784867384756.0,6356148384139871.0,306343349717307.25,300817487124951.2,613631948.9878802,975499957.2312028,10649047921.84443,190441733034.6142
4.237944078927105,5876484040202145.0,6497348546527956.0,313148229923986.9,307499619985980.9,655947079.2957472,1042768962.0704805,11383390221.258331,203574309583.5036
4.422702960505647,6003939520101104.0,6638279873296201.0,319940124133339.0,314169001092857.94,700063777.3389311,1112901946.9743042,12148997168.864239,217266006011.17197
4.61115701971576,6131214892858061.0,6779012683384949.0,326722420727464.7,320828957707589.9,746035085.8734093,1185983234.8684182,12946789276.1891,231533284236.68506
4.803380160110075,6258369501072510.0,6919612605023350.0,333498281976502.0,327482595058857.0,793915897.6903208,1262100089.7108665,13777719160.551752,246393180341.2106
4.9994477633122765,6385458899556198.0,7060141079227157.0,340270668305567.25,334132820171232.9,843762993.0882831,1341342776.0625076,14642772195.364628,261863316197.62817
5.199436718578522,6512535251577460.0,7200655797905882.0,347042359409975.5,340782362599509.8,895635080.3329887,1423804623.4064465,15542967212.277353,277961912027.24835
5.403425452950093,6639647675070476.0,7341211086651512.0,353815972704160.2,347433792544848.94,949592838.9466926,1509582094.9662204,16479357252.430597,294707799834.7917
5.611493962009095,6766842546309939.0,7481858240501017.0,360593979504000.1,354089536745200.0,1005698965.7032849,1598774860.825091,17453030364.663387,312120437683.05664
5.823723841249277,6894163767261025.0,7622645819538804.0,367378719273467.56,360751892464969.06,1064018223.2319162,1691485875.1922112,18465110448.989513,330219924777.1578
6.040198318074262,7021653001773409.0,7763619910053218.0,374172412211013.4,367423039854367.2,1124617491.1549356,1787821457.697635,19516758144.054844,349027017335.29205
6.261002284435747,7149349884942768.0,7904824356027767.0,380977170406109.25,374105052904712.44,1187565819.7050297,1887891378.6285615,20609171757.61958,368563145228.93164
6.486222330124463,7277292209273861.0,8046300964984286.0,387795007759563.3,380799909189799.25,1252934485.7826407,1991808948.044959,21743588239.388912,388850429380.3649
6.715946776726952,7405516090712550.0,8188089691569818.0,394627848831101.9,387509498553885.25,1320797051.4285333,2099691108.734581,22921284195.75751,409911699909.78516
6.950265712261491,7534056117147859.0,8330228801762975.0,401477536752802.4,394235630882382.9,1391229424.6983316,2211658532.986448,24143576946.237392,431770515027.8261
7.18927102650672,7662945481598230.0,8472755020147641.0,408345840326363.25,400980043071109.0,1464309922.9359741,2327835723.1779914,25411825621.518227,454451180672.63043
7.433056447036854,7792216101973738.0,8615703662345535.0,415234460405049.6,407744405293104.94,1540119338.4521997,2448351116.1854315,26727432303.263718,477978770893.3014
7.681717575977592,7921898729037200.0,8759108754402271.0,422145035646748.94,414530326647930.6,1618741006.6219618,2573337191.6396527,28091843205.887753,502379148984.08374
7.935351927497144,8052023043960796.0,8903003140670670.0,429079147712617.56,421339360266522.7,1700260876.4216619,2702930584.060762,29506549900.671337,527678989375.7585
8.194058966047088,8182617746684278.0,9047418581525200.0,436038325975537.06,428173007934728.3,1784767583.4335737,2837272198.9146266,30973090582.69525,553905800292.7206
8.45794014536803,8313710636119783.0,9192385842062496.0,443024051794099.56,435032724290195.75,1872352525.3502173,2976507332.64382,32493051381.158165,581087947185.9246
8.72709894827539,8445328683111250.0,9337934772792276.0,450037762400496.06,441919920640128.25,1963109940.0168526,3120785796.7334404,34068067713.741585,609254676953.5604
9.0016409272409,8577498096939640.0,9484094383193082.0,457080854444475.06,448835968441314.75,2057136986.0549192,3270262045.879815,35699825685.76506,638436142962.7063
9.281673745785717,8710244386066036.0,9630892908898470.0,464154687230234.94,455782202478645.75,2154533826.113638,3425095310.3373785,37390063534.950775,668663430886.6504
9.567307220701432,8843592413718265.0,9778357873182540.0,471260585678550.6,462759923773792.5,2255403712.801053,3585449732.525061,39140573122.68891,699968585373.7927
9.85865336511546,8977566448853937.0,9926516143335056.0,478399843042507.4,469770402251968.4,2359853077.349854,3751494507.980262,40953201472.761765,732384637565.2642
10.155826432417769,9112190212968926.0,1.0075393982443558e+16,485573723401848.4,476814879191278.44,2467991621.0767107,3923404030.7537255,42829852358.54822,765945633479.5562
10.458942961066125,9247486923165394.0,1.0225017097041412e+16,492783463958001.7,483894569476341.9,2579932409.697601,4101358043.3445973,44772487939.79098,800686663283.4724
10.768121820287448,9383479331845936.0,1.0375410681026318e+16,500030277149318.06,491010663675383.6,2695791970.564787,4285541791.2803006,46783130450.06762,836643891469.8546
11.083484256693197,9520189763359114.0,1.0526599456209186e+16,507315352603840.4,498164329957777.4,2815690392.894575,4476146182.450695,48863863936.164085,873854587963.4935
11.405153941827061,9657640147884844.0,1.0678607709812674e+16,514639858945017.7,505356715867182.5,2939751431.0579696,4673367951.311462,51016836050.601715,912357160177.5739
11.733257020663602,9795852052817672.0,1.0831459329203854e+16,522004945464053.44,512588949963733.7,3068102611.0094595,4877409828.076535,53244259898.62569,952191186044.1249
12.067922161076874,9934846711876974.0,1.0985177834115474e+16,529411743671148.8,519862143347299.5,3200875339.932513,5088480713.02372,55548415941.01592,993397448042.6802
12.409280604298411,1.0074645052149908e+16,1.1139786406582128e+16,536861368736574.06,527177391072558.3,3338205019.182884,5306795856.043419,57931653954.12945,1036017968252.4901
12.75746621638438,1.021526771925068e+16,1.1295307918795256e+16,544354920831368.5,534535773465514.8,3480231160.6143255,5532577041.564157,60396395048.64176,1080096044454.4124
13.112615540712067,1.0356735100761578e+16,1.1451764959059486e+16,551893486376469.5,541938357350099.6,3627097506.3739367,5766052778.993979,62945133748.500946,1125676287309.6226
13.474867851526309,1.049906734810371e+16,1.16091798560139e+16,559478139208172.5,549386197192605.06,3778952152.257456,6007458498.821278,65580440131.661934,1172804658643.128
13.844365208556836,1.0642284396971308e+16,1.1767574701266614e+16,567109941667039.6,556880336170951.4,3935947674.7178273,6257036754.523129,68304962034.221054,1221528510861.0725
14.221252512727972,1.0786405986449732e+16,1.192697137057502e+16,574789945616667.6,564421807175075.1,4098241261.623129,6515037430.434315,71121427319.61711,1271896627531.6245
14.605677562982532,1.0931451676925698e+16,1.208739154369211e+16,582519193398094.4,572011633744128.0,4265994846.863156,6781717955.734568,74032646214.62329,1323959265160.2712
14.997791114242183,1.1077440866888178e+16,1.2248856722987556e+16,590298718725093.0,579650830945614.5,4439375248.906647,7057343524.7161665,77041513713.89818,1377768196191.1638
15.397746936527026,1.1224392808708058e+16,1.2411388250941166e+16,598129547525041.2,587340406201094.0,4618554313.414233,7342187323.499312,80151012054.92317,1433376753267.125
15.805701875257567,1.137232662347713e+16,1.2575007326597352e+16,606012698729668.5,595081360062668.9,4803709060.015102,7636530763.366323,83364213265.19492,1490839874781.7673
16.221815912762718,1.1521261314978274e+16,1.2739735021060878e+16,613949185019505.9,602874686943999.1,4995021833.357991,7940663720.89118,86684281783.59506,1550214151758.1316
16.64625223101797,1.1671215782852462e+16,1.2905592292105768e+16,621940013525525.0,610721375809293.2,5192680458.550307,8254884785.044906,90114477157.91656,1611557876089.1216
17.079177275638333,1.1822208835020824e+16,1.30725999979622e+16,629986186491107.2,618622410823331.5,5396878401.101835,8579501511.461813,93658156820.55545,1674931090175.7444
17.5207608211511,1.197425919941479e+16,1.3240778910339722e+16,638088701897107.5,626578771965248.9,5607814931.4916,8914830684.05569,97318778944.44057,1740395638000.1702
17.97117603757412,1.2127385535060368e+16,1.3410149726738408e+16,646248554052525.0,634591435608565.4,5825695294.47983,9261198584.179163,101099905381.30646,1808015217671.2292
18.430599558325603,1.228160644255854e+16,1.3580733082093428e+16,654466734152978.9,642661375069580.0,6050730883.288414,9618941267.522827,105005204684.45409,1877855435480.7195
18.899211549492115,1.2436940473996486e+16,1.3752549559792366e+16,662744230808878.6,650789561126006.4,6283139418.77565,9988404848.953714,109038455218.1848,1949983861509.5566
19.37719578048196,1.2593406142321274e+16,1.3925619702099738e+16,671082030544909.1,658976962507464.8,6523145133.732783,10369945795.496271,113203548356.11395,2024470086823.2427
19.864739696091597,1.2751021930199498e+16,1.4099964020015008e+16,679481118272164.4,667224546359084.0,6770978962.430558,10763931227.65935,117504491770.59747,2101385782296.527
20.36203449001343,1.2909806298383628e+16,1.4275603002586762e+16,687942477733969.8,675533278679290.2,7026878735.545472,11170739229.315619,121945412815.51588,2180804759107.3792
20.869275179813698,1.3069777693597748e+16,1.4452557125697764e+16,696467091926099.4,683904124732438.0,7291089380.5948925,11590759166.338236,126530562004.65503,2262803030940.3945
21.38666068340997,1.3230954555950922e+16,1.4630846860329178e+16,705055943491820.5,692338049436739.0,7563863128.009448,12024392014.19983,131264316587.92209,2347458877939.482
21.91439389707817,1.3393355325879118e+16,1.4810492680305546e+16,713710015091825.4,700836017727511.9,7845459722.970086,12472050694.735065,136151184227.59383,2434852912449.2285
22.452681775019734,1.3556998450610266e+16,1.4991515069514916e+16,722430289748734.5,709398994895469.4,8136146643.13352,12934160422.265045,141195806776.75696,2525068146583.4893
23.00173541052013,1.3721902390140118e+16,1.5173934528589292e+16,731217751165543.1,718027946899431.5,8436199322.366808,13411159059.273867,146402964162.0254,2618190061658.441
23.561770118730532,1.388808562269752e+16,1.535777158102343e+16,740073384016865.0,726723840652304.0,8745901380.605564,13903497481.820454,151777578372.52615,2714306679525.791
24.133005521105144,1.4055566649671626e+16,1.5543046778700198e+16,748998174211477.9,735487644278897.8,9065544859.943682,14411639954.856846,157324717557.02814,2813508635839.4307
24.715665631527248,1.4224363999962342e+16,1.5729780706780598e+16,757993109124168.1,744320327343579.1,9395430467.05347,14936064517.610264,163049600230.92465,2915889255286.373
25.309978944157795,1.4394496233708298e+16,1.5917993987907632e+16,767059177794380.4,753222861045353.1,9735867822.024015,15477263379.16825,168957599594.59537,3021544628809.003
25.91617852304095,1.4565981945335022e+16,1.6107707285660852e+16,776197371088647.1,762196218377342.4,10087175713.692541,16035743324.386032,175054247964.4486,3130573692841.965
26.53450209350177,1.4738839765857104e+16,1.629894130718805e+16,785408681823278.6,771241374247284.2,10449682361.527596,16612026130.209621,181345241317.65494,3243078310581.8457
27.165192135371807,1.4913088364357134e+16,1.6491716804929124e+16,794694104843159.1,780359305554888.2,10823725684.10452,17206648992.479023,187836443951.2918,3359163355302.219
27.808495978079243,1.5088746448553018e+16,1.668605457733406e+16,804054637051986.9,789550991221542.2,11209653574.192608,17820164963.24207,194533893256.2143,3478936795720.0054
28.464665897640828,1.5265832764355136e+16,1.6881975468466534e+16,813491277388673.1,798817412167130.9,11607824180.448503,18453143398.57075,201443804605.573,3602509783411.497
29.133959215593645,1.5444366094303536e+16,1.7079500366371096e+16,823005026744062.2,808159551228259.5,12018606195.683609,19106170416.828194,208572576357.41287,3729996742267.869
29.816638399905518,1.562436525476452e+16,1.7278650200071092e+16,832596887811543.9,817578393011561.5,12442379151.64111,19779849367.28469,215926794970.23657,3861515459970.418
30.51297116790363,1.5805849091756192e+16,1.7479445935052764e+16,842267864864599.9,827074923675255.9,12879533720.185274,20474801308.927223,223513240229.84705,3997187181455.088
31.223230591261704,1.5988836475261916e+16,1.7681908567079734e+16,852018963453783.0,836650130631595.2,13330472020.766895,21191665499.24653,231338890585.09647,4137136704324.0894
31.947695203086937,1.6173346291883228e+16,1.788605911417339e+16,861851190015193.0,846305002162400.0,13795607933.987509,21931099892.720295,239410928589.4784,4281492476149.561
32.686649107148675,1.6359397435673582e+16,1.809191860658415e+16,871765551382041.8,856040526939430.4,14275367421.040823,22693781648.638683,247736746444.69974,4430386693600.49
33.44038208929165,1.6547008796990152e+16,1.8299508074573172e+16,881763054190552.0,865857693441020.9,14770188848.760435,23480407647.843273,256323951641.55252,4583955403308.84
34.20918973107749,1.6736199249193506e+16,1.8508848533816256e+16,891844704171238.5,875757489256112.1,15280523319.952633,24291695017.86779,265180372692.49146,4742338604375.113
34.993373525699035,1.6926987633022578e+16,1.871996096823952e+16,902011505316254.4,885740900266648.1,15806835008.637842,25128381665.882366,274314064949.39554,4905680352396.541
35.793240996213015,1.7119392738470662e+16,1.8932866310093132e+16,912264458913593.6,895808909699182.9,16349601499.7665,25991226818.75144,283733316498.9798,5074128864883.325
36.60910581613728,1.7313433283987466e+16,1.9147585417070652e+16,922604562438816.1,905962497036601.0,16909314132.91662,26881011569.421448,293446654127.2969,5247836627909.624
37.44128793246003,1.7509127892836776e+16,1.936413904628387e+16,933032808295170.2,916202636780969.5,17486478349.416515,27798539428.753555,303462849343.678,5426960503826.998
38.29011369110923,1.7706495066441508e+16,1.95825478249087e+16,943550182393207.5,926530297058754.8,18081614042.2728,28744636881.81746,313790924453.35913,5611661839847.729
39.15591596493141,1.7905553154558308e+16,1.98028322173257e+16,954157662561421.2,936946438060166.2,18695255908.219433,29720153947.55567,324440158666.9058,5802106577285.564
40.03903428423004,1.8106320322131136e+16,2.0025012488589764e+16,964856216779942.8,947452010304679.5,19327953801.13519,30725964740.625355,335420094233.38934,5998465361220.71
40.93981496991464,1.8308814512687624e+16,2.0249108664077324e+16,975646801229985.0,958047952725677.4,19980273086.01242,31762968034.11557,346740542583.1317,6200913650335.13
41.85861126931294,1.851305340815566e+16,2.0475140485175892e+16,986530358152536.0,968735190567768.2,20652794992.592106,32832087821.73525,358411590464.6475,6409631826643.637
42.7957834946992,1.871905438499624e+16,2.0703127360900052e+16,997507813510747.6,979514633091345.9,21346116967.71457,33934273877.959335,370443606059.30835,6624805304825.911
43.751699164593184,1.892683446656757e+16,2.0933088315340228e+16,1008580074451501.4,990387171079936.0,22060853025.370983,35070502314.52076,382847245056.0971,6846624640844.348
44.72673314788505,1.9136410271658164e+16,2.116504193087445e+16,1019748026562818.1,1001353674147077.1,22797634093.377335,36241776131.5329,395633456667.7589,7075285639513.153
45.721267810842754,1.9347797959150724e+16,2.1399006287100964e+16,1031012530925089.6,1012414987840745.1,23557108355.53232,37449125761.433914,408813489568.56995,7310989460665.518
