t(s),Total solute volume 1,Total retention volume 1,Total 1 volume 1,Total 2 volume 1,Total 3 volume 1,Total 4 volume 1,Total 5 volume 1,Total 6 volume 1
0.1,988500314890707.8,1201179625827040.0,98333854761724.14,114345456174609.27,0.0,0.0,0.0,0.0
0.202,1488907882993242.5,1809599061145213.8,148113308358325.03,172230448909379.7,430489524.12964803,887638715.030181,14312562693.13602,331790193331.91925
0.30604000000000003,1869958641661909.8,2273168230026344.5,186019406675817.25,216308759140689.06,1092119018.2922673,2251872373.9531083,36310114751.89087,841768441786.0428
0.41216080000000005,2192172423111024.5,2665391517779937.0,218072530815235.44,253581061221147.72,1939684835.1990144,3999494103.2634625,64489646439.9199,1495073807154.2397
0.5204040160000001,2478227201529806.0,3013809926200247.5,246528636200266.38,286670645584853.44,2953096022.1397038,6089077840.632555,98183169292.88301,2276217542165.657
0.6308120963200001,2739423414564264.0,3332146504433139.5,272511865722614.53,316884698192396.75,4121553047.289835,8498355800.175478,137031621458.23907,3176874423553.9307
0.7434283382464002,2982329257044256.5,3628377615904056.5,296675609078141.9,344982999530277.56,5438859560.890028,11214551640.828432,180828988478.39087,4192267851704.147
0.8582969050113283,3211152333381957.0,3907613304936152.0,319438429576265.4,371452267151778.8,6901495959.599539,14230408289.651602,229458252422.1563,5319684669482.768
0.9754628431115548,3428775752312361.0,4173355544634050.0,341087132585246.75,396626006655185.25,8507670097.555549,17542230574.75083,282859829794.1639,6557743350789.317
1.094972099973786,3637275300097751.0,4428126257289524.5,361828212794653.06,420744336052742.06,10256791476.1396,21148801041.932617,341014089391.33026,7905988662472.006
1.2168715419732616,3838203376612830.5,4673812085213752.0,381816099557819.4,443986830274020.75,12149155206.803112,25050728308.764893,403930844722.3537,9364648040847.678
1.3412089728127268,4032756466910297.5,4911867731584986.0,401169816597917.9,466491893555239.25,14185740302.517576,29250031156.252228,471642647629.54517,10934476102439.645
1.4680331522689813,4221879615477491.5,5143442803948092.0,419983374879132.2,488368844571227.7,16368074934.22054,33749860697.63329,544200308361.0405,12616650776246.848
1.597393815314361,4406334607785130.0,5369464590002096.0,438332555158407.44,509705803383270.9,18698143189.27867,38554308121.42643,621669795499.209,14412701428474.281
1.729341691620648,4586746148942993.0,5590694118225244.0,456279501737395.06,530575033187064.8,21178318751.671864,43668267945.17892,704130030979.7478,16324457740120.14
1.863928525453061,4763634127596494.0,5807765324570182.0,473875932004504.0,551036672461279.6,23811316717.73358,49097338663.47147,791671288079.6498,18354012564440.58
2.001207095962122,4937436761708464.0,6021213149430170.0,491165438926786.44,571141412371871.8,26600158024.519096,54847749402.2896,884394008748.2126,20503694506872.25
2.1412312378813647,5108527585312826.0,6231494157717780.0,508185180855144.25,590932461726587.0,29548142893.62281,60926305162.6365,982407920682.5282,22776047454497.152
2.284055862638992,5277228164489263.0,6439001974619013.0,524967146481749.56,610447017904112.5,32658830875.500843,67340345673.94548,1085831373855.8284,25173815193480.883
2.4297369798917723,5443817783322487.0,6644079043397843.0,541539118378141.6,629717387284120.9,35936025830.13944,74097714425.91666,1194790841168.9036,27699929831663.246
2.578331719489608,5608540936343883.0,6847025720777814.0,557925418326981.1,648771851940635.0,39383764670.89752,81206735459.7796,1309420544219.3027,30357503121963.85
2.7298983538794,5771613204334336.0,7048107410215604.0,574147491834102.9,667635349329595.2,43006309027.813255,88676196179.31683,1429862176136.7803,33149820036233.434
2.884496320956988,5933225919429979.0,7247560225849806.0,590224372203056.9,686330011928189.8,46808139212.82183,96515334908.29889,1556264700952.7344,36080334113509.78
3.0421862473761276,6093549910394969.0,7445595540198767.0,606173053106662.8,704875600471862.8,50793950027.74144,104733832247.61217,1688784214238.2556,39152664228756.69
3.2030299723236504,6252738539890825.0,7642403672733694.0,622008790727961.8,723289855292567.2,54968648068.88966,113341805518.37074,1827583853502.3765,42370592515262.836
3.3670905717701234,6410930190305521.0,7838156909361932.0,637745351045051.4,741588783868747.1,59337350264.11599,122349805746.22281,1972833749566.1663,45738063237039.77
3.5344323832055258,6568250315421450.0,8033011995167823.0,653395213926554.1,759786898153450.2,63905383438.3401,131768816766.4063,2124711012132.9927,49259182454032.39
3.7051210308696363,6724813146859071.0,8227112208355114.0,668969742884893.4,777897411968388.1,68678284748.66014,141610256121.83893,2283399744270.8926,52938218357630.64
3.879223451487029,6880723123504089.0,8420589098172776.0,684479327272610.0,795932406353906.0,73661802864.06592,151885977496.58145,2449091081652.0933,56779602180155.81
4.0568079205167695,7036076096773792.0,8613563950971915.0,699933502179609.5,813902968988987.9,78861899790.75162,162608274480.52844,2621983253258.276,60787929602003.555
4.237944078927105,7190960353075470.0,8806149034580727.0,715341050145112.6,831819312464875.2,84284753264.05751,173789885502.49994,2802281660925.6846,64967962595569.34
4.422702960505647,7345457486100120.0,8998448660612041.0,730710087931516.9,849690875188207.2,89936759643.69406,185443999801.12482,2990198975624.396,69324631657131.92
4.61115701971576,7499643144931533.0,9190560096232964.0,746048140944665.6,867526407919081.4,95824537261.20377,197584264328.2569,3185955248774.324,73863038387343.08
4.803380160110075,7653587678809229.0,9382574350684550.0,761362207373453.4,885334048354443.4,101954930178.36974,210224791499.80673,3389778037225.4453,78588458388498.0
4.9994477633122765,7807356695378662.0,9574576856979670.0,776658813723340.0,903121385704058.5,108335012323.09189,223380167724.93326,3601902540788.9834,83506344452779.45
5.199436718578522,7961011546119755.0,9766648065394856.0,791944063105720.4,920895516842811.1,114972091975.54613,237065462657.57736,3822571751415.9326,88622330020522.66
5.403425452950093,8114609750159156.0,9958863962352916.0,807223677397847.4,938663095335461.2,121873716582.55768,251296239124.81177,4052036613289.288,93942232891490.1
5.611493962009095,8268205338239649.0,1.0151296527113978e+16,822503031464952.0,956430371246608.8,129047677488.87955,266088563370.32767,4290556372659.6763,99472093549244.19
5.823723841249277,8421849289521061.0,1.0344014129311822e+16,837787196592979.4,974203241583360.0,136502016920.94035,281459017520.2288,4538398043920.304,105218042536040.23
6.040198318074262,8575589654071401.0,1.0537081887811832e+16,853080952702774.2,991987264592026.5,144245031361.18634,297424709431.76074,4795837665370.569,111186509039451.88
6.261002284435747,8729471919056426.0,1.0730561984245606e+16,868388824758356.1,1009787702031964.8,152285279073.36908,314003286294.76465,5063159790778.46,117384090042735.89
6.486222330124463,8883539207437149.0,1.0924513943401858e+16,883715102537830.6,1027609542181530.8,160631585965.81036,331212947200.1385,5340657873115.008,123817588839078.47
6.715946776726952,9037832479724460.0,1.1118994883646298e+16,899063860703473.4,1045457523176153.1,169293052101.5335,349072456565.23016,5628634481037.302,130494020052511.31
6.950265712261491,9192390714098540.0,1.1314059741257932e+16,914438976719621.0,1063336153843792.0,178279058466.63388,367601158091.79596,5927401523956.866,137420614855482.44
7.18927102650672,9347251067614740.0,1.150976147198847e+16,929844146889098.1,1081249732352532.8,187599273993.9673,386818989250.52124,6237280485599.052,144604826383256.62
7.433056447036854,9502449020822864.0,1.1706151232670844e+16,945282900739600.5,1099202362939520.8,197263662840.3212,406746496288.30316,6558602665991.814,152054335343722.16
7.681717575977592,9658018507794966.0,1.1903278545300968e+16,960758613958597.0,1117197970952018.4,207282491916.11865,427404849756.3623,6891709431852.77,159777055821878.1
7.935351927497144,9813992033279086.0,1.210119144567934e+16,976274520047527.2,1135240316399249.2,217666338667.4934,448815860558.8404,7236952475369.071,167781141278883.8
8.194058966047088,9970400778461954.0,1.2299936618414428e+16,991833720842823.8,1153333006186557.5,228426099111.2565,471001996522.97906,7594694081387.683,176074990746057.97
8.45794014536803,1.0127274696624502e+16,1.2499559519849852e+16,1007439196031550.1,1171479505180455.5,239572996123.86896,493986399493.16205,7965307403052.849,184667255214699.88
8.72709894827539,1.0284642599806984e+16,1.2700104490273084e+16,1023093811772613.8,1189683146233618.2,251118587986.05383,517792902952.2174,8349176745945.707,193566844222991.0
9.0016409272409,1.044253223745531e+16,1.2901614856587874e+16,1038800328520372.6,1207947139282418.0,263074777185.15955,542446050174.3285,8746697860796.056,202782932641603.75
9.281673745785717,1.0600970367899306e+16,1.3104133026486782e+16,1054561408135108.8,1226274579615176.8,275453819477.7881,567971112914.7496,9158278244849.89,212324967659954.47
9.567307220701432,1.0759982823406628e+16,1.3307700575029614e+16,1070379620354463.0,1244668455397322.2,288268333215.5802,594394110642.2836,9584337451989.209,222202675975335.25
9.85865336511546,1.0919594569467008e+16,1.3512358324425432e+16,1086257448690898.4,1263131654529161.8,301531308937.3653,621741830321.1716,10025307411710.873,232426071187400.9
10.155826432417769,1.1079829758882208e+16,1.3718146417721272e+16,1102197295812455.2,1281666970902771.5,315256119231.2097,650041846749.66,10481632757081.953,243005461400725.28
10.458942961066125,1.1240711781170886e+16,1.3925104387017724e+16,1118201488457427.5,1300277110116887.8,329456528870.14056,679322543463.0486,10953771161797.504,253951457038353.7
10.768121820287448,1.1402263307736892e+16,1.413327121676172e+16,1134272281927620.8,1318964694701862.8,344146705225.57196,709613134209.5663,11442193686474.791,265274978869448.88
11.083484256693197,1.1564506333201088e+16,1.4342685402604344e+16,1150411864199951.2,1337732268900685.5,359341228962.7172,740943685007.8387,11947385134326.176,276987266254333.7
11.405153941827061,1.172746221325007e+16,1.4553385006257296e+16,1166622359691529.8,1356582303047181.5,375055105022.4121,773345136795.1836,12469844416358.82,289099885610352.1
11.733257020663602,1.1891151699317646e+16,1.4765407706736202e+16,1182905832709736.5,1375517197577833.0,391303773894.0392,806849328676.3093,13010084926256.105,301624739102149.56
12.067922161076874,1.2055594970380412e+16,1.4978790848335466e+16,1199264290615149.5,1394539286709722.0,408103123184.3327,841489021782.392,13568634925101.191,314574073560078.25
12.409280604298411,1.2220811662118826e+16,1.5193571485644962e+16,1215699686722427.8,1413650841813783.2,425469499487.0903,877297923750.7871,14146037936108.828,327960489630587.7
12.75746621638438,1.2386820893669154e+16,1.5409786425886532e+16,1232213922961552.8,1432854074509343.5,443419720558.87445,914310713835.9863,14742853149535.625,341796951162530.2
13.112615540712067,1.2553641292168302e+16,1.5627472268819014e+16,1248808852319469.5,1452151139503363.2,461971087806.00476,952563068662.6683,15359655837944.428,356096794833462.6
13.474867851526309,1.2721291015272792e+16,1.5846665444438184e+16,1265486281080247.2,1471544137195340.8,481141399088.2009,992091688631.9703,15997037782001.75,370873740020089.94
13.844365208556836,1.2889787771815608e+16,1.6067402248673268e+16,1282247970879965.0,1491035116066787.0,500948961844.3945,1032934324992.3186,16655607706991.717,386141898917085.75
14.221252512727972,1.305914884074793e+16,1.6289718877264308e+16,1299095640591004.5,1510626074872355.5,521412606546.30383,1075129807586.4391,17335991730233.252,401915786908634.06
14.605677562982532,1.3229391088499018e+16,1.6513651457986344e+16,1316030968048952.8,1530318964647933.0,542551700485.48883,1118718073286.2761,18038833819589.72,418210333197071.75
14.997791114242183,1.3400530984874186e+16,1.6739236081371336e+16,1333055591634122.8,1550115690549654.0,564386161899.6746,1163740195127.8027,18764796263265.184,435040891693117.6
15.397746936527026,1.3572584617599868e+16,1.6966508830064702e+16,1350171111718470.5,1570018113536432.0,586936474444.2086,1210238412157.876,19514560151081.58,452423252172201.25
15.805701875257567,1.3745567705615454e+16,1.7195505806941626e+16,1367379091987769.5,1590028051907451.8,610223702014.6243,1258256160005.3535,20288825867435.84,470373651701499.1
16.221815912762718,1.3919495611199458e+16,1.7426263162096924e+16,1384681060648006.2,1610147282704945.0,634269503926.2848,1307838102188.952,21088313596136.273,488908786342295.1
16.64625223101797,1.4094383351014534e+16,1.7658817118812658e+16,1402078511524022.5,1630377542991761.0,659096150457.221,1359030162174.3557,21913763837321.523,508045823132368.44
17.079177275638333,1.4270245606143462e+16,1.7893203998598428e+16,1419572905057909.0,1650720531012327.2,684726538760.2507,1411879556193.211,22765937936664.594,527802412353109.9
17.5207608211511,1.4447096731184846e+16,1.8129460245392668e+16,1437165669213837.0,1671177907244786.0,711184209150.5619,1466434826836.7588,23645618627068.895,548196700086142.0
17.97117603757412,1.4624950762470552e+16,1.8367622449004068e+16,1454858200295483.5,1691751295351557.2,738493361774.9664,1522745877436.8857,24553610583060.727,569247341064212.1
18.430599558325603,1.4803821425461388e+16,1.8607727367868116e+16,1472651863681746.5,1712442283034833.0,766678873669.0245,1580864007247.5034,25490740988088.258,590973511821170.2
18.899211549492115,1.4983722141372888e+16,1.884981195118628e+16,1490547994485894.0,1733252422803028.8,795766316208.3281,1640841947439.1138,26457860114933.043,613394924145842.1
19.37719578048196,1.5164666033079346e+16,1.9093913360510856e+16,1508547898142823.8,1754183232653727.2,825781972960.1858,1702733897919.5498,27455841919443.92,636531838844655.0
19.864739696091597,1.5346665930338842e+16,1.9340068990834388e+16,1526652850928899.0,1775236196678086.8,856752857941.9742,1766595564993.7947,28485584647801.613,660405079817819.1
20.36203449001343,1.5529734374380956e+16,1.9588316491236364e+16,1544864100418289.8,1796412765591547.0,888706734292.4316,1832484199875.887,29548011457523.465,685036048453901.0
20.869275179813698,1.5713883621893e+16,1.9838693785138932e+16,1563182865879511.0,1817714357194911.2,921672133362.1511,1900458638065.7725,30644071052415.51,710446738347649.8
21.38666068340997,1.589912564843977e+16,2.00912390902167e+16,1581610338615637.0,1839142356769941.0,955678374229.4971,1970579339604.0315,31774738331681.594,736659750345834.2
21.91439389707817,1.6085472151348206e+16,2.034599093800567e+16,1600147682251245.5,1860698117413057.5,990755583648.1686,2042908430217.3127,32941015053394.586,763698307925893.6
22.452681775019734,1.6272934552086412e+16,2.060298819325055e+16,1618796032969070.8,1882382960310497.0,1026934716432.557,2117509743367.1738,34143930512535.844,791586272912203.6
23.00173541052013,1.6461523998164026e+16,2.08622700730291e+16,1637556499699052.5,1904198174958175.0,1064247576287.0597,2194448863215.1008,35384542233808.57,820348161534571.8
23.561770118730532,1.665125136457929e+16,2.112387616568951e+16,1656430164262318.0,1926145019329072.0,1102726837085.3599,2273793168516.1133,36663936679424.88,850009160833764.6
24.133005521105144,1.6842127254836776e+16,2.138784644963279e+16,1675418081472367.0,1948224719990933.2,1142406064605.7437,2355611877453.4756,37983229972068.71,880595145418587.9
24.715665631527248,1.703416200155668e+16,2.165422131197371e+16,1694521279195733.2,1970438472176779.0,1183319738728.3298,2439976093426.7397,39343568633231.51,912132694579128.6
25.309978944157795,1.7227365666697336e+16,2.1923041567107676e+16,1713740758374076.2,1992787439810618.5,1225503276100.067,2526958851805.1577,40746130337114.58,944649109760661.0
25.91617852304095,1.7421748041409104e+16,2.2194348475213196e+16,1733077493009700.5,2015272755490585.5,1268993053273.2283,2616635167658.3936,42192124680291.61,978172432402587.6
26.53450209350177,1.7617318645538576e+16,2.246818376071519e+16,1752532430116169.0,2037895520431526.5,1313826430323.0645,2709082084476.1655,43682793967316.6,1012731462146788.0
27.165192135371807,1.7814086726798822e+16,2.2744589630734588e+16,1772106489635821.8,2060656804369089.8,1360041774950.071,2804378723888.212,45219414012463.38,1048355775419580.4
27.808495978079243,1.8012061259622792e+16,2.3023608793548136e+16,1791800564325673.5,2083557645427034.2,1407678487072.289,2902606336395.6265,46803294957773.51,1085075744391417.9
28.464665897640828,1.821125094371365e+16,2.3305284477079388e+16,1811615519613225.2,2106599049949575.2,1456777023912.791,3003848353124.5796,48435782107588.734,1122922556318322.4
29.133959215593645,1.8411664202306844e+16,2.3589660447443628e+16,1831552193423575.2,2129781992300314.2,1507378925587.4775,3108190438612.5522,50118256779734.73,1161928233268932.0
29.816638399905518,1.8613309180156716e+16,2.3876781027565496e+16,1851611395979127.2,2153107414629383.0,1559526841197.9707,3215720544637.4624,51852137173519.51,1202125652240847.8
30.51297116790363,1.881619374126027e+16,2.4166691115888612e+16,1871793909573146.8,2176576226610086.5,1613264555434.2954,3326528965099.142,53638879254702.19,1243548565669876.8
31.223230591261704,1.9020325466329276e+16,2.445943620519483e+16,1892100488318308.0,2200189305146521.2,1668637015691.767,3440708391962.4453,55479977657577.766,1286231622335533.2
31.947695203086937,1.9225711650021948e+16,2.4755062401548828e+16,1912531857871310.0,2223947494053354.0,1725690359706.2488,3558353972270.5117,57376966604321.04,1330210388665936.0
32.686649107148675,1.9432359297944024e+16,2.505361644338423e+16,1933088715134535.2,2247851603708885.0,1784471943711.6602,3679563366236.4966,59331420841715.61,1375521370445127.8
33.44038208929165,1.964027512342815e+16,2.5355145720744664e+16,1953771727935669.2,2271902410682521.5,1845030371123.3247,3804436806420.9023,61344956595390.445,1422202034925440.2
34.20918973107749,1.9849465544099732e+16,2.56596982946922e+16,1974581534686096.5,2296100657337545.5,1907415521750.3462,3933077158001.4375,63419232541670.34,1470290833347416.5
34.993373525699035,2.005993667823696e+16,2.596732291689391e+16,1995518744018782.2,2320447051410007.0,1971678581539.8687,4065589980141.174,65555950797135.33,1519827223869334.0
35.793240996213015,2.027169434092992e+16,2.6278069049396068e+16,2016583934406205.5,2344942265564489.5,2037872072855.5623,4202083588460.031,67756857925969.45,1570851694908148.2
36.60910581613728,2.0484744040044844e+16,2.659198688459325e+16,2037777653758882.8,2369586936927215.0,2106049885292.2156,4342669118613.445,70023745965160.27,1623405788893230.5
37.44128793246003,2.069909097199594e+16,2.690912736539713e+16,2059100419004754.2,2394381666596988.5,2176267307027.739,4487460590981.058,72358453467595.47,1677532126433835.0
38.29011369110923,2.0914740017326696e+16,2.7229542205607348e+16,2080552715649659.0,2419327019134032.0,2248581056713.2183,4636574976466.828,74762866563077.06,1733274430900705.2
39.15591596493141,2.113169573610137e+16,2.7553283910485384e+16,2102134997318814.8,2444423522026908.5,2323049315900.9575,4790132263410.424,77238920037253.86,1790677553421720.8
40.03903428423004,2.1349962363103544e+16,2.788040579752674e+16,2123847685279252.5,2469671665137101.5,2399731762009.603,4948255525608.21,79788598428441.48,1849787498290820.8
40.93981496991464,2.1569543802838016e+16,2.8210962017425696e+16,2145691167942589.8,2495071900120863.0,2478689601824.4395,5111070991440.119,82413937142268.2,1910651448788667.5
41.85861126931294,2.179044362432995e+16,2.854500757522165e+16,2167665800347646.8,2520624639827589.0,2559985605530.05,5278708114096.241,85117023584057.0,1973317793412753.2
42.7957834946992,2.2012665055710084e+16,2.8882598351612012e+16,2189771903621806.0,2546330257673459.0,2643684141271.062,5451299642895.109,87899998308797.11,2037836152513678.2
43.751699164593184,2.2236210978574908e+16,2.922379112441176e+16,2212009764419995.0,2572189086989063.0,2729851210235.675,5628981695682.078,90765056188534.95,2104257405333317.8
