t(s),Total solute volume 1,Total retention volume 1,Total 1 volume 1,Total 2 volume 1,Total 3 volume 1,Total 4 volume 1,Total 5 volume 1,Total 6 volume 1
0.1,1063829490026819.8,1368988609462191.8,135960145783138.03,169198973652234.8,0.0,0.0,0.0,0.0
0.202,1599625736841405.8,2064198142423680.5,204436285549476.25,254415806828899.94,4949314261.446672,11328079286.230753,213594795406.01425,5490441014944.509
0.30604000000000003,2005856305421339.0,2595726571810482.0,256353597704197.38,319025594265979.8,12536330347.283873,28693412671.88358,541032108693.40216,13908812567253.6
0.41216080000000005,2347790117508487.0,3046951059757766.5,300053618860132.44,373409169846951.25,22230494811.122906,50881663289.474266,959411177014.9525,24665630207079.695
0.5204040160000001,2649932060313088.5,3449127602254098.0,338668136705889.75,421463964614181.7,33791335621.808678,77342442634.6844,1458353472662.4268,37493953370021.28
0.6308120963200001,2924503231804959.5,3817828915952228.5,373759039021845.3,465133708601260.9,47085673834.164246,107770936949.54779,2032111312549.7195,52245968600831.945
0.7434283382464002,3178609934371906.5,4162107061135443.5,406234529543911.75,505548638490845.0,62033351511.51323,141983688143.1056,2677225372384.4595,68832716316736.625
0.8582969050113283,3416804700480387.5,4487763257046126.5,436676433638186.5,543432821298953.7,78584890815.03294,179867459559.8622,3391560452999.676,87199288825218.19
0.9754628431115548,3642205931789465.0,4798775930601191.0,465483291062249.75,579282229716345.0,96710461482.7258,221353984610.299,4173829325358.7144,107312584261678.5
1.094972099973786,3857057133393563.5,5098013280994892.0,492941827540949.4,613453686685668.0,116393753157.86958,266405941703.82343,5023328267728.926,129154505412116.81
1.2168715419732616,4063034126159705.5,5387624341639569.0,519266217293837.3,646213726628381.8,137628279011.6999,315008493965.4145,5939777535697.215,152717857248975.62
1.3412089728127268,4261426350795824.5,5669269550157762.0,544621254161746.4,677767431328329.1,160415005120.78403,367163863358.82385,6923219050357.244,178003715953023.56
1.4680331522689813,4453250033766978.5,5944264532988404.0,569136814502136.4,708276428640784.2,184760756590.30362,422887682636.75055,7973947609874.127,205019660029400.72
1.597393815314361,4639322080854048.0,6213673908996783.0,592917300976080.2,737870645047501.4,210677105062.37317,482206449091.92914,9092462876958.988,233778535688041.75
1.729341691620648,4820310150806124.0,6478374801361381.0,616048042089893.2,766656269725113.1,238179568361.09286,545155692731.45496,10279434837705.543,264297568641458.44
1.863928525453061,4996767658653110.0,6739101199094049.0,638599765708579.1,794721321719922.2,267287020207.8288,611778625263.3322,11535678326739.29,296597709040241.5
2.001207095962122,5169158899530043.0,6996475773794421.0,660631809945230.6,822139645818891.5,298021245797.1719,682125122931.7544,12862133847491.75,330703138284046.1
2.1412312378813647,5337877496464944.0,7251033225601248.0,682194480835797.1,848973846616496.9,330406601376.4164,756250947398.0602,14259852881111.809,366640891254122.4
2.284055862638992,5503260217048290.0,7503237757319989.0,703330818144984.2,875277486015706.6,364469749700.7422,834217140288.2205,15729986470065.504,404440562750953.56
2.4297369798917723,5665597503171114.0,7753496384056793.0,724077941093904.5,901096757952121.4,400239451959.36615,916089546993.1548,17273776238950.355,444134076601742.6
2.578331719489608,5825141620371865.0,8002169229102074.0,744468089867559.4,926471784523817.8,437746402475.2874,1001938438371.298,18892547261371.18,485755502236618.0
2.7298983538794,5982113052189637.0,8249577599449596.0,764529442829651.9,951437632994585.4,477023096312.66614,1091838207772.2025,20587702347082.56,529340907784560.8
2.884496320956988,6136705579757991.0,8496010399100863.0,784286765707730.9,976025123688500.6,518103722557.0366,1185867126822.168,22360717437157.617,574928241660098.9
3.0421862473761276,6289090362180638.0,8741729279976162.0,803761933075722.0,1000261478961773.2,561024077877.2911,1284107147632.877,24213137874518.098,622557236657996.4
3.2030299723236504,6439419247567573.0,8986972821539414.0,822974351512857.6,1024170849813400.4,605821496294.0349,1386643742105.3464,26146575373940.332,672269332033232.8
3.3670905717701234,6587827484691114.0,9231959954240158.0,841941306160294.6,1047774747166133.6,652534792033.1262,1493565771185.456,28162705556834.836,724107610102550.5
3.5344323832055258,6734435962617485.0,9476892787864042.0,860678246951807.1,1071092398073371.5,701204213045.6631,1604965378535.1147,30263265946412.21,778116744683386.8
3.7051210308696363,6879353074924643.0,9721958966924440.0,879199026865599.8,1094141042217534.8,751871403299.7595,1720937904282.7163,32450054341470.027,834342959267618.8
3.879223451487029,7022676282622531.0,9967333646738942.0,897516101669559.4,1116936180488000.5,804579372345.399,1841581815422.6318,34724927504118.695,892833993266972.8
4.0568079205167695,7164493433229279.0,1.0213181162741598e+16,915640698502578.4,1139491784776317.2,859372470956.1147,1966998650125.9207,37089800109821.55,953639075002549.0
4.237944078927105,7304883880967844.0,1.045965644978064e+16,933582959038568.8,1161820476140210.5,916296371884.7855,2097292973758.9,39546643918204.19,1016808900370166.5
4.422702960505647,7443919443588088.0,1.070690625618821e+16,951352061770786.9,1183933676983334.5,975398054952.9698,2232572344823.045,42097487130943.94,1082395616315284.2
4.61115701971576,7581665224081717.0,1.0955070188262124e+16,968956327029112.8,1205841741746657.8,1036725795836.4204,2372947289357.5586,44744413909236.36,1150452808410195.5
4.803380160110075,7718180319969783.0,1.1204281613738442e+16,986403307628831.2,1227554069718546.8,1100329158023.0427,2518531282606.108,47489564028239.97,1221035491952403.0
4.9994477633122765,7853518438489542.0,1.145466844733924e+16,1003699867493073.1,1249079202878457.8,1166258987510.613,2669440736957.3066,50335132649822.89,1294200106103876.8
5.199436718578522,7987728432590594.0,1.1706353837166242e+16,1020852250154532.0,1270424911145562.0,1234567409884.6492,2825794995336.1523,53283370198098.19,1370004510672275.2
5.403425452950093,8120854769947305.0,1.1959456767302278e+16,1037866138696426.9,1291598266973782.8,1305307829476.3938,2987716329359.833,56336582324799.305,1448507985201137.8
5.611493962009095,8252937945040014.0,1.221409258926532e+16,1054746708417558.1,1312605710892124.0,1378534930349.3987,3155329941682.224,59497129953644.83,1529771230089955.2
5.823723841249277,8384014842630870.0,1.2470373492785636e+16,1071498673285456.1,1333453109314448.8,1454304678903.1636,3328763972043.1973,62767429394564.26,1613856369509350.8
6.040198318074262,8514119059565463.0,1.2728408924617948e+16,1088126327063451.4,1354145805721074.8,1532674327915.286,3508149506614.0615,66149952520082.46,1700826955913330.5
6.261002284435747,8643281190699636.0,1.298830596267762e+16,1104633579852861.4,1374688666134607.0,1613702421871.1265,3693620590293.993,69647226997351.04,1790747975980996.2
6.486222330124463,8771529083826201.0,1.325016965162596e+16,1121023990673269.6,1395086119665281.2,1697448803453.0674,3885314241664.3027,73261836570303.75,1883685857845762.8
6.715946776726952,8898888067717907.0,1.3514103305075764e+16,1137300796607024.5,1415342194780547.8,1783974621080.6787,4083370470352.5073,76996421387255.89,1979708479491604.2
6.950265712261491,9025381156776610.0,1.378020877880245e+16,1153466938953912.0,1435460551853909.8,1873342337409.7026,4287932296595.2593,80853678369970.08,2078885178214025.2
7.18927102650672,9151029235259988.0,1.4048586718692806e+16,1169525086775809.0,1455444512465652.8,1965615738711.6301,4499145772821.291,84836361620819.67,2181286761059011.2
7.433056447036854,9275851223624222.0,1.4319336786622974e+16,1185477658155712.5,1475297085859162.8,2060859945067.5767,4717160007102.975,88947282865190.6,2286985516166489.5
7.681717575977592,9399864229160404.0,1.4592557867001556e+16,1201326839449447.8,1495020992899193.5,2159141421320.5425,4942127188348.509,93189311926712.92,2396055224956150.0
7.935351927497144,9523083682797702.0,1.4868348256335764e+16,1217074602769476.8,1514618687830038.2,2260527988738.8896,5174202613127.222,97565377233289.08,2508571175103399.5
8.194058966047088,9645523463690996.0,1.5146805837854694e+16,1232722721907512.8,1534092378090805.0,2365088837351.6816,5413544714037.779,102078466352229.8,2624610174261814.0
8.45794014536803,9767196012993132.0,1.5428028242955968e+16,1248272786874918.5,1553444042410583.0,2472894538923.3047,5660315089545.275,106731626553084.23,2744250564495801.5
8.72709894827539,9888112438028650.0,1.5712113001008676e+16,1263726217216334.2,1572675447376936.2,2584017060540.47,5914678535225.703,111527965397022.73,2867572237393942.5
9.0016409272409,1.0008282607927072e+16,1.5999157678851202e+16,1279084274231916.2,1591788162646124.2,2698529778790.2954,6176803076369.117,116470651351842.77,2994656649839098.5
9.281673745785717,1.0127715241641234e+16,1.628926001115443e+16,1294348072226286.8,1610783574942178.5,2816507494512.3022,6446860001902.87,121562914431874.77,3125586840416436.0
9.567307220701432,1.0246417989160114e+16,1.6582518022676756e+16,1309518588887716.5,1629662900973527.5,2938026448111.7427,6725023899605.877,126808046862240.12,3260447446445465.0
9.85865336511546,1.036439750662514e+16,1.687903014331421e+16,1324596674888211.5,1648427199380045.0,3063164335424.977,7011472692593.221,132209403767071.06,3399324721625698.0
10.155826432417769,1.0481659525975284e+16,1.7178895316741778e+16,1339583062784308.8,1667077381809895.8,3192000324131.133,7306387677058.092,137770403881444.66,3542306554289642.0
10.458942961066125,1.059820891967009e+16,1.748221310335131e+16,1354478375288890.0,1685614223213545.0,3324615070707.053,7609953561264.461,143494530286915.53,3689482486259892.0
10.768121820287448,1.0714049760976218e+16,1.778908377810884e+16,1369283132975905.5,1704038371432170.5,3461090737925.4766,7922358505790.752,149385331170639.16,3840943732310201.0
11.083484256693197,1.0829185380246814e+16,1.8099608423887716e+16,1383997761473063.0,1722350356148708.5,3601511012898.5874,8243794165029.395,155446420608193.88,3996783200233017.0
11.405153941827061,1.0943618417573902e+16,1.8413889020771276e+16,1398622598190903.8,1740550597262069.5,3745961125671.4404,8574455729953.319,161681479370294.0,4157095511518458.0
11.733257020663602,1.1057350872150508e+16,1.8732028531766224e+16,1413157898631439.8,1758639412738047.2,3894527868371.6494,8914541972164.03,168094255753685.84,4321977022652014.5
12.067922161076874,1.1170384148642658e+16,1.9054130985322932e+16,1427603842314607.8,1776617025984671.8,4047299614923.82,9264255289241.074,174688566436588.6,4491525847040251.5
12.409280604298411,1.1282719100837774e+16,1.9380301555016244e+16,1441960538356617.5,1794483572794298.2,4204366341338.628,9623801751415.951,181468297359122.84,4665841877575673.0
12.75746621638438,1.1394356072806054e+16,1.971064663670597e+16,1456228030730531.2,1812239107890259.5,4365819646588.186,9993391149597.459,188437404629234.5,4845026809853700.0
13.112615540712067,1.150529493778725e+16,2.004527392346492e+16,1470406303236053.8,1829883611111674.5,4531752774080.78,10373237044778.787,195599915454678.2,5029184166056394.0
13.474867851526309,1.1615535134991226e+16,2.0384292478533372e+16,1484495284202747.8,1847416993266471.0,4702260633749.294,10763556818859.34,202959929101701.6,5218419319518641.0
13.844365208556836,1.1725075704480808e+16,2.0727812806535668e+16,1498494850948174.5,1864839101679400.8,4877439824768.743,11164571726917.783,210521617881094.16,5412839519994512.0
14.221252512727972,1.1833915320288046e+16,2.1075946923171756e+16,1512404834010201.5,1882149725459088.0,5057388658920.147,11576506950974.543,218289228162343.0,5612553919642205.0
14.605677562982532,1.1942052321898332e+16,2.14288084235784e+16,1526225021170785.2,1899348600505475.0,5242207184617.691,11999591655285.154,226267081416664.75,5817673599747234.0
14.997791114242183,1.2049484744222942e+16,2.1786512549535948e+16,1539955161286515.8,1916435414276887.5,5431997211618.6875,12434059043207.39,234459575289733.2,6028311598205060.0
15.397746936527026,1.2156210346168298e+16,2.214917625568355e+16,1553594967939854.5,1933409810333872.0,5626862336435.202,12880146415687.646,242871184704945.97,6244582937784454.0
15.805701875257567,1.2262226637898256e+16,2.2516918274889668e+16,1567144122923331.0,1950271392675195.5,5826907968468.277,13338095231413.885,251506462998137.84,6466604655194887.0
16.221815912762718,1.2367530906876122e+16,2.2889859182914464e+16,1580602279567748.8,1967019729879750.5,6032241356885.394,13808151168683.12,260370043084641.28,6694495830980633.0
16.64625223101797,1.2472120242764122e+16,2.3268121462489096e+16,1593969065924458.2,1983654359066736.2,6242971618263.251,14290564189034.777,269466638659658.75,6928377620266839.0
17.079177275638333,1.2575991561249578e+16,2.36518295669271e+16,1607244087810329.2,2000174789685152.5,6459209765017.974,14785588602701.06,278801045432912.97,7168373284381367.0
17.5207608211511,1.2679141626859988e+16,2.404110998337411e+16,1620426931723644.8,2016580507142462.0,6681068734645.792,15293483135927.05,288378142398577.8,7414608223378860.0
17.97117603757412,1.2781567074823158e+16,2.443609129579627e+16,1633517167637848.5,2032870976281396.0,6908663419797.338,15814511000215.11,298202893141513.6,7667210009492323.0
18.430599558325603,1.2883264432021924e+16,2.4836904247797004e+16,1646514351679605.8,2049045644712715.8,7142110699209.633,16348939963548.445,308280347180826.56,7926308421539172.0
18.899211549492115,1.2984230137088482e+16,2.5243681805349936e+16,1659418028696934.0,2065103946011187.0,7381529469519.466,16897042423649.16,318615641351838.8,8192035480308358.0
19.37719578048196,1.3084460559678316e+16,2.5656559219526508e+16,1672227734722446.5,2081045302781009.5,7627040677982.965,17459095483328.146,329214001227502.7,8464525484955903.0
19.864739696091597,1.318395201895973e+16,2.6075674089293516e+16,1684942999336360.8,2096869129596568.8,7878767356125.691,18035381027983.336,340080742580355.44,8743915050436389.0
20.36203449001343,1.3282700801351022e+16,2.6501166424451484e+16,1697563347933363.0,2112574835823421.2,8136834654348.457,18626185805304.242,351221272886105.5,9030343145997956.0
20.869275179813698,1.3380703177534348e+16,2.6933178708779296e+16,1710088303897018.0,2128161828324363.5,8401369877513.479,19231801507240.836,362641092869924.1,9323951134768872.0
21.38666068340997,1.3477955418772186e+16,2.7371855963447736e+16,1722517390685053.2,2143629514054470.2,8672502521536.402,19852524854294.7,374345798096577.25,9624882814463634.0
21.91439389707817,1.3574453812549392e+16,2.7817345810762144e+16,1734850133828457.2,2158977302548935.0,8950364311008.943,20488657682191.164,386341080605454.94,9933284459236704.0
22.452681775019734,1.3670194677561832e+16,2.8269798538288236e+16,1747086062847077.5,2174204608306976.0,9235089237877.691,21140507030990.63,398632730591646.5,1.0249304862711798e+16
23.00173541052013,1.3765174378070774e+16,2.872936716341687e+16,1759224713084121.5,2189310853074842.0,9526813601203.834,21808385236698.207,411226638134131.94,1.0573095382215122e+16
23.561770118730532,1.3859389337639256e+16,2.9196207498417456e+16,1771265627461714.8,2204295468030564.5,9825676048029.154,22492610025428.695,424128794972202.3,1.0904809984240246e+16
24.133005521105144,1.3952836052266498e+16,2.967047821602831e+16,1783208358159533.5,2219157895872938.5,10131817615373.123,23193504610185.793,437345296331207.6,1.1244605291172538e+16
24.715665631527248,1.4045511102934046e+16,3.0152340915632636e+16,1795052468218179.8,2233897592816930.5,10445381773385.969,23911397790313.418,450882342798716.75,1.1592640629301046e+16
25.309978944157795,1.4137411167575874e+16,3.0641960190063068e+16,1806797533069059.0,2248514030497525.2,10766514469681.957,24646624053675.957,464746242252171.8,1.194907807814506e+16
25.91617852304095,1.4228533032485166e+16,3.113950369307964e+16,1818443141992145.0,2263006697783905.5,11095364174878.021,25399523681624.684,478943411839111.7,1.231408252112274e+16
26.53450209350177,1.4318873603167448e+16,3.1645142207562308e+16,1829988899503048.5,2277375102505631.0,11432081929360.615,26170442856806.19,493480380011041.94,1.2687821697589006e+16
27.165192135371807,1.4408429914650426e+16,3.215904971445943e+16,1841434426670665.2,2291618773092388.5,11776821391306.389,26959733773869.285,508363788611967.3,1.3070466256268822e+16
27.808495978079243,1.4497199141260292e+16,3.2681403462530304e+16,1852779362366583.0,2305737260128893.5,12129738885978.291,27767754753124.926,523600395022678.7,1.3462189810112726e+16
28.464665897640828,1.4585178605872618e+16,3.321238403892225e+16,1864023364447383.0,2319730137826169.5,12490993456321.867,28594870357213.582,539197074361768.6,1.386316899260074e+16
29.133959215593645,1.4672365788646528e+16,3.375217544061764e+16,1875166110870897.2,2333597005410763.0,12860746914883.568,29441451510833.83,555160821744432.56,1.4273583515519324e+16
29.816638399905518,1.4758758335250394e+16,3.430096514678899e+16,1886207300747457.0,2347337488432962.5,13239163897074.045,30307875623584.574,571498754600013.1,1.4693616228237498e+16
30.51297116790363,1.484435406458659e+16,3.485894419209717e+16,1897146655327146.0,2360951239995420.5,13626411915798.338,31194526715973.395,588218115049306.2,1.5123453178506894e+16
31.223230591261704,1.4929150976023e+16,3.5426307240968016e+16,1907983918924010.2,2374437941903317.0,14022661417474.57,32101795548641.02,605326272342560.5,1.5563283674809048e+16
31.947695203086937,1.5013147256138978e+16,3.6003252662882708e+16,1918718859778194.2,2387797305737244.5,14428085839462.506,33030079754853.67,622830725359129.9,1.6013300350274804e+16
32.686649107148675,1.5096341284993244e+16,3.65899826087145e+16,1929351270857004.0,2401029073850147.0,14842861668922.586,33979783976310.75,640739105169729.1,1.6473699228199112e+16
33.44038208929165,1.5178731641921122e+16,3.718670308814723e+16,1939880970595816.2,2414133020289304.0,15267168503125.834,34951320002316.812,659059177662151.8,1.6944679789173368e+16
34.20918973107749,1.5260317110868968e+16,3.779362404820694e+16,1950307803579822.5,2427108951644804.0,15701189111234.693,35945106912365.586,677798846231409.2,1.742644503985837e+16
34.993373525699035,1.5341096685273306e+16,3.841095945294105e+16,1960631641167588.2,2439956707825534.0,16145109497574.08,36961571222181.46,696966154535119.5,1.791920158341976e+16
35.793240996213015,1.5421069572492774e+16,3.903892736427611e+16,1970852382057479.8,2452676162764043.5,16599118966411.416,38001147033263.96,716569289314998.4,1.842315969164717e+16
36.60910581613728,1.5500235197800494e+16,3.967775002408722e+16,1980969952797902.8,2465267225051580.0,17063410188264.963,39064276185980.086,736616583285348.5,1.8938533378777668e+16
37.44128793246003,1.5578593207945928e+16,4.032765393751129e+16,1990984308242493.0,2477729838504530.0,17538179267757.201,40151408416247.41,757116518089288.8,1.9465540477045132e+16
38.29011369110923,1.565614347429371e+16,4.098886995753484e+16,2000895431951295.2,2490063982663682.5,18023625813032.375,41263001515850.055,778077727323593.8,2.000440271397383e+16
39.15591596493141,1.5732886095548886e+16,4.166163337088877e+16,2010703336539044.8,2502269673227635.0,18519953006754.465,42399521496429.96,799508999632878.5,2.0555345791437176e+16
40.03903428423004,1.580882140007737e+16,4.234618398528064e+16,2020408063971720.8,2514346962421914.5,19027367678702.008,43561442757192.63,821419281873943.4,2.1118599466499716e+16
40.93981496991464,1.5883949947830682e+16,4.304276621799692e+16,2030009685812542.8,2526295939305024.0,19546080379977.492,44749248256369.68,843817682350984.4,2.16943976340613e+16
41.85861126931294,1.5958272531884482e+16,4.375162918590576e+16,2039508303418591.2,2538116730013195.5,20076305458845.98,45963429686472.664,866713474122429.6,2.2282978411321724e+16
42.7957834946992,1.6031790179600882e+16,4.447302679688991e+16,2048904048089365.2,2549809497945256.5,20618261138218.484,47204487653381.3,890116098380139.9,2.288458422408263e+16
