t(s),Total solute volume 1,Total retention volume 1,Total 1 volume 1,Total 2 volume 1,Total 3 volume 1,Total 4 volume 1,Total 5 volume 1,Total 6 volume 1
0.1,941999071437344.5,1111941895936827.4,80338108873842.89,89604715625638.98,0.0,0.0,0.0,0.0
0.202,1419165991736926.5,1675199928610041.2,121033147128352.0,134993727698018.28,10911512.654911252,21100990.26766386,309040968.38982457,6720993274.879249
0.30604000000000003,1782603229442527.8,2104214490116927.2,152028783273764.44,169564558718861.6,27685282.282859176,53538587.23082176,784118490.7359015,17053339415.278484
0.41216080000000005,2090020690844654.0,2467105993082268.0,178246789534996.4,198806683602205.7,49177067.12119612,95100019.51317407,1392823318.5464408,30292000011.196934
0.5204040160000001,2363031240531121.5,2789386076353404.0,201530412616393.28,224775958565963.72,74879124.42161985,144803399.10554683,2120774635.6821768,46124182760.35059
0.6308120963200001,2612403151673196.0,3083765504157117.5,222798021477621.06,248496681939147.66,104519188.02391705,202122209.755517,2960261071.074635,64382164681.97834
0.7434283382464002,2844395052797250.0,3357631902054105.5,242583381381674.78,270564186196088.53,137941678.4260296,266755587.3305797,3906876165.885128,84970105660.87297
0.8582969050113283,3063016298261542.5,3615717881526449.5,261228428916271.16,291359848636139.0,175058900.17221805,338533943.86488813,4958136133.210693,107833983522.94052
0.9754628431115548,3271014329501200.0,3861266512121167.0,278967478802685.3,311145011036470.4,215826998.37947467,417372471.5784545,6112798875.716415,132946782470.35367
1.094972099973786,3470367481926614.5,4096613025335633.0,295969252784807.5,330107856367960.4,260232644.67614195,503245395.75387037,7370486892.807021,160300291313.78708
1.2168715419732616,3662555526000383.0,4323504157905806.5,312359952644020.0,348389143169453.2,308285037.7872667,596170505.2341602,8731460714.298182,189900175695.09833
1.3412089728127268,3848719229485278.5,4543286496829983.0,328236868417825.2,366097383407810.56,360010800.6115022,696199284.2412714,10196474371.144829,221762834617.79932
1.4680331522689813,4029759892951933.5,4757023969531590.0,343676867255842.1,383318310481898.5,415450573.8746221,803410325.0842073,11766678918.094183,255913302100.44644
1.597393815314361,4206404305579735.0,4965574516589470.0,358741933155880.44,400121057940090.6,474656661.32007056,917904774.3602703,13443555738.865177,292383796592.6952
1.729341691620648,4379248737507030.0,5169642019514716.0,373482918838365.2,416562344115043.6,537691357.1079075,1039803098.4308494,15228869173.40313,331212690640.19934
1.863928525453061,4548789675311149.0,5369812580328185.0,387942167012558.0,432689395740138.94,604625732.8806978,1169242737.8145652,17124632164.198973,372443763709.10785
2.001207095962122,4715445870813436.0,5566580547536958.0,402155390802304.56,448542045273135.3,675538744.6217735,1306376380.00425,19133080960.027912,416125652005.45087
2.1412312378813647,4879574522501275.0,5760367616361113.0,416153053773774.8,464154270103345.2,750516568.2143793,1451370674.5523832,21256656297.13749,462311439175.9525
2.284055862638992,5041483388551730.0,5951537126704849.0,429961402991054.3,479555344765137.4,829652102.5577214,1604405272.1829584,23497989326.11665,511058350224.955
2.4297369798917723,5201440013529043.0,6140404954170519.0,443603255912290.0,494770718598690.6,913044598.1139635,1765672106.4653592,25859891091.3186,562427522697.4565
2.578331719489608,5359678865662215.0,6327247934769488.0,457098609090267.2,509822694661206.06,1000799381.1972374,1935374860.6370156,28345344721.964878,616483836839.6682
2.7298983538794,5516406934261792.0,6512310472019459.0,470465115546430.44,524730962163685.4,1093027652.6613672,2113728578.3004122,30957499730.42793,673295791589.4435
2.884496320956988,5671808173983095.0,6695809782889695.0,483718463798540.9,539513019217565.94,1189846345.3718529,2300959387.798862,33699667975.447628,732935416778.0061
3.0421862473761276,5826047073010840.0,6877940109647921.0,496872682172237.75,554184512247136.0,1291378028.8608558,2497304317.8361955,36575320961.70129,795478214396.5059
3.2030299723236504,5979271546947625.0,7058876135788506.0,509940385605449.2,568759511261623.0,1397750852.426825,2703011187.4418187,39588088228.23344,861003123544.5536
3.3670905717701234,6131615307539638.0,7238775782075586.0,522932977664460.7,583250735172820.8,1509098520.0165334,2918338557.3975034,42741756637.0504,929592504956.7578
3.5344323832055258,6283199817951191.0,7417782514562953.0,535860817298910.8,597669737784474.0,1625560291.7555556,3143555733.1978264,46040270416.47467,1001332141944.7236
3.7051210308696363,6434135919300519.0,7596027264583311.0,548733357560420.5,612027062511397.6,1747281008.13355,3378942811.8211308,49487731846.14497,1076311255294.4215
3.879223451487029,6584525193424089.0,7773630037392391.0,561559261825528.44,626332372008184.6,1874411133.712491,3624790766.2545457,53088402494.96116,1154622530189.6936
4.0568079205167695,6734461111917383.0,7950701268906059.0,574346501794949.1,640594557482855.4,2007106818.337139,3881401570.398997,56846707106.97178,1236362495373.3735
4.237944078927105,6884030012614282.0,8127342976948345.0,587102440757630.9,654821831522027.0,2145529971.1757474,4149088316.2337666,60767227127.67121,1321630209000.4133
4.422702960505647,7033311930141693.0,8303649743858799.0,599833904446545.6,669021807184523.4,2289848352.7753277,4428175430.69584,64854716111.93051,1410529346143.3806
4.61115701971576,7182381311255276.0,8479709559512199.0,612547242030982.9,683201565985207.6,2440235674.90043,4718998842.954323,69114094053.72684,1503166912147.7317
4.803380160110075,7331307630312215.0,8655604548256706.0,625248378610714.9,697367716455084.5,2596871713.8650765,5021906209.999357,73550452711.86241,1599653648072.0444
4.9994477633122765,7480155922718275.0,8831411598678306.0,637942860710871.9,711526444883792.4,2759942433.87414,5337257155.164242,78169059103.35768,1700104106680.7769
5.199436718578522,7628987249086379.0,9007202911582546.0,650635895867565.5,725683559471217.8,2929640120.1753716,5665423525.619858,82975359274.69102,1804636734464.9602
5.403425452950093,7777859100778153.0,9183046478790840.0,663332387214376.0,739844528903383.2,3106163521.5096726,6006789667.850326,87974982336.39975,1913373959390.607
5.611493962009095,7926825755615222.0,9359006503122310.0,676036963819086.9,754014516188365.2,3289718001.455464,6361752720.32845,93173744749.57925,2026442284125.8074
5.823723841249277,8075938591034972.0,9535143768148346.0,688754007391075.0,768198408444257.5,3480515698.352172,6730722922.781683,98577654855.37146,2143972384552.567
6.040198318074262,8225246360745698.0,9711515964867300.0,701487675875778.1,782400843215127.4,3678775693.5626545,7114123941.584255,104192917640.6357,2266099213415.409
6.261002284435747,8374795439946227.0,9888177981277298.0,714241924368151.8,796626231796765.2,3884724187.8969173,7512393210.932027,110025939734.76915,2392962108997.314
6.486222330124463,8524630043366698.0,1.0065182159872412e+16,727020523708237.1,810878779977136.2,4098594686.0726967,7925982289.559211,116083334634.15643,2524704908746.355
6.715946776726952,8674792419724487.0,1.024257852730451e+16,739827077065256.0,825162506533383.0,4320628189.133743,8355357232.844033,122371928152.00139,2661476067804.2046
6.950265712261491,8825323025641996.0,1.0420414999806228e+16,752665034770149.8,839481259775219.8,4551073394.7855015,8800998980.22545,128898764092.40717,2803428782411.7495
7.18927102650672,8976260681620085.0,1.059873756743825e+16,765537707617725.6,853838732381420.9,4790186905.641774,9263403757.918495,135671110148.5139,2950721118187.9287
7.433056447036854,9127642712283748.0,1.0777590459775698e+16,778448278827462.1,868238474740229.1,5038233445.405675,9743083496.972828,142696464025.35812,3103516143295.864
7.681717575977592,9279505072800496.0,1.0957016295278756e+16,791399814825063.1,882683906974542.2,5295486083.03346,10240566266.769789,149982559788.84036,3261982066526.6846
7.935351927497144,9431882463108260.0,1.1137056216278034e+16,804395274984363.0,897178329807465.5,5562226464.954253,10756396724.097252,157537374442.8408,3426292380345.474
8.194058966047088,9584808431365360.0,1.1317750011243362e+16,817437520450010.5,911724934402665.8,5838745055.437914,11291136577.982504,165369134737.13333,3596626008956.6406
8.45794014536803,9738315467846640.0,1.1499136225780096e+16,830529322145374.0,926326811295953.9,6125341385.223337,11845365070.499037,173486324209.2472,3773167461457.591
8.72709894827539,9892435090349620.0,1.1681252263609684e+16,843673368056389.1,940986958519272.8,6422324308.5357275,12419679473.796515,181897690463.9356,3956106990160.0444
9.0016409272409,1.0047197922037394e+16,1.186413447862776e+16,856872269870360.9,955708289005267.0,6730012268.637718,13014695603.633911,190612252694.3414,4145640754168.0493
9.281673745785717,1.0202633762529018e+16,1.204781825899714e+16,870128569038891.0,970493637349531.5,7048733572.07342,13631048349.723167,199639309449.38077,4341970988310.9224
9.567307220701432,1.0358771652946932e+16,1.2232338104113464e+16,883444742325420.0,985345765998033.8,7378826671.778314,14269392223.218279,208988446652.22757,4545306177537.474
9.85865336511546,1.05156399355455e+16,1.2417727695180382e+16,896823206890634.1,1000267370919105.8,7720640459.240863,14930401921.708857,218669545875.1702,4755861236886.052
10.155826432417769,1.0673266308470106e+16,1.2604019960042418e+16,910266324962578.1,1015261086812233.2,8074534565.914009,15614772912.101648,228692792876.45514,4973857697152.458
10.458942961066125,1.0831677876132084e+16,1.2791247132849218e+16,923776408132866.4,1030329491899791.6,8440879674.086035,16323222031.794828,239068686405.04855,5199523896384.833
10.768121820287448,1.0990901195628488e+16,1.2979440809057228e+16,937355721315576.1,1045475112342608.4,8820057837.432472,17056488108.574356,249808047279.58878,5433095177342.04
11.083484256693197,1.115096231958793e+16,1.316863199621901e+16,951006486401354.8,1060700426315527.6,9212462811.480673,17815332599.679146,260922027748.10046,5674814091058.14
11.405153941827061,1.1311886835780676e+16,1.3358851160959842e+16,964730885635526.0,1076007867775188.6,9618500394.23015,18600540250.507133,272422121135.35056,5924930606662.873
11.733257020663602,1.1473699903794296e+16,1.3550128272496944e+16,978531064745996.1,1091399829948697.0,10038588777.182135,19412919773.44986,284320171785.0226,6183702327614.135
12.067922161076874,1.163642628904437e+16,1.3742492843020256e+16,992409135843827.5,1106878668568782.6,10473158907.041853,20253304547.367393,296628385304.1732,6451394714504.768
12.409280604298411,1.1800090394360388e+16,1.393597396521763e+16,1006367180117032.5,1122446704878297.1,10922654858.367693,21122553338.2327,309359339117.7431,6728281314612.689
12.75746621638438,1.1964716289362276e+16,1.413060034719975e+16,1020407250335949.2,1138106228424586.8,11387534217.45142,22021551041.494743,322525993341.1606,7014643998369.178
13.112615540712067,1.2130327737821444e+16,1.43264003450531e+16,1034531373186713.4,1153859499662102.0,11868268477.723919,22951209446.73108,336141701979.3874,7310773202927.007
13.474867851526309,1.2296948223179668e+16,1.4523401993226082e+16,1048741551447635.6,1169708752379822.8,12365343446.990774,23912468025.176727,350220224461.01746,7616968183015.58
13.844365208556836,1.24646009723825e+16,1.472163303293388e+16,1063039766021821.2,1185656195968324.0,12879259666.813082,24906294740.74034,364775737516.3668,7933537269277.479
14.221252512727972,1.2633308978168742e+16,1.492112093874828e+16,1077427977838117.1,1201704017539988.8,13410532844.357885,25933686885.135307,379822847408.7441,8260798134286.3125
14.605677562982532,1.2803095019942926e+16,1.5121892943523834e+16,1091908129631227.6,1217854383914462.5,13959694297.05402,26995671937.774105,395376602528.41034,8599078066452.713
14.997791114242183,1.2973981683346958e+16,1.5323976061796378e+16,1106482147610870.1,1234109443480302.2,14527291410.399776,28093308451.096107,411452506359.0331,8948714252031.47
15.397746936527026,1.3145991378634902e+16,1.5527397111777964e+16,1121151943028859.2,1250471327942873.5,15113888109.277853,29227686962.017303,428066530826.70996,9310054065449.473
15.805701875257567,1.3319146357946238e+16,1.5732182736060354e+16,1135919413652259.5,1266942153967363.8,15720065343.145752,30399930930.21256,445235130041.9976,9683455368180.58
16.221815912762718,1.3493468731563518e+16,1.5938359421128842e+16,1150786445149897.5,1283524024725274.5,16346421585.479385,31611197703.961334,462975254445.62164,10069286816400.531
16.64625223101797,1.366898048323318e+16,1.6145953515779844e+16,1165754912399019.0,1300219031351744.8,16993573347.859045,32862679514.31031,481304365368.9099,10467928177661.05
17.079177275638333,1.3845703484620726e+16,1.6354991248526436e+16,1180826680718074.5,1317029254320578.0,17662155709.098064,34155604498.325375,500240450020.2809,10879770656830.63
17.5207608211511,1.4023659508965948e+16,1.6565498744069438e+16,1196003607031300.2,1333956764743133.2,18352822859.82584,35491237752.231445,519802036909.4544,11305217231554.678
17.97117603757412,1.420287024399709e+16,1.6777502038904254e+16,1211287540970127.0,1351003625596751.5,19066248662.949127,36870882415.257286,540008211721.3627,11744682997496.18
18.430599558325603,1.4383357304159488e+16,1.6991027096128762e+16,1226680325916048.5,1368171892887958.2,19803127230.42573,38295880785.0271,560878633652.1053,12198595523625.182
18.899211549492115,1.4565142242207172e+16,1.7206099819510596e+16,1242183799989258.0,1385463616755111.0,20564173516.798603,39767615465.36387,582433552219.5927,12667395217831.53
19.37719578048196,1.4748246560204712e+16,1.7422746066868632e+16,1257799796986885.0,1402880842514858.2,21350123929.94946,41287510547.39311,604693824561.9037,13151535703144.822
19.864739696091597,1.4932691719979778e+16,1.7640991662818592e+16,1273530147274501.8,1420425611656459.0,22161736959.543648,42857032824.85822,627680933236.7013,13651484204851.197
20.36203449001343,1.5118499153066226e+16,1.7860862410928036e+16,1289376678634042.5,1438099962787563.8,22999793823.65025,44477693044.58647,651417004535.4559,14167721948805.885
20.869275179813698,1.5305690270171966e+16,1.8082384105323084e+16,1305341217071353.2,1455905932534823.8,23865099134.036427,46151047193.064095,675924827326.5303,14700744571247.162
21.38666068340997,1.5494286470205346e+16,1.8305582541785996e+16,1321425587585909.2,1473845556402485.5,24758481580.644108,47878697820.11268,701227872441.6135,15251062540426.725
21.91439389707817,1.5684309148888572e+16,1.8530483528378816e+16,1337631614905489.0,1491920869591724.2,25680794635.775078,49662295400.67455,727350312620.3151,15819201590377.996
22.452681775019734,1.587577970698718e+16,1.875711289562577e+16,1353961124187983.5,1510133907783450.5,26632917278.520844,51503539735.75012,754317043028.1556,16405703167153.83
23.00173541052013,1.606871955817966e+16,1.8985496506285476e+16,1370415941692554.0,1528486707886875.5,27615754739.987778,53404181393.55259,782153702363.5597,17011124887872.678
23.561770118730532,1.6263150136591206e+16,1.9215660264739456e+16,1386997895422152.5,1546981308756138.0,28630239269.88445,55366023191.97006,810886694569.8396,17636041012920.453
24.133005521105144,1.6459092904012646e+16,1.9447630126024376e+16,1403708815739197.2,1565619751876992.0,29677330925.04875,57390921723.4592,840543211168.5962,18281042931665.02
24.715665631527248,1.665656935682397e+16,1.9681432104528956e+16,1420550535956020.2,1584404082025361.5,30758018380.508217,59480788923.51495,871151254231.306,18946739662047.887
25.309978944157795,1.68556010326401e+16,1.9917092282379156e+16,1437524892901665.2,1603336347899512.8,31873319763.68186,61637593683.89119,902739660006.3384,19633758364426.76
25.91617852304095,1.705620951669498e+16,2.0154636817528976e+16,1454633727466353.8,1622418602727339.2,33024283512.345016,63863363511.77699,935338123218.9639,20342744870051.61
26.53450209350177,1.725841644797809e+16,2.039409195157507e+16,1471878885124831.2,1641652904850044.2,34211989256.991943,66160186236.15431,968977222062.3883,21074364224564.39
27.165192135371807,1.746224352513579e+16,2.063548401731026e+16,1489262216439656.2,1661041318283506.0,35437548728.24737,68530211762.597946,1003688443898.1936,21829301246922.92
27.808495978079243,1.7667712512147928e+16,2.0878839446027948e+16,1506785577545339.5,1680585913258245.5,36702106689.98886,70975653877.79495,1039504211684.9584,22608261104155.555
28.464665897640828,1.7874845243788794e+16,2.1124184774589228e+16,1524450830614066.0,1700288766738873.5,38006841898.85587,73498792105.09456,1076457911154.2112,23411969902361.84
29.133959215593645,1.808366363087822e+16,2.1371546652260296e+16,1542259844303558.0,1720151962923613.5,39352968090.83504,76101973612.4178,1114583918753.173,24241175294382.844
29.816638399905518,1.829418966532801e+16,2.1620951847324812e+16,1560214494187414.2,1740177593724267.0,40741734995.61863,78787615173.8778,1153917630374.0986,25096647104570.23
30.51297116790363,1.850644542498404e+16,2.187242725347561e+16,1578316663168118.2,1760367759226875.0,42174429379.44632,81558205186.48332,1194495490890.2886,25979177971089.105
31.223230591261704,1.872045307826446e+16,2.212599989598244e+16,1596568241872570.2,1780724568132865.0,43652376117.14704,84416305743.31145,1236355024519.0564,26889584006194.844
31.947695203086937,1.893623488858802e+16,2.23816969376331e+16,1614971129029768.0,1801250138180282.5,45176939294.10382,87364554764.54565,1279534866032.137,27828705474928.8
32.686649107148675,1.9153813218585484e+16,2.263954568443685e+16,1633527231829979.8,1821946596544420.2,46749523338.86662,90405668187.78511,1324074792834.0454,28797407492677.297
33.44038208929165,1.9373210534081484e+16,2.289957359107867e+16,1652238466264317.0,1842816080216534.5,48371574187.14126,93542442219.02992,1370015757929.0151,29796580742040.3
34.20918973107749,1.959444940783011e+16,2.316180826610208e+16,1671106757443348.5,1863860736359221.5,50044580477.87477,96777755645.73846,1417399923796.9058,30827142209453.312
34.993373525699035,1.9817552522982316e+16,2.3426277476797464e+16,1690134039892794.0,1885082722636199.8,51770074782.154205,100114572213.33829,1466270697198.3389,31890035942000.58
35.793240996213015,2.004254267625653e+16,2.3693009153762176e+16,1709322257823957.2,1906484207513960.0,53549634865.61775,103555943066.54922,1516672764928.913,32986233824849.707
36.60910581613728,2.0269442780779416e+16,2.39620313950918e+16,1728673365375953.2,1928067370531913.5,55384884985.061,107105009256.83344,1568652130541.8257,34116736379726.06
37.44128793246003,2.0498275868553384e+16,2.423337247015523e+16,1748189326826202.2,1949834402537176.8,57277497219.89533,110765004317.24393,1622256152057.3467,35282573584828.79
38.29011369110923,2.0729065092502852e+16,2.450706082289382e+16,1767872116764882.8,1971787505879142.2,59229192839.0746,114539256905.86923,1677533580676.851,36484805716568.33
39.15591596493141,2.096183372803919e+16,2.47831250745773e+16,1787723720228481.5,1993928894558415.0,61241743704.076065,118431193518.99414,1734534600517.732,37724524213481.26
40.03903428423004,2.11966051740792e+16,2.5061594025936376e+16,1807746132786562.5,2016260794323607.0,63316973708.45108,122444341274.99094,1793310869383.9917,39002852562640.94
40.93981496991464,2.1433402953436256e+16,2.534249665858053e+16,1827941360575184.5,2038785442708619.0,65456760254.41392,126582330769.83095,1853915560585.5845,40320947208848.57
41.85861126931294,2.1672250712498452e+16,2.5625862135597252e+16,1848311420269437.5,2061505089001962.2,67663035766.84854,130848899004.96101,1916403405817.4312,41679998486837.81
42.7957834946992,2.1913172220092244e+16,2.5911719801214852e+16,1868858338986510.2,2084421994138712.2,69937789245.02837,135247892388.11183,1980830739106.3079,43081231576671.9
43.751699164593184,2.2156191365420692e+16,2.620009917939692e+16,1889584154109890.8,2107538430504366.0,72283067852.24066,139783269807.40924,2047255541831.1177,44525907482449.9
44.72673314788505,2.2401332154953616e+16,2.64910299712242e+16,1910490913024086.0,2130856681639005.0,74700978543.38718,144459105778.92596,2115737488818.5054,46015324034364.07
