t(s),Total solute volume 1,Total retention volume 1,Total 1 volume 1,Total 2 volume 1,Total 3 volume 1,Total 4 volume 1,Total 5 volume 1,Total 6 volume 1
0.1,1012905215437994.5,1251976985692815.0,109237715628389.53,129834054626431.92,0.0,0.0,0.0,0.0
0.202,1525738336308926.2,1885863587683406.2,164544686446850.72,195568937841135.5,12831526.355928011,27363213.32121183,464043645.26761717,11122848108.489513
0.30604000000000003,1916402649489271.0,2368752636388182.5,206676246946563.1,245644238070279.72,32555822.216961235,69425271.78565162,1177369732.874922,28222531241.05548
0.41216080000000005,2246860095963227.8,2777229471716702.0,242314741220549.78,288002229929890.25,57827826.32608884,123317822.50246899,2091329959.7937894,50132127428.707344
0.5204040160000001,2540334988535743.0,3139999402717778.0,273964817160918.97,325619802877789.56,88050588.53926252,187767867.90826505,3184335044.81875,76333989829.46054
0.6308120963200001,2808400435180247.5,3471366799431049.0,302874587492624.44,359980396390448.9,122904007.13782535,262092790.63533664,4444808309.175914,106550562626.56123
0.7434283382464002,3057783323888356.0,3779646103258135.5,329769519782741.2,391946262090064.3,162205176.450295,345902544.15793884,5866134873.987691,140623254377.12796
0.8582969050113283,3292793151097495.0,4070163869587763.0,355114375730382.3,422069790663770.1,205851008.9541954,438977294.2693124,7444586525.841572,178462681286.71112
0.9754628431115548,3516383105041902.5,4346570268583574.0,379227644699839.94,450729521390611.06,253789966.15858045,541207135.1346027,9178299342.890873,220024154773.03302
1.094972099973786,3730679706487452.0,4611493720614414.0,402338663324250.25,478198031422019.06,306006404.3580359,652558706.5878036,11066707550.010658,265294108038.70667
1.2168715419732616,3937273584140502.0,4866900293640087.0,424618974453251.3,504679207335701.5,362511169.1136751,773055136.8507757,13110203363.750998,314281940955.51495
1.3412089728127268,4137390976329829.5,5114305678278615.0,446200822913300.25,530330228198755.25,423335595.35286593,902763247.7395296,15309920003.511124,367014817890.29395
1.4680331522689813,4332000716870865.5,5354907421465941.0,467188693498879.3,555275279001681.25,488527502.28121537,1041785013.8103367,17667586846.09692,423534195155.6638
1.597393815314361,4521884054136834.0,5589671222120363.0,487666840675933.1,579614500057744.5,558148424.688799,1190251658.118049,20185429295.014103,483893420475.05896
1.729341691620648,4707681937804102.0,5819389376997990.0,507704388265425.2,603430048211762.0,632271646.4015176,1348319458.549781,22866097659.650726,548156027939.35626
1.863928525453061,4889928056356008.0,6044721614607666.0,527358892404024.56,626790331582992.1,710980774.2161802,1516166706.7407317,25712615581.24262,616394501580.4493
2.001207095962122,5069072537521147.0,6266224388612671.0,546678897540171.2,649753047484181.8,794368687.8559704,1693991468.8537717,28728342057.7366,688689364964.5283
2.1412312378813647,5245499341951088.0,6484372376157403.0,565705812271624.0,672367411940885.8,882536758.8412035,1882009919.8212006,31916943194.055084,765128503940.8796
2.284055862638992,5419539283795823.0,6699574571105258.0,584475313561672.9,694675828667113.9,975594266.3825556,2080455097.7370815,35282371077.732796,845806660212.7305
2.4297369798917723,5591479948754577.0,6912186542609713.0,603018416360653.4,716715160359769.1,1073657960.7650626,2289575972.7737966,38828847988.596245,930825052784.783
2.578331719489608,5761573366183582.0,7122519917743820.0,621362301011634.4,738517712108399.8,1176851739.314837,2509636756.181339,42560854680.023445,1020291097021.2977
2.7298983538794,5930042025977775.0,7330849818306962.0,639530962146688.6,760112002638322.0,1285306409.8531733,2740916395.8535495,46483121824.207504,1114318199556.556
2.884496320956988,6097083655898680.0,7537420765573680.0,657545723902308.1,781523376667858.5,1399159523.2787957,2983708219.3102336,50600623957.4536,1213025613139.893
3.0421862473761276,6262875057178208.0,7742451421097413.0,675425653573707.2,802774496555527.6,1518555261.6377597,3238319695.006726,54918575432.19953,1316538339588.7961
3.2030299723236504,6427575215297215.0,7946138431652738.0,693187897099670.0,823885741039248.0,1643644371.406808,3505072290.0611763,59442428004.18897,1424987071942.1663
3.3670905717701234,6591327846245586.0,8148659576451867.0,710847953666352.9,844875531615593.0,1774584134.1570392,3784301407.6955123,64177869771.5129,1538508169022.3645
3.5344323832055258,6754263498344725.0,8350176365053350.0,728419902380316.6,865760601951130.9,1911538368.5618186,4076356391.5179625,69130825247.22208,1657243657172.6982
3.7051210308696363,6916501300692967.0,8550836198511700.0,745916590831262.4,886556221997930.1,2054677459.053791,4381600586.634836,74307456395.70503,1781341255099.5166
3.879223451487029,7078150428068911.0,8750774180082489.0,763349793075919.6,907276385764677.4,2204178407.4488087,4700411449.739384,79714164499.6757,1910954418626.6333
4.0568079205167695,7239311336408407.0,8950114642368765.0,780730342879211.1,927933969679939.6,2360224904.6295853,5033180701.9780245,85357592752.61794,2046242402841.3435
4.237944078927105,7400076811193823.0,9148972443238258.0,798068246778788.2,948540866974570.2,2523007419.9799647,5380314519.669791,91244629493.19046,2187370339630.093
4.422702960505647,7560532862175494.0,9347454071817676.0,815372780577107.1,969108102366996.6,2692723306.728236,5742233758.951846,97382412014.97827,2334509329007.1167
4.61115701971576,7720759491024755.0,9545658597440312.0,832652572129691.1,989645930460871.9,2869576921.725682,6119374211.208368,103778330898.30644,2487836542958.361
4.803380160110075,7880831353252206.0,9743678487914436.0,849915672730326.6,1010163920589662.1,3053779758.479764,6512186886.764739,110440034821.39935,2647535340776.95
4.9994477633122765,8040818331625306.0,9941600318414214.0,867169618951824.9,1030671030317262.1,3245550592.4955707,6921138324.829424,117375435816.68105,2813795395069.7397
5.199436718578522,8200786035102166.0,1.0139505388316714e+16,884421486454008.4,1051175669391243.5,3445115638.1693974,7346710928.070565,124592714944.85071,2986812827779.445
5.403425452950093,8360796234753168.0,1.0337470260164592e+16,901677936996084.0,1071685755619234.2,3652708716.6326895,7789403320.54457,132100328364.99013,3166790355700.56
5.611493962009095,8520907246115599.0,1.0535567232427758e+16,918945259672046.1,1092208763879097.4,3868571434.0720897,8249730727.9647875,139907013783.53265,3353937445077.8667
5.823723841249277,8681174265801445.0,1.0733864755730128e+16,936229407212447.8,1112751769265254.6,4092953370.156027,8728225379.522758,148021797268.7443,3548470474967.214
6.040198318074262,8841649668867023.0,1.0932427800585782e+16,953536028054522.0,1133321485205490.5,4326112276.286676,9225436930.66183,156454000420.53674,3750612909114.555
6.261002284435747,9002383272389209.0,1.1131318183374382e+16,970870494767796.9,1153924297246143.0,4568314283.469201,9741932906.359846,165213247888.09232,3960595476173.181
6.486222330124463,9163422569824140.0,1.1330594856211678e+16,988237929328744.1,1174566293092130.5,4819834119.653152,10278299164.611378,174309475230.0549,4178656358133.0366
6.715946776726952,9324812940011920.0,1.1530314165489862e+16,1005643225661063.8,1195253289397168.8,5080955336.454086,10835140379.913155,183752937113.95413,4405041386882.495
6.950265712261491,9486597832616498.0,1.1730530083195966e+16,1023091069640481.8,1215990855560206.2,5351970545.850936,11413080570.100477,193554225499.24884,4640006102153.459
7.18927102650672,9648818941711260.0,1.1931294414150186e+16,1040585957791851.4,1236784335868221.8,5633181663.012914,12012763526.371527,203724240147.36383,4883808593513.94
7.433056447036854,9811516347560136.0,1.2132656982729914e+16,1058132212614847.4,1257638867831237.5,5924900164.857035,12634853495.633621,214274255058.18018,5136720714976.3545
7.681717575977592,9974728658458646.0,1.2334665800970402e+16,1075733997857432.5,1278559400255465.2,6227447351.670641,13280035651.583118,225215890084.6648,5399021025773.29
7.935351927497144,1.0138493131989408e+16,1.2537367220541954e+16,1093395331598656.2,1299550708812912.8,6541154621.398022,13949016701.21424,236561130262.68835,5670996839399.12
8.194058966047088,1.0302845786190358e+16,1.2740806070413632e+16,1111120098237711.6,1320617410290920.5,6866363752.910036,14642525488.893755,248322336055.6272,5952944469354.004
8.45794014536803,1.0467821500451654e+16,1.294502578182999e+16,1128912059375253.2,1341763975525104.5,7203427199.019565,15361313621.21895,260512253951.32172,6245169483181.156
8.72709894827539,1.0633454107284784e+16,1.3150068502014424e+16,1146774863710309.2,1362994741162310.2,7552708389.395877,16106156112.98478,273144027417.0339,6547986965086.102
9.0016409272409,1.0799776475959976e+16,1.3355975197831108e+16,1164712056060268.8,1384313920381252.8,7914582043.54981,16877852054.627802,286231208218.61676,6861721787287.14
9.281673745785717,1.0966820588883374e+16,1.3562785750481896e+16,1182727085597801.2,1405725612682518.2,8289434494.078793,17677225301.548782,299787768110.7369,7186708890261.009
9.567307220701432,1.1134617611476856e+16,1.3770539042181942e+16,1200823313387157.8,1427233812845756.0,8677664020.377258,18505125185.752914,313828110905.5784,7523293572061.633
9.85865336511546,1.1303197956231064e+16,1.3979273035643328e+16,1219004019292012.8,1448842419139998.0,9079681193.03251,19362427250.277775,328367084927.98987,7871831786903.059
10.155826432417769,1.1472591341522768e+16,1.4189024847096584e+16,1237272408318670.8,1470555240862848.5,9495909229.141796,20250034006.90911,343419995865.5995,8232690453210.712
10.458942961066125,1.1642826845717426e+16,1.439983081349505e+16,1255631616450817.0,1492376005275346.8,9926784358.798647,21168875717.717815,359002620022.8797,8606247771356.513
10.768121820287448,1.18139329570189e+16,1.4611726554472866e+16,1274084716025600.0,1514308363991688.0,10372756203.01232,22119911200.975227,375131217988.6686,8992893551305.582
11.083484256693197,1.1985937619475298e+16,1.4824747029562704e+16,1292634720695179.8,1536355898876274.8,10834288163.334011,23104128662.035984,391822548727.1077,9393029550413.29
11.405153941827061,1.2158868275505104e+16,1.503892659112289e+16,1311284590013004.5,1558522127494669.8,11311857823.479664,24122546549.802097,409093884102.40704,9807069821622.377
11.733257020663602,1.2332751905267228e+16,1.5254299033374968e+16,1330037233679693.2,1580810508160072.8,11805957363.249191,25176214439.409813,426963023848.33276,10235441072321.312
12.067922161076874,1.2507615063164288e+16,1.5470897637909446e+16,1348895515479791.2,1603224444612309.8,12317093985.05515,26266213941.806927,445448310993.7158,10678583034134.584
12.409280604298411,1.2683483911737854e+16,1.5688755215979234e+16,1367862256937200.5,1625767290362488.2,12845790353.386656,27393659640.913364,464568647755.76764,11136948843927.404
12.75746621638438,1.2860384253186744e+16,1.5907904147867442e+16,1386940240714335.8,1648442352733040.5,13392585047.545313,28559700059.08633,484343511913.38184,11611005436317.215
13.112615540712067,1.3038341558716756e+16,1.6128376419587214e+16,1406132213777357.0,1671252896619764.8,13958033028.003273,29765518651.633026,504792973673.08606,12101233947995.225
13.474867851526309,1.3217380995908436e+16,1.6350203657144074e+16,1425440890347667.0,1694202147999805.2,14542706116.744455,31012334831.14438,525937713040.70776,12608130134171.076
13.844365208556836,1.3397527454270972e+16,1.6573417158569622e+16,1444868954657803.8,1717293297207156.2,15147193491.963646,32301405022.446014,547799037712.2806,13132204797465.342
14.221252512727972,1.3578805569134266e+16,1.6798047923914558e+16,1464419063528100.5,1740529501995144.8,15772102197.508797,33634023748.990547,570398901498.1696,13673984229584.348
14.605677562982532,1.3761239744016018e+16,1.7024126683370218e+16,1484093848778892.5,1763913890403450.0,16418057667.466064,35011524751.5404,593759923294.8145,14234010666123.047
14.997791114242183,1.3944854171588078e+16,1.7251683923673132e+16,1503895919491621.2,1787449563445539.0,17085704266.297592,36435282140.01904,617905406618.9613,14812842754852.232
15.397746936527026,1.4129672853354018e+16,1.7480749912931052e+16,1523827864131047.5,1811139597630978.8,17775705844.95659,37906711579.43253,642859359719.7123,15411056037857.38
15.805701875257567,1.4315719618140702e+16,1.7711354723997748e+16,1543892252539406.2,1834987047335631.8,18488746313.41622,39427271510.79515,668646516284.1881,16029243447908.066
16.221815912762718,1.4503018139495278e+16,1.794352825651049e+16,1564091637812682.2,1858994947031655.0,19225530230.061035,40998464408.01422,695292356753.0461,16668015819447.107
16.64625223101797,1.4691591952073432e+16,1.817730025769584e+16,1584428558067952.2,1883166313388098.0,19986783408.405483,42621838071.72458,722823130262.6102,17328002414601.203
17.079177275638333,1.4881464467094128e+16,1.8412700342038588e+16,1604905538110155.0,1907504147251905.5,20773253541.613964,44298986961.08649,751265877230.8291,18009851464625.94
17.5207608211511,1.5072658986932144e+16,1.864975800990059e+16,1625525091005827.0,1932011435518396.2,21585710845.313396,46031553564.59233,780648452604.7808,18714230727209.44
17.97117603757412,1.5265198718911698e+16,1.8888502665170124e+16,1646289719570684.0,1956691152899335.5,22424948719.202263,47821229810.95688,810999549787.9646,19441828060072.684
18.430599558325603,1.545910678836012e+16,1.9128963632013212e+16,1667201917777416.2,1981546263596102.5,23291784427.973465,49669758521.19475,842348725266.0765,20193352011313.633
18.899211549492115,1.5654406250974586e+16,1.9371170170794444e+16,1688264172089371.0,2006579722884918.8,24187059802.084435,51578934903.02375,874726423950.5865,20969532426959.273
19.37719578048196,1.5851120104551556e+16,1.961515149322892e+16,1709478962725554.0,2031794478620307.5,25111641958.921093,53550608088.75607,908164005259.8379,21771121076197.977
19.864739696091597,1.604927130012393e+16,1.986093677681977e+16,1730848764861710.2,2057193472662617.2,26066424044.91786,55586682717.88221,942693769958.0789,22598892294780.523
20.36203449001343,1.6248882752546846e+16,2.0108555178635252e+16,1752376049771939.2,2082779642234953.8,27052325999.21176,57689120565.57385,978348987773.252,23453643647090.293
20.869275179813698,1.6449977350570648e+16,2.0358035848470776e+16,1774063285915070.0,2108555921214304.0,28070295339.42382,59859942218.37622,1015163925815.021,24336196607397.152
21.38666068340997,1.6652577966435766e+16,2.060940794144199e+16,1795912939969393.8,2134525241361435.2,29121307970.17637,62101228798.38248,1053173877815.0808,25247397260822.27
21.91439389707817,1.6856707465022116e+16,2.0862700630046644e+16,1817927477819394.2,2160690533493622.5,30206369014.971878,64415123737.231064,1092415194212.3269,26188117024556.55
22.452681775019734,1.7062388712582232e+16,2.111794311573518e+16,1840109365497590.0,2187054728604092.2,31326513672.075714,66803834601.288704,1132925313106.136,27159253389889.0
23.00173541052013,1.7269644585086188e+16,2.1375164640023164e+16,1862461070084508.2,2213620758931673.5,32482808095.061447,69269634969.42815,1174742792101.5884,28161730685615.89
23.561770118730532,1.7478497976203064e+16,2.1634394495177496e+16,1884985060569427.0,2240391558983829.8,33676350298.694183,71814866364.84145,1217907341071.0325,29196500863416.28
24.133005521105144,1.7688971804943138e+16,2.1895662034506988e+16,1907683808674577.0,2267370066516281.0,34908271090.84739,74441940242.36739,1262459855857.173,30264544305796.113
24.715665631527248,1.790108902298167e+16,2.2158996682283516e+16,1930559789644971.2,2294559223471712.0,36179735031.16298,77153340032.85324,1308442452943.3247,31366870657216.383
25.309978944157795,1.8114872621684964e+16,2.2424427943320308e+16,1953615483006140.2,2321961976880420.5,37491941417.18638,79951623246.10484,1355898505117.294,32504519679037.863
25.91617852304095,1.833034563885713e+16,2.2691985412229976e+16,1976853373291750.0,2349581279725089.5,38846125298.72417,82839423634.02325,1404872678155.9568,33678562128931.715
26.53450209350177,1.8547531165224564e+16,2.296169878238543e+16,2000275950742925.0,2377420091771989.0,40243558521.19279,85819453415.5664,1455410968558.2458,34890100665419.48
27.165192135371807,1.8766452350674644e+16,2.3233597854603216e+16,2023885711981025.0,2405481380370583.0,41685550798.74422,88894505565.21143,1507560742355.097,36140270778225.21
27.808495978079243,1.8987132410262164e+16,2.350771254556838e+16,2047685160655497.0,2433768121223554.0,43173450817.97808,92067456166.64015,1561370775025.4175,37430241745136.305
28.464665897640828,1.9209594629998972e+16,2.3784072896018784e+16,2071676808068200.2,2462283299128809.0,44708647373.06298,95341266833.41003,1616891292548.077,38761217616090.734
29.133959215593645,1.9433862372437932e+16,2.406270907870544e+16,2095863173775621.0,2491029908695272.5,46292570533.11721,98718987198.41875,1674174013620.4543,40134438225220.81
29.816638399905518,1.9659959082063116e+16,2.4343651406142136e+16,2120246786170207.5,2520010955033803.0,47926692842.7162,102203757474.00848,1733272193075.0042,41551180231606.19
30.51297116790363,1.988790829049736e+16,2.4626930338161724e+16,2144830183041970.0,2549229454424713.5,49612530556.413734,105798811084.61066,1794240666525.8672,43012758189502.8
31.223230591261704,2.011773362153634e+16,2.4912576489288084e+16,2169615912121364.0,2578688434962976.0,51351644908.18714,109507477373.86511,1857135896278.4707,44520525648834.7
31.947695203086937,2.034945879601777e+16,2.5200620635937744e+16,2194606531604461.5,2608390937182427.0,53145643416.73739,113333184388.20024,1922016018535.7544,46075876286751.69
32.686649107148675,2.058310763653388e+16,2.5491093723460668e+16,2219804610661127.0,2638340014659748.5,54996181227.59535,117279461738.90527,1988940891935.37,47680245071074.945
33.44038208929165,2.0818704071993196e+16,2.578402687302944e+16,2245212729927016.5,2668538734599279.0,56904962493.005875,121349943544.76411,2057972147453.0586,49335109456471.93
34.20918973107749,2.10562721420378e+16,2.6079451388384036e+16,2270833481979937.5,2698990178399105.5,58873741790.58448,125548371457.37253,2129173239708.0828,51041990614214.65
34.993373525699035,2.129583600131956e+16,2.637739876243928e+16,2296669471801042.5,2729697442199277.5,60904325581.75882,129878597771.2985,2202609499707.366,52802454696397.82
35.793240996213015,2.1537419923638684e+16,2.6677900683758988e+16,2322723317221160.0,2760663637412273.5,62998573711.028725,134344588621.2909,2278348189065.6416,54618114135508.086
36.60910581613728,2.1781048305946384e+16,2.6980989042899024e+16,2348997649352418.5,2791891891235995.0,65158400947.09618,138950427268.77295,2356458555739.6523,56490628980248.23
37.44128793246003,2.202674567220976e+16,2.728669593862003e+16,2375495113005115.5,2823385347149251.5,67385778566.934944,143700317479.90958,2437011891315.0293,58421708268541.7
38.29011369110923,2.227453667713819e+16,2.759505368396861e+16,2402218367089577.5,2855147165389347.5,69682735983.88173,148598586997.55313,2520081589885.0044,60413111438647.15
39.15591596493141,2.2524446109764684e+16,2.790609481221967e+16,2429170085002367.5,2887180523411192.0,72051362420.85355,153649691109.41666,2605743208560.737,62466649779331.66
40.03903428423004,2.27764988968763e+16,2.8219852082674212e+16,2456352954996270.5,2919488616326931.5,74493808629.79141,158858216314.83307,2694074529653.244,64584187920055.984
40.93981496991464,2.3030720106281092e+16,2.853635848629796e+16,2483769680532607.5,2952074657324773.5,77012288658.45618,164228884092.48892,2785155624567.2954,66767645362132.47
41.85861126931294,2.328713494989858e+16,2.8855647251185908e+16,2511422980614527.5,2984941878065091.5,79609081665.68932,169766554771.51285,2879068919447.7964,69018998051818.72
42.7957834946992,2.3545768786654204e+16,2.9177751847829064e+16,2539315590099188.5,3018093529051448.0,82286533786.26112,175476231508.31485,2975899262618.999,71340279996307.6
43.751699164593184,2.3806647125155188e+16,2.950270599415689e+16,2567450259986285.0,3051532879973554.5,85047060046.41898,181363064371.53516,3075733993856.756,73733584923570.22
