t(s),Total solute volume 1,Total retention volume 1,Total 1 volume 1,Total 2 volume 1,Total 3 volume 1,Total 4 volume 1,Total 5 volume 1,Total 6 volume 1
0.1,1390364305082634.2,4522349373840332.0,1040967157064613.5,2091017911693084.5,0.0,0.0,0.0,-7.577716622845604e-138
0.202,2075527250025706.2,6752623511665014.0,1553949552341506.5,3121461349962856.0,283034550.040578,1351507295.8791661,70152792560.15314,1613572000535.579
0.30604000000000003,2601697131580457.5,8466843536972005.0,1947893551119072.0,3912787813101894.5,716669333.2730386,3422434338.8328433,178738666273.3175,4282163400636.0522
0.41216080000000005,3047361755602881.5,9920064301863508.0,2281563161904705.0,4583039311372050.0,1271777825.2873378,6073549666.340938,317996555156.05164,7774731101222.649
0.5204040160000001,3443231805422452.0,1.1212070410948614e+16,2577951515684042.0,5178402874152799.0,1935262377.6807268,9242283196.368265,484563785753.9312,11988474357992.527
0.6308120963200001,3804769438251173.0,1.2393099670293972e+16,2848635148953296.5,5722132634825732.0,2700060688.347789,12894899942.17719,676642031197.3379,16870211271957.502
0.7434283382464002,4140999461627719.5,1.3492475516757626e+16,3100370945960774.5,6227801342601927.0,3562109079.473256,17011989204.028973,893198991358.1184,22389993477568.047
0.8582969050113283,4457716217132125.0,1.452902719187937e+16,3337497137055834.5,6704123324799735.0,4519089394.047148,21582478014.744835,1133645900478.7502,28530765423787.516
0.9754628431115548,4758895563901905.0,1.5515677432971432e+16,3562990452585591.5,7157078024087369.0,5569810359.931865,26600675953.11591,1397679561415.5276,35283542348837.26
1.094972099973786,5047402646243675.0,1.646174192651849e+16,3778996029387705.5,7590974437361565.0,6713864535.232231,32064636471.230373,1685195086163.0464,42644839938376.37
1.2168715419732616,5325381495949911.0,1.7374194984048666e+16,3987119106517388.5,8009037053456410.0,7951421941.361635,37975171167.58313,1996233522941.3,50615168008909.85
1.3412089728127268,5594485246252095.0,1.825841736585527e+16,4188597386708410.5,8413752080578832.0,9283098254.543034,44335220205.84572,2330948454141.231,59198085543324.69
1.4680331522689813,5856019938132080.0,1.911866338455762e+16,4384408704327555.5,8807083722008974.0,10709866692.715933,51149431449.54821,2689583689929.0825,68399577100922.23
1.597393815314361,6111038466154321.0,1.9958366033410844e+16,4575341362728796.0,9190615464744838.0,12232996993.52905,58423868997.98335,3072457831472.8965,78227625085411.02
1.729341691620648,6360404258159795.0,2.0780343799780852e+16,4762041811313874.0,9565645849764974.0,13854011970.40205,66165805683.063286,3479953286909.763,88691907437653.05
1.863928525453061,6604835795655214.0,2.1586945247023636e+16,4945047977998981.0,9933255427895872.0,15574655911.549517,74383572133.0355,3912508284896.6733,99803578960628.25
2.001207095962122,6844938569406656.0,2.238015278743767e+16,5124813194404427.0,1.0294354819014654e+16,17396871215.599785,83086445177.24591,4370610971621.9023,111575110323927.75
2.1412312378813647,7081228542258698.0,2.316165887375553e+16,5301723762494137.0,1.0649719998651966e+16,19322780914.17146,92284564369.01894,4854794996170.619,124020168009278.6
2.284055862638992,7314149719627576.0,2.3932923055937544e+16,5476112109623899.0,1.1000018722906864e+16,21354675503.53288,101988869090.0724,5365636184859.817,137153524049758.33
2.4297369798917723,7544087537532746.0,2.469521545692671e+16,5648266812175913.0,1.1345830663202612e+16,23495002997.704613,112211051041.48807,5903750029387.159,150990987932029.62
2.578331719489608,7771379221565422.0,2.5449650413404696e+16,5818440351330245.0,1.1687662985522024e+16,25746361436.035557,122963518457.91821,6469789794847.051,165549355312256.25
2.7298983538794,7996321912601864.0,2.6197212866053004e+16,5986855196795626.0,1.2025962570967956e+16,28111493293.494923,134259369409.64886,7064445108140.337,180846369716715.4
2.884496320956988,8219179119496754.0,2.6938779318665884e+16,6153708637948260.0,1.236112572020694e+16,30593281389.671894,146112372262.8575,7688440924684.833,196900694435617.53
3.0421862473761276,8440185900323476.0,2.767513467012043e+16,6319176663032338.0,1.2693505945727572e+16,33194745995.982697,158536951862.78076,8342536797511.17,213731892541682.75
3.2030299723236504,8659553064710147.0,2.840698586914579e+16,6483417105453721.0,1.3023420291888712e+16,35919042914.42137,171548180357.18622,9027526391495.555,231360413478447.44
3.3670905717701234,8877470613557262.0,2.913497309416272e+16,6646572219100493.0,1.3351154508037682e+16,38769462354.7294,185161771833.2609,9744237199013.424,249807585034080.1
3.5344323832055258,9094110578197480.0,2.985967898436993e+16,6808770804025018.0,1.3676967318427202e+16,41749428476.26217,199394080129.21884,10493530423253.31,269095609788390.0
3.7051210308696363,9309629381922722.0,3.0581636321172508e+16,6970129974522058.0,1.4001093973803172e+16,44862499490.21836,214262099322.31274,11276301002855.293,289247565322902.4
3.879223451487029,9524169818174268.0,3.130133446608159e+16,7130756640201807.0,1.4323749226477508e+16,48112368240.09649,229783466500.94382,12093477757144.346,310287407636128.06
4.0568079205167695,9737862718481262.0,3.2019224792348428e+16,7290748754777428.0,1.4645129838802382e+16,51502863195.19528,245976466509.54156,12946023635510.215,332239977322157.3
4.237944078927105,9950828367339814.0,3.27357252959914e+16,7450196375386577.0,1.4965416711058946e+16,55037949805.06179,262860038417.39517,13834936057789.629,355131008160060.94
4.422702960505647,1.0163177709185052e+16,3.3451224532786748e+16,7609182566252749.0,1.5284776696667152e+16,58721732172.991875,280453783511.3274,14761247335081.865,378987137831045.4
4.61115701971576,1.0375013383399584e+16,3.4166084997896884e+16,7767784173597296.0,1.5603364158772974e+16,62558455014.708466,298777974650.4314,15726025162453.297,403835920534880.2
4.803380160110075,1.0586430616190894e+16,3.4880646041725304e+16,7926072493389045.0,1.5921322311575736e+16,66552505874.70998,317853566851.4756,16730373176593.23,429705841320308.6
4.9994477633122765,1.0797517992633262e+16,3.5595226397614476e+16,8084113849372910.0,1.6238784381430316e+16,70708417577.86385,337702208997.8775,17775431572766.406,456626331978623.44
5.199436718578522,1.100835812782277e+16,3.63101263828904e+16,8241970095564432.0,1.6555874616221954e+16,75030870897.92033,358346256584.73584,18862377776442.06,484627788377330.9
5.403425452950093,1.1219028252655934e+16,3.702562982360096e+16,8399699054822892.0,1.687270916634015e+16,79524697427.94597,379808785428.24304,19992427165817.53,513741589133297.7
5.611493962009095,1.1429600727003182e+16,3.774200574440158e+16,8557354903064908.0,1.7189396856459408e+16,84194882640.38423,402113606280.8045,21166833842138.875,544000115543079.2
5.823723841249277,1.164014349085289e+16,3.8459509857918264e+16,8714988507036418.0,1.7506039864031014e+16,89046569126.68326,425285280303.7987,22386891445283.785,575436772703185.8
6.040198318074262,1.1850720462228292e+16,3.91783858821603e+16,8872647722233529.0,1.7822734317725152e+16,94085060008.27345,449349135358.72235,23653934012535.363,608086011765452.0
6.261002284435747,1.2061391889241524e+16,3.989886670989283e+16,9030377656485872.0,1.8139570826898012e+16,99315822512.20111,474331283084.7753,24969336878863.074,641983353282977.8
6.486222330124463,1.2272214662474864e+16,4.062117545006103e+16,9188220903836624.0,1.8456634951393024e+16,104744491706.0113,500258636737.0391,26334517617348.516,677165411610748.8
6.715946776726952,1.2483242592914078e+16,4.1345526358236504e+16,9346217752631690.0,1.8774007619535696e+16,110376874387.53993,527158929764.53186,27750937018664.43,713669920332239.4
6.950265712261491,1.2694526659865524e+16,4.2072125670471816e+16,9504406371135358.0,1.9091765500984496e+16,116218953126.18236,555060735111.7488,29220100108744.758,751535758689444.0
7.18927102650672,1.2906115232628202e+16,4.280117235281562e+16,9662822973496494.0,1.9409981340112332e+16,122276890452.97527,583993485230.9558,30743557203976.13,790802978998906.2
7.433056447036854,1.311805426914432e+16,4.353285877695713e+16,9821501968478584.0,1.9728724254764068e+16,128557033197.47833,613987492795.633,32322905003406.453,831512835040771.2
7.681717575977592,1.3330387494393246e+16,4.426737133098429e+16,9980476093023104.0,2.0048060004549692e+16,135065916969.99953,645073972108.1154,33959787717607.117,873707811411613.4
7.935351927497144,1.3543156560907626e+16,4.500489097298783e+16,1.013977653242851e+16,2.036805123225059e+16,141810270788.19452,677285061196.781,35655898233946.11,917431653835049.2
8.194058966047088,1.3756401193467286e+16,4.574559373419142e+16,1.0299433028682566e+16,2.0688757681430064e+16,148797021847.46854,710653844600.0879,37412979318133.58,962729400426956.5
8.45794014536803,1.3970159319750606e+16,4.648965117740006e+16,1.0459473978281088e+16,2.1010236392924548e+16,156033300434.97928,745214376836.467,39232824851989.77,1009647413914482.2
8.72709894827539,1.418446718849034e+16,4.723723081579385e+16,1.0619926520691596e+16,2.1332541882542748e+16,163526444987.33643,781001706560.5588,41117281107466.945,1058233414810184.0
9.0016409272409,1.4399359476482168e+16,4.798849649646218e+16,1.0780816618470364e+16,2.165572630199943e+16,171284007292.36588,818051901407.5342,43068248057018.11,1108536515544451.5
9.281673745785717,1.4614869385623936e+16,4.8743608752509624e+16,1.0942169129916182e+16,2.197983958485662e+16,179313757835.54037,856402073528.3694,45087680720471.52,1160607255560936.8
9.567307220701432,1.4831028731018408e+16,4.9502725127102504e+16,1.1104007875032744e+16,2.230492957902438e+16,187623691291.8754,896090405819.9166,47177590548615.42,1214497637381181.2
9.85865336511546,1.5047868021046208e+16,5.0266000472411816e+16,1.126635569547948e+16,2.2631042167185596e+16,196222032164.27124,937156178854.4277,49340046843745.14,1270261163645785.0
10.155826432417769,1.5265416530208522e+16,5.103358722606105e+16,1.1429234509108824e+16,2.2958221376346584e+16,205117240569.43063,979639798513.953,51577178217463.016,1327952875140617.8
10.458942961066125,1.5483702365444236e+16,5.1805635667382584e+16,1.1592665359618134e+16,2.3286509477574144e+16,214318018172.6235,1023582824335.6725,53891174086055.555,1387629389817468.8
10.768121820287448,1.5702752526546524e+16,5.258229415552428e+16,1.1756668461783498e+16,2.3615947076858096e+16,223833314272.67856,1069027998574.7488,56284286203802.16,1449348942819455.8
11.083484256693197,1.5922592961231964e+16,5.336370935121855e+16,1.1921263242690028e+16,2.394657319793182e+16,233672332038.68866,1116019275991.8237,58758830234596.086,1513171427522125.0
11.405153941827061,1.6143248615354426e+16,5.415002642382605e+16,1.2086468379327236e+16,2.4278425357790856e+16,243844534900.00146,1164601854372.6467,61317187362279.59,1579158437601994.5
11.733257020663602,1.6364743478702438e+16,5.494138924509265e+16,1.225230183287741e+16,2.4611539635569104e+16,254359653091.1474,1214822205787.7463,63961805940116.14,1647373310144718.8
12.067922161076874,1.6587100626770816e+16,5.5737940570906296e+16,1.2418780879990128e+16,2.4945950735360904e+16,265227690353.4127,1266728108600.2705,66695203179836.99,1717881169805698.2
12.409280604298411,1.6810342258856572e+16,5.653982221220376e+16,1.2585922141304652e+16,2.5281692043514544e+16,276458930794.8282,1320368680230.515,69519966880716.336,1790748974036247.0
12.75746621638438,1.7034489732792742e+16,5.734717519606311e+16,1.2753741607455368e+16,2.561879568087029e+16,288063945910.38855,1375794410685.714,72438757199138.14,1866045559388983.2
13.112615540712067,1.7259563596601464e+16,5.816013991790986e+16,1.292225466277025e+16,2.5957292550364036e+16,300053601764.3413,1433057196864.0105,75454308459129.14,1943841688916316.2
13.474867851526309,1.74855836173195e+16,5.897885628567609e+16,1.309147610685268e+16,2.6297212380379436e+16,312439066336.4359,1492210377641.4873,78569431004339.45,2024210100676247.0
13.844365208556836,1.7712568807224106e+16,5.980346385666961e+16,1.3261420174216842e+16,2.6638583764190016e+16,325231817034.0185,1553308769751.4155,81787013091958.1,2107225557359902.0
14.221252512727972,1.7940537447665572e+16,6.0634101967835256e+16,1.3432100552131008e+16,2.6981434195801292e+16,338443648371.8949,1616408704464.7795,85110022829053.64,2192964897055494.8
14.605677562982532,1.8169507110691828e+16,6.147090986003378e+16,1.360353039680807e+16,2.7325790102473676e+16,352086679821.877,1681568065081.3137,88541510151836.95,2281507085163429.5
14.997791114242183,1.8399494678634776e+16,6.231402679689772e+16,1.3775722348069746e+16,2.767167687417822e+16,366173363833.9342,1748846325240.1797,92084608848334.6,2372933267477566.0
15.397746936527026,1.863051636181027e+16,6.31635921787804e+16,1.3948688542598636e+16,2.8019118890216864e+16,380716494030.86224,1818304588059.479,95742538624972.38,2467326824447530.0
15.805701875257567,1.886258771447177e+16,6.401974565226431e+16,1.4122440625882644e+16,2.836813954321538e+16,395729213578.38745,1890005626113.686,99518607217555.53,2564773426637257.0
16.221815912762718,1.909572364914364e+16,6.488262721565822e+16,1.429698976294658e+16,2.8718761260680144e+16,411225023732.5734,1964013922257.9902,103416212547137.83,2665361091394662.5
16.64625223101797,1.9329938449450332e+16,6.575237732087203e+16,1.4472346647956966e+16,2.907100552429184e+16,427217792566.41925,2040395711308.5488,107438844921255.38,2769180240747710.0
17.079177275638333,1.9565245781545976e+16,6.662913697203039e+16,1.4648521512779786e+16,2.94248928870955e+16,443721763877.46954,2119219022587.3228,111590089281010.0,2876323760541635.5
17.5207608211511,1.9801658704242452e+16,6.751304782115415e+16,1.4825524134563188e+16,2.9780442988731932e+16,460751566278.24884,2200553723340.2144,115873627494460.1,2986887060832489.5
17.97117603757412,2.003918967792315e+16,6.840425226121237e+16,1.5003363842411312e+16,3.013767456884406e+16,478322222471.2863,2284471563036.9155,120293240696788.3,3100968137551599.0
18.430599558325603,2.027785057232524e+16,6.930289351682692e+16,1.5182049523210786e+16,3.0496605478780176e+16,496449158710.4552,2371046218560.6216,124852811677685.84,3218667635455801.5
18.899211549492115,2.0517652673264228e+16,7.0209115732886824e+16,1.5361589626665448e+16,3.085725269170804e+16,515148214450.2919,2460353340295.784,129556327316396.64,3340088912377867.0
19.37719578048196,2.0758606688370988e+16,7.112306406131279e+16,1.5541992169591734e+16,3.1219632311242508e+16,534435652184.92194,2552470599121.433,134407881064840.67,3465338104791414.5
19.864739696091597,2.100072275190447e+16,7.204488474619586e+16,1.5723264739521926e+16,3.1583759578683944e+16,554328167478.1487,2647477734317.6494,139411675479227.47,3594524194704482.5
20.36203449001343,2.1244010428700424e+16,7.297472520751474e+16,1.5905414497660416e+16,3.194964887895631e+16,574842899186.2,2745456602392.3403,144572024800555.94,3727759077895497.0
20.869275179813698,2.148847871730949e+16,7.39127341236265e+16,1.6088448181233444e+16,3.23173137453273e+16,595997439874.5558,2846491226834.9863,149893357584371.0,3865157633505280.5
21.38666068340997,2.173413605237781e+16,7.485906151271086e+16,1.627237210527139e+16,3.2686766862988124e+16,617809846430.1995,2950667848804.0054,155380219380142.7,4006837794998232.5
21.91439389707817,2.1980990306316516e+16,7.58138588133358e+16,1.6457192163858618e+16,3.305802007156484e+16,640298650870.5981,3058074978753.6587,161037275460604.4,4152920622505657.0
22.452681775019734,2.2229048790305692e+16,7.677727896430379e+16,1.6642913830885154e+16,3.3431084366627468e+16,663482871350.5189,3168803449006.174,166869313601362.4,4303530376563733.5
23.00173541052013,2.2478318254673964e+16,7.774947648392686e+16,1.682954216033103e+16,3.3805969900261816e+16,687382023367.8745,3282946467274.4424,172881246911086.06,4458794593258250.5
23.561770118730532,2.2728804888693884e+16,7.873060754887066e+16,1.7017081786113036e+16,3.4182685980761116e+16,712016131169.5157,3400599671139.8784,179078116712537.56,4618844160787859.0
24.133005521105144,2.2980514319829868e+16,7.972083007270102e+16,1.7205536921521504e+16,3.456124107149516e+16,737405739357.9076,3521861183489.867,185465095474701.5,4783813397457012.0
24.715665631527248,2.3233451612474024e+16,8.072030378425629e+16,1.7394911358274006e+16,3.4941642789009124e+16,763571924699.4756,3646831668918.5757,192047489796230.1,4953840131109419.0
25.309978944157795,2.3487621266202964e+16,8.172919030596693e+16,1.7585208465210156e+16,3.5323897900401844e+16,790536308135.3132,3775614391094.395,198830743440403.4,5129065780012254.0
25.91617852304095,2.37430272135877e+16,8.274765323223253e+16,1.7776431186651838e+16,3.570801232003221e+16,818321066994.7919,3908315271096.6577,205820440421768.94,5309635435200910.0
26.53450209350177,2.3999672817586696e+16,8.377585820796845e+16,1.7968582040451502e+16,3.6093991105598296e+16,846948947412.5632,4045042946723.9927,213022308144606.53,5495697944293319.0
27.165192135371807,2.4257560868551176e+16,8.481397300742029e+16,1.8161663115749836e+16,3.648183845363361e+16,876443276949.2389,4185908832775.5703,220442220593318.66,5687405996782597.0
27.808495978079243,2.4516693580870504e+16,8.586216761334718e+16,1.8355676070464316e+16,3.68715576944619e+16,906827977415.9896,4331027182306.52,228086201574828.7,5884916210815824.0
28.464665897640828,2.4777072589284344e+16,8.692061429666995e+16,1.8550622128528244e+16,3.726315128665129e+16,938127577903.0872,4480515148857.605,235960428013027.25,6088389221466364.0
29.133959215593645,2.503869894488811e+16,8.798948769667285e+16,1.874650207689955e+16,3.7656620811005896e+16,970367228012.3231,4634492849658.924,244071233295281.94,6297989770506417.0
29.816638399905518,2.530157311085625e+16,8.906896490184808e+16,1.8943316262359348e+16,3.805196696413481e+16,1003572711293.137,4793083429806.581,252425110670983.38,6513886797685652.0
30.51297116790363,2.5565694957908164e+16,9.015922553146766e+16,1.9141064588117012e+16,3.844918955163281e+16,1037770458882.0388,4956413127410.676,261028716702066.28,6736253533521348.0
31.223230591261704,2.5831063759540984e+16,9.12604518179654e+16,1.9339746510240972e+16,3.884828748091062e+16,1072987563344.8563,5124611339712.259,269888874765416.8,6965267593604441.0
31.947695203086937,2.6097678187052068e+16,9.23728286902082e+16,1.953936103393186e+16,3.924925875370889e+16,1109251792721.146,5297810690166.021,279012578607025.53,7201111074425331.0
32.686649107148675,2.6365536304374476e+16,9.349654385773429e+16,1.9739906709656388e+16,3.965210045833198e+16,1146591604769.9492,5476147096484.892,288406995947718.4,7443970650722506.0
33.44038208929165,2.6634635562748596e+16,9.463178789603667e+16,1.9941381629157396e+16,4.005680876163328e+16,1185036161415.9539,5659759839642.105,298079472140256.3,7694037674356053.0
34.20918973107749,2.6904972795251616e+16,9.577875433296043e+16,2.014378342135807e+16,4.0463378900788376e+16,1224615343394.9058,5848791633825.137,308037533877557.94,7951508274707625.0
34.993373525699035,2.7176544211206584e+16,9.693763973629216e+16,2.034710924817673e+16,4.087180517488716e+16,1265359765097.0168,6043388697335.576,318288892951744.9,8216583460607408.0
35.793240996213015,2.7449345390495064e+16,9.810864380260837e+16,2.0551355800267828e+16,4.128208093637982e+16,1307300789606.905,6243700824428.04,328841450063697.94,8489469223787781.0
36.60910581613728,2.772337127779278e+16,9.92919694474545e+16,2.075651929270669e+16,4.169419858240754e+16,1350470543938.4614,6449881458080.289,339703298682744.94,8770376643862726.0
37.44128793246003,2.799861617675165e+16,1.004878228969227e+17,2.0962595460633268e+16,4.210814954605272e+16,1394901934462.8928,6662087763686.292,350882728956067.9,9059521994830930.0
38.29011369110923,2.82750737441491e+16,1.0169641378069562e+17,2.1169579554872264e+16,4.252392428754085e+16,1440628662527.9854,6880480703662.99,362388231667392.25,9357126853099828.0
39.15591596493141,2.8552736984027716e+16,1.0291795522662213e+17,2.137746633754466e+16,4.294151228542502e+16,1487685240266.4907,7105225112960.583,374228502244453.2,9663418207027016.0
40.03903428423004,2.883159824184494e+16,1.0415266395689366e+17,2.15862500776884e+16,4.336090202778957e+16,1536107006591.398,7336489775465.866,386412444814722.5,9978628567973982.0
