t(s),Total solute volume 1,Total retention volume 1,Total 1 volume 1,Total 2 volume 1,Total 3 volume 1,Total 4 volume 1,Total 5 volume 1,Total 6 volume 1
0.1,919935341976466.9,1072551036543860.6,72903600131805.52,79712094435588.67,0.0,0.0,0.0,0.0
0.202,1205758201801492.5,1785755861076064.8,95554665686288.25,104478552194546.73,652062658890.1296,1223588914113.9553,17117662586876.822,360971127233856.3
0.30604000000000003,1353883769116019.0,2440089525132736.0,107293411573418.14,117313584174312.25,1478411683172.9373,2774919741533.557,38821170584664.9,818524258259613.9
0.41216080000000005,1445014071758864.0,3077584914218366.5,114515361737596.61,125209995100179.72,2389698541958.259,4486514809489.398,62767636126960.08,1323201636143317.2
0.5204040160000001,1506682097234711.2,3711952551398446.0,119402467276902.69,130553509348954.94,3354347103316.315,6299224929927.385,88129659020205.25,1857531246484429.0
0.6308120963200001,1551105779387028.5,4349301437894886.5,122922982511951.34,134402806890811.19,4358380510329.838,8186902551068.0625,114541512083805.03,2413783073959895.0
0.7434283382464002,1584574574383382.0,4992896883429008.0,125575338125367.58,137302867044077.08,5394804076433.138,10136494670676.521,141820654185977.62,2988092150943091.0
0.8582969050113283,1610661467663489.8,5644719616594471.0,127642688260261.53,139563287827654.36,6459853647563.11,12141008613303.045,169869326754436.88,3578381983827763.5
0.9754628431115548,1631546352711264.0,6306093855503856.0,129297786453426.2,141372956298559.0,7551425325797.681,14196567856806.844,198633367101267.88,4183495399756733.5
1.094972099973786,1648633707939580.2,6977977700257718.0,130651935672194.6,142853570051755.66,8668337817223.338,16301029030756.062,228082861366162.2,4802786258380039.0
1.2168715419732616,1662868400330364.2,7661111471541642.0,131780015315129.78,144087001502166.03,9809955051400.416,18453274431646.895,258202247435104.5,5435910577475820.0
1.3412089728127268,1674908890486425.8,8356099469469248.0,132734207472273.67,145130306045695.22,10975979882429.531,20652825325773.45,288984905446302.3,6082712354810339.0
1.4680331522689813,1685227708032458.0,9063457831704034.0,133551959461390.8,146024428219832.66,12166335143271.559,22899619049261.746,320430039706541.1,6743157742091274.0
1.597393815314361,1694172481566394.2,9783643956106768.0,134260820367012.81,146799489928960.3,13381091991220.428,25193874788384.18,352540801189302.25,7417295396275497.0
1.729341691620648,1702004465509177.8,1.0517075345111472e+16,134881494239873.95,147478128783274.72,14620425126622.43,27536009756049.438,385323115048231.6,8105231706648252.0
1.863928525453061,1708923672428865.5,1.1264142102724624e+16,135429831798757.52,148077675806446.34,15884583919303.19,29926585203647.883,418784925514929.9,8807114828052686.0
2.001207095962122,1715085738375024.0,1.2025215475868486e+16,135918166984869.72,148611616811327.22,17173873287033.7,32366270726071.016,452935696714091.8,9523124112970050.0
2.1412312378813647,1720613523523646.5,1.2800653849139464e+16,136356236296865.95,149090597592038.78,18488640736621.05,34855820129576.445,487786075243433.0,1.025346295561728e+16
2.284055862638992,1725605267008348.0,1.3590807053204252e+16,136751825049922.77,149523130537428.03,19829267404340.195,37396054806271.61,523347657774604.44,1.099835385062333e+16
2.4297369798917723,1730140431254150.5,1.4396019528526316e+16,137111230531085.12,149916101040676.34,21196161753572.527,39987852098727.62,559632828471268.06,1.1758034923376832e+16
2.578331719489608,1734283963409275.2,1.5216632694961726e+16,137439599711831.84,150275136750974.75,22589755075308.113,42632137052910.35,596654643816176.5,1.2532757459145252e+16
2.7298983538794,1738089451263878.2,1.605298675961561e+16,137741179350259.62,150604881032847.03,24010498235061.31,45329876516217.84,634426750253641.9,1.3322784122963706e+16
2.884496320956988,1741601493554470.8,1.6905422120387456e+16,138019503834424.02,150909198352256.97,25458859296231.09,48082074887108.555,672963324945806.5,1.412838766551716e+16
3.0421862473761276,1744857503137188.8,1.7774280473943064e+16,138277538081319.72,151191330520978.56,26935321769299.797,50889771046645.445,712279033072513.2,1.4949849976315126e+16
3.2030299723236504,1747889094847739.0,1.8659905704548036e+16,138517787522858.78,151454016954209.94,28440383314219.887,53754036148473.31,752388997149803.6,1.5787461388610746e+16
3.3670905717701234,1750723165215943.0,1.9562644608355452e+16,138742383671752.61,151699588227484.1,29974554775190.688,56675972040999.68,793308775202541.5,1.664152016922155e+16
3.5344323832055258,1753382740783103.2,2.0482847492711104e+16,138953151349485.33,151930039583093.9,31538359462099.316,59656710161329.9,835054345546917.4,1.7512332145825074e+16
3.7051210308696363,1755887650718508.2,2.142086867953234e+16,139151661990240.08,152147089212088.9,33132332616988.746,62697410785690.414,877642096570778.4,1.8400210437638052e+16
3.879223451487029,1758255064651245.2,2.237706693436295e+16,139339276263327.22,152352224857229.4,34757021020695.414,65799262552560.22,921088820340055.4,1.9305475264677852e+16
4.0568079205167695,1760499926117765.2,2.3351805837347268e+16,139517178423298.9,152546741371075.16,36412982706639.22,68963482196942.06,965411709170502.9,2.0228453817361068e+16
4.237944078927105,1762635304450813.0,2.434545410846577e+16,139686404196661.95,152731771207046.0,38100786757208.484,72191314450086.31,1010628354526024.1,2.116948017287793e+16
4.422702960505647,1764672682416663.0,2.5358385896500496e+16,139847863576730.17,152908309343095.4,39821013164290.55,75484032070451.56,1056756747765367.2,2.2128895248163892e+16
4.61115701971576,1766622192843347.5,2.639098103906057e+16,140002359576080.55,153077233785468.03,41574252739957.31,78842935980054.64,1103815282376160.1,2.310704678175948e+16
4.803380160110075,1768492814459674.8,2.7443625299389076e+16,140150603746528.25,153239322538087.06,43361107066601.95,82269355486552.2,1151822757421708.5,2.4104289338669936e+16
4.9994477633122765,1770292534895458.0,2.851671058445283e+16,140293229096665.72,153395267726472.25,45182188478267.25,85764648575979.1,1200798381990307.2,2.5120984333689696e+16
5.199436718578522,1772028487074564.0,2.9610635147880796e+16,140430800900823.69,153545687416150.06,47038120066733.68,89330202264532.44,1250761780485095.0,2.615750006967293e+16
5.403425452950093,1773707063919908.5,3.072580378059652e+16,140563825789283.36,153691135551807.7,48929535707329.52,92967433000395.31,1301732998629117.8,2.7214211787998676e+16
5.611493962009095,1775334015279517.5,3.186262799142655e+16,140692759429532.48,153832110355901.9,50857080100467.75,96677787108591.06,1353732510088130.5,2.8291501729064376e+16
5.823723841249277,1776914530199796.5,3.302152617952857e+16,140818013046306.25,153969061457612.28,52821408825735.266,100462741273390.3,1406781223635115.5,2.9389759201090576e+16
6.040198318074262,1778453307060953.2,3.4202923800132772e+16,140939958979725.53,154102395970051.84,54823188405972.28,104323803053977.55,1460900490797157.0,3.0509380655864892e+16
6.261002284435747,1779954613609357.8,3.5407253524815708e+16,141058935442775.47,154232483692052.34,56863096379271.67,108262511430009.47,1516112113938245.5,3.1650769770324036e+16
6.486222330124463,1781422338541932.8,3.663495539730334e+16,141175250609296.88,154359661577934.22,58941821377200.88,112280437374422.3,1572438354741703.5,3.2814337533080812e+16
6.715946776726952,1782860035995720.2,3.788647698562105e+16,141289186139725.75,154484237592513.47,61060063207844.9,116379184451415.06,1629901943064038.8,3.40005023351698e+16
6.950265712261491,1784270964054438.5,3.916227353126713e+16,141401000232680.88,154606494047682.47,63218532942503.81,120560389437993.67,1688526086138365.0,3.5209690064413456e+16
7.18927102650672,1785658118189496.0,4.046280809596352e+16,141510930275119.7,154726690500061.44,65417953005059.22,124825722967820.97,1748334478110679.2,3.644233420291527e+16
7.433056447036854,1787024260396238.8,4.178855170644616e+16,141619195151346.56,154845066275647.97,67659057263169.91,129176890196412.02,1809351309896309.0,3.769887592726708e+16
7.681717575977592,1788371944658724.0,4.313998349767381e+16,141725997261057.66,154961842676327.3,69942591120575.77,133615631486945.69,1871601279347351.8,3.897976421112281e+16
7.935351927497144,1789703539272353.8,4.451759085476981e+16,141831524288380.97,155077224914123.34,72269311609873.34,138143723116163.48,1935109601724425.2,4.028545592984451e+16
8.194058966047088,1791021246468571.2,4.592186955395634e+16,141935950757107.1,155191403811672.88,74639987485209.48,142762977999973.28,1999902020468526.5,4.161641596696528e+16
8.45794014536803,1792327119715790.2,4.735332390269242e+16,142039439401761.25,155304557301344.12,77055399314385.52,147475246438517.66,2066004818270411.2,4.297311732225016e+16
8.72709894827539,1793623079012695.2,4.88124668791905e+16,142142142379578.56,155416851750397.47,79516339569921.6,152282416880557.47,2133444828436622.2,4.435604122116067e+16
9.0016409272409,1794910924442133.5,5.0299820271450344e+16,142244202344629.97,155528443135424.12,82023612718659.17,157186416707133.47,2202249446552528.8,4.576567722554983e+16
9.281673745785717,1796192348213757.0,5.181591481592184e+16,142345753402184.75,155639478085838.75,84578035309508.62,162189213034515.0,2272446642443774.0,4.7202523345432344e+16
9.567307220701432,1797468945390192.5,5.33612903358846e+16,142446921958745.3,155750094813297.0,87180436058974.84,167292813536539.12,2344064972438586.5,4.866708615168817e+16
9.85865336511546,1798742223463446.5,5.4936495879606456e+16,142547827480964.62,155860423941490.12,89831655934107.25,172499267286474.62,2417133591934081.0,5.015988088956578e+16
10.155826432417769,1800013610924763.8,5.654208985833159e+16,142648583174793.03,155970589248717.62,92532548232528.81,177810665618602.25,2491682268270523.0,5.168143159286163e+16
10.458942961066125,1801284464951151.8,5.8178640184124504e+16,142749296594627.56,156080708333925.03,95283978659218.08,183229143009742.84,2567741393918002.5,5.323227119865784e+16
10.768121820287448,1802556078315044.5,5.984672440758626e+16,142850070190892.25,156190893215421.1,98086825399711.34,188756877980997.66,2645341999980574.0,5.481294166250366e+16
11.083484256693197,1803829685609233.0,6.154692985544484e+16,142951001803354.44,156301250870269.03,100941979189403.27,194396094019999.84,2724515770023492.0,5.642399407392908e+16
11.405153941827061,1805106468866962.8,6.32798537680088e+16,143052185106510.12,156411883721263.03,103850343378623.0,200149060523996.97,2805295054229434.5,5.8065988772182e+16
11.733257020663602,1806387562646817.8,6.50461034364634e+16,143153710012554.97,156522890077533.25,106812833993162.84,206018093764121.94,2887712883890147.0,5.973949546207897e+16
12.067922161076874,1807674058642966.0,6.684629633997717e+16,143255663036738.72,156634364534024.8,109830379789931.25,212005557871216.66,2971802986240357.0,6.1445093329861976e+16
12.409280604298411,1808967009873873.2,6.8681060282578104e+16,143358127629314.88,156746398334441.6,112903922307403.56,218113865843607.4,3057599799640946.5,6.318337115894857e+16
12.75746621638438,1810267434495784.2,7.055103352974991e+16,143461184477754.53,156859079701690.7,116034415910535.27,224345480577240.47,3145138489118982.5,6.49549274454679e+16
13.112615540712067,1811576319281844.2,7.245686494468832e+16,143564911782462.38,156972494139342.28,119222827829801.02,230702915918610.12,3234454962272299.5,6.676037051346388e+16
13.474867851526309,1812894622802650.0,7.43992141241534e+16,143669385508828.88,157086724707226.22,122470138194009.17,237188737740928.06,3325585885546712.5,6.860031862965314e+16
13.844365208556836,1814223278339864.0,7.637875153384269e+16,143774679618132.5,157201852273891.8,125777340056547.62,243805565043986.3,3418568700894308.0,7.047540011761588e+16
14.221252512727972,1815563196560753.5,7.839615864320013e+16,143880866279491.3,157317955748361.38,129145439414692.95,250556071078208.7,3513441642821361.5,7.238625347129728e+16
14.605677562982532,1816915267978422.8,8.045212805957878e+16,143988016064835.06,157435112293304.06,132575455221624.48,257442984493363.75,3610243755834909.5,7.433352746769251e+16
14.997791114242183,1818280365219581.5,8.254736366165227e+16,144096198128620.75,157553397521538.3,136068419390760.11,264469090512457.97,3709014912297093.0,7.63178812785822e+16
15.397746936527026,1819659345119300.2,8.468258073197787e+16,144205480373839.47,157672885677543.0,139625376792033.73,271637232131322.22,3809795830696886.0,7.833998458118683e+16
15.805701875257567,1821053050660095.0,8.685850608859667e+16,144315929605687.88,157793649805476.9,143247385239722.8,278950311344427.47,3912628094348766.5,8.040051766759243e+16
16.221815912762718,1822462312770693.5,8.90758782155562e+16,144427611674115.12,157915761905042.78,146935515471420.06,286411290397466.6,4017554170528514.5,8.250017155280888e+16
16.64625223101797,1823887951998356.0,9.133544739222571e+16,144540591606354.34,158039293076391.6,150690851117738.3,294023193067262.5,4124617430056283.5,8.463964808130347e+16
17.079177275638333,1825330780066923.2,9.363797582127829e+16,144654933730394.56,158164313655129.5,154514488662333.47,301789105969584.0,4233862167337577.0,8.681966003185638e+16
17.5207608211511,1826791601331795.2,9.59842377551932e+16,144770701790286.44,158290893338387.3,158407537391806.16,309712179895417.6,4345333620872829.5,8.904093122057274e+16
17.97117603757412,1828271214141565.0,9.837501962113979e+16,144887959054049.06,158419101302810.06,162371119335047.47,317795631176321.7,4459077994246746.5,9.130419660188331e+16
18.430599558325603,1829770412115339.0,1.008111201440828e+17,145006768414896.03,158549006315232.47,166406369191580.75,326042743079442.0,4575142477608700.0,9.361020236735746e+16
18.899211549492115,1831289985343667.2,1.032933504679495e+17,145127192486409.0,158680676836742.5,170514434248433.5,334456867232816.44,4693575269655744.0,9.595970604214597e+16
19.37719578048196,1832830721520341.0,1.0582253427469518e+17,145249293692227.97,158814181120748.84,174696474285076.6,343041425081576.8,4814425600130026.0,9.835347657886531e+16
19.864739696091597,1834393407011554.8,1.083995079010794e+17,145373134350784.53,158949587305624.84,178953661465949.16,351799909375697.56,4937743752843072.0,1.0079229444872672e+17
20.36203449001343,1835978827868336.5,1.1102512045298106e+17,145498776755532.5,159086963502433.78,183287180220085.53,360735885689936.3,5063581089238743.0,1.0327695172970613e+17
20.869275179813698,1837587770787575.2,1.1370023391705301e+17,145626283251109.88,159226377878203.28,187698227107339.84,369852993976595.4,5191990072508038.0,1.058082521915442e+17
21.38666068340997,1839221024026469.0,1.1642572326951826e+17,145755716305805.84,159367898735161.62,192188010670713.12,379154950151804.4,5323024292268416.0,1.0838701137736002e+17
21.91439389707817,1840879378274812.8,1.192024765819002e+17,145887138580692.4,159511594586320.72,196757751274261.66,388645547715970.44,5456738489820842.0,1.1101405668164731e+17
22.452681775019734,1842563627489138.2,1.2203139512346917e+17,146020612995721.8,159657534227751.66,201408680926066.06,398328659409082.3,5593188583997972.0,1.1369022742442328e+17
23.00173541052013,1844274569692249.0,1.2491339346018507e+17,146156202793096.06,159805786807870.7,206142043085735.5,408208238901566.0,5732431697617366.0,1.1641637492128717e+17
23.561770118730532,1846013007741632.8,1.2784939954989541e+17,146293971598157.38,159956421894014.7,210959092455904.38,418288322521381.25,5874526184553357.0,1.1919336254913098e+17
24.133005521105144,1847779750069610.2,1.3084035483355557e+17,146433983478047.38,160109509536579.0,215861094757182.03,428573031018062.94,6019531657442216.0,1.2202206580725395e+17
24.715665631527248,1849575611398130.8,1.338872143222142e+17,146576302998349.7,160265120330953.97,220849326486003.72,439066571364426.5,6167509016034781.0,1.2490337237360152e+17
25.309978944157795,1851401413430688.2,1.3699094667950774e+17,146720995277927.6,160423325477476.56,225925074654829.7,449773238596646.06,6318520476211388.0,1.2783818215585891e+17
25.91617852304095,1853257985523685.2,1.4015253429939618e+17,146868126042126.16,160584196839607.34,231089636514130.6,460697417693423.44,6472629599674178.0,1.3082740733710898e+17
26.53450209350177,1855146165339442.0,1.4337297337885957e+17,147017761674523.16,160747807000512.4,236344319255596.47,471843585494997.75,6629901324331917.0,1.3387197241576277e+17
27.165192135371807,1857066799482772.5,1.4665327398527206e+17,147169969267375.34,160914229318219.53,241690439696003.47,483216312662690.5,6790401995392758.0,1.369728142394523e+17
27.808495978079243,1859020744122932.8,1.4999446011815507e+17,147324816670909.34,161083537979513.88,247129323941164.7,494820265679752.9,6954199397180898.0,1.4013088203258006e+17
28.464665897640828,1861008865602679.2,1.5339756976500592e+17,147482372541588.53,161255808052711.56,252662307029403.97,506660208894229.3,7121362785692716.0,1.4334713741719269e+17
29.133959215593645,1863032041035938.5,1.5686365495088394e+17,147642706389474.6,161431115539445.8,258290732553975.3,518741006604579.7,7291962921908714.0,1.466225544268518e+17
29.816638399905518,1865091158895512.0,1.60393781781435e+17,147805888624805.34,161609537425593.06,264015952263860.1,531067625188792.25,7466072105877734.0,1.4995811951315894e+17
30.51297116790363,1867187119592190.8,1.6398903047901446e+17,147971990603887.3,161791151731452.88,269839325642381.38,543645135277730.0,7643764211589769.0,1.533548315445772e+17
31.223230591261704,1869320836046459.0,1.6765049541156717e+17,148141084674403.53,161976037561285.3,275762219463069.12,556478713973416.56,7825114722654160.0,1.568137017971947e+17
31.947695203086937,1871493234253977.2,1.713792851139136e+17,148313244220225.62,162164275152310.03,281786007322220.0,569573647113018.1,8010200768800120.0,1.603357539370516e+17
32.686649107148675,1873705253845878.0,1.751765223010709e+17,148488543705818.56,162355945923255.78,287912069147604.44,582935331579211.9,8199101163216624.0,1.6392202399365277e+17
33.44038208929165,1875957848644869.5,1.7904334387324877e+17,148667058720308.84,162551132522548.06,294141790682782.6,596569277657661.0,8391896440748724.0,1.6757356032427213e+17
34.20918973107749,1878251987218105.8,1.8298090091212118e+17,148848866021301.1,162749918876211.0,300476562946495.4,610481111442299.2,8588668896967702.0,1.7129142356864963e+17
34.993373525699035,1880588653427621.0,1.8699035866799846e+17,149034043578497.0,162952390235567.78,306917781666618.94,624676577289103.2,8789502628132337.0,1.7507668659366854e+17
35.793240996213015,1882968846979228.8,1.910728965374813e+17,149222670617196.6,163158633224798.2,313466846688178.9,639161540319029.0,8994483572058678.0,1.7893043442759395e+17
36.60910581613728,1885393583970546.5,1.952297080311998e+17,149414827661726.44,163368735888427.06,320125161354938.1,653941988970759.5,9203699549915914.0,1.8285376418343766e+17
37.44128793246003,1887863897438915.0,1.9946200073120752e+17,149610596578863.34,163582787738800.22,326894131864103.25,669024037603915.0,9417240308965688.0,1.868477849710176e+17
38.29011369110923,1890380837909853.5,2.0377099623760272e+17,149810060621299.25,163800879803608.75,333775166593693.4,684413929153303.4,9635197566262184.0,1.909136177972589e+17
39.15591596493141,1892945473946712.2,2.081579301039397e+17,150013304471196.62,164023104673515.72,340769675402166.9,700118037834833.2,9857665053330774.0,1.9505239545428064e+17
40.03903428423004,1895558892702017.5,2.126240517609808e+17,150220414283886.72,164249556549930.44,347879068899906.1,716142871903615.9,1.0084738561841886e+16,1.9926526239479974e+17
40.93981496991464,1898222200471169.8,2.1717062442833085e+17,150431477731745.22,164480331292985.75,355104757692211.7,732495076464788.8,1.0316515990297736e+16,2.0355337459438006e+17
41.85861126931294,1900936523248927.2,2.2179892501349363e+17,150646584048297.03,164715526469757.22,362448151593474.06,749181436337552.2,1.0553097391748276e+16,2.079178994000476e+17
42.7957834946992,1903703007289213.8,2.2651024399787667e+17,150865824072574.06,164955241402770.8,369910658812231.56,766208878972835.9,1.079458502255395e+16,2.123600153647733e+17
