t(s),Total solute volume 1,Total retention volume 1,Total 1 volume 1,Total 2 volume 1,Total 3 volume 1,Total 4 volume 1,Total 5 volume 1,Total 6 volume 1
0.1,858476762157242.6,970941579421749.6,55300119698977.766,57164697565528.79,0.0,0.0,0.0,0.0
0.202,1292825305849690.5,1463556100832436.2,83279358755533.02,86087324903639.94,3149907071.3003263,5419221104.45416,66602993039.70102,1288939202354.9502
0.30604000000000003,1623061353207590.0,1839149943143716.8,104552028895318.3,108077254894107.75,7987902856.471704,13742717422.967691,168900187812.84546,3268675338608.585
0.41216080000000005,1901921747760803.8,2157224508308882.8,122515256211447.3,126646156128416.12,14180960432.664522,24397548742.179455,299849962452.835,5802919736585.439
0.5204040160000001,2149147965588071.5,2440043039384056.0,138440718685424.73,143108584316988.47,21580222286.030693,37127625747.46792,456304929989.1603,8830758015549.672
0.6308120963200001,2374575983271151.0,2698695098135247.0,152962016093182.1,158119502596458.5,30104920831.78619,51794003241.67758,636557433789.9286,12319139816591.266
0.7434283382464002,2583922319449037.0,2939625712591422.5,166447386900502.44,172059565489279.62,39707986804.602486,68315711902.55749,839612353408.4176,16248804700485.658
0.8582969050113283,2780848407828940.0,3166964070576640.0,179132688071307.25,185172582451092.5,50361911517.00176,86645435387.05263,1064888170628.6957,20608496707771.355
0.9754628431115548,2967862418168969.5,3383540464748760.5,191179487273163.8,197625568796617.72,62051775680.36789,106757516986.19191,1312069568759.3467,25392111648580.63
1.094972099973786,3146769426326935.5,3591393763415589.0,202704061283247.03,209538721857542.78,74771384509.53487,128641310411.13551,1581025712494.4946,30597115540450.71
1.2168715419732616,3318918584393935.5,3792049953879684.5,213793317838085.5,221001879676213.66,88520941720.92462,152297178130.35187,1871761066735.2422,36223592784859.28
1.3412089728127268,3485348920945406.0,3986686399179046.0,224514187584171.03,232084229628725.7,103305562289.75145,177733932728.65048,2184383950442.1326,42273637575274.81
1.4680331522689813,3646880305401124.0,4176234287909847.0,234919483689108.94,242840365607131.94,119134276466.82726,204967123441.56644,2519085477859.7407,48750946334705.91
1.597393815314361,3804172819019617.5,4361445483622612.5,245051726316840.53,253314241446156.38,136019338200.06023,234017846395.66333,2876124936189.116,55660534719209.95
1.729341691620648,3957766970388758.0,4542937794729656.0,254945733171202.8,263541848813232.0,153975730942.49832,264911894438.43344,3255819336882.157,63008535394209.92
1.863928525453061,4108111795758845.0,4721226599655259.0,264630429622717.56,273553088368123.44,173020806340.9222,297679135580.4375,3658535776624.7886,70802050187037.48
2.001207095962122,4255585019759552.5,4896747532221405.0,274130147392624.4,283373112235249.56,193174015244.84747,332353050269.30164,4084685750394.8057,79049040018056.75
2.1412312378813647,4400507852612759.5,5069873129419981.0,283465577738426.4,293023309328203.0,214456704608.8347,368970382029.9935,4534720857814.077,87758241796137.1
2.284055862638992,4543156067831486.0,5240925293246069.0,292654485041147.3,302522042997331.3,236891962538.4126,407570870934.60547,5009129527492.396,96939105015139.45
2.4297369798917723,4683768440752249.0,5410184783169916.0,301712250386561.0,311885212939137.6,260504499241.08047,448197048846.3785,5508434500590.186,106601743043294.6
2.578331719489608,4822553276307676.0,5577898559340720.0,310652292061837.56,321126689870992.25,285320555248.29987,490894081583.8546,6033190891040.405,116756895572343.83
2.7298983538794,4959693528415421.0,5744285542020149.0,319486395328977.9,330258656423676.44,311367830693.119,535709647312.3233,6583984691012.593,127415899683070.28
2.884496320956988,5095350864528342.0,5909541185134258.0,328224974249144.44,339291877793761.75,338675431088.4563,582693843326.2257,7161431625309.613,138590667663301.1
3.0421862473761276,5229668913005951.0,6073841149924198.0,336877280868862.8,348235917987177.06,367273825180.68164,631899114246.723,7766176411653.089,150293688711134.53
3.2030299723236504,5362775972435495.0,6237344281535173.0,345451579738296.56,357099320205038.2,397194818494.99524,683380204037.9095,8398891601691.967,162537942532128.6
3.3670905717701234,5494787081363229.0,6400195051775871.0,353955281246631.5,365889744700170.6,428471525211.0427,737194111503.635,9060277886073.512,175337000943042.0
3.5344323832055258,5625805869891058.0,6562525572733685.0,362395060888535.5,374614092047786.06,461138357329.0133,793400069196.6312,9751063268598.87,188704948211184.44
3.7051210308696363,5755926029492269.0,6724457273723874.0,370776953946410.75,383278601024516.8,495231014612.54114,852059526831.3672,10472003003818.357,202656395715410.22
3.879223451487029,5885232557680431.0,6886102307249611.0,379106435667682.9,391888931489074.44,530786480487.7861,913236144316.3499,11223879511473.396,217206480276158.28
4.0568079205167695,6013802807252429.0,7047564735748474.0,387388488853429.06,400450234249799.8,567843022130.1503,976995791995.079,12007502379536.994,232370864199153.12
4.237944078927105,6141707376148103.0,7208941539627853.0,395627661180069.7,408967210319087.5,606440194135.4976,1043406557058.1887,12823708443103.4,248165736786302.12
4.422702960505647,6269010866378927.0,7370323478558299.0,403828114086947.9,417444161449336.06,646618845286.8821,1112538755285.7456,13673361928789.965,264607817113717.72
4.61115701971576,6395772534674682.0,7531795831467104.0,411993664688747.75,425885033458541.06,688421128017.5023,1184464947432.9448,14557354656211.588,281714357913476.9
4.803380160110075,6522046853015271.0,7693439035637910.0,420127821883031.1,434293453555278.2,731890510241.5652,1259259959694.6614,15476606289589.082,299503150424805.56
4.9994477633122765,6647883993726263.0,7855329241399554.0,428233817598410.8,442672762640504.1,777071789281.5071,1337000907781.7725,16432064633751.527,317992530103566.5
5.199436718578522,6773330251077495.0,8017538795810391.0,436314633952497.7,451026043381179.6,824011107665.4435,1417767224220.6118,17424705969756.277,337201383097572.0
5.403425452950093,6898428409158411.0,8180136666309646.0,444373026949149.2,459356144706542.2,872755970605.6849,1501640688550.2207,18455535426128.54,357149153410276.44
5.611493962009095,7023218064077993.0,8343188813369696.0,452411547233499.1,467665703262931.75,923355264999.0189,1588705460143.747,19525587382356.3,377855850687771.4
5.823723841249277,7147735907154364.0,8506758519628286.0,460432558334035.6,475957162270954.3,975859279814.0515,1679048113422.3442,20635925901796.883,399342058573895.0
6.040198318074262,7272015974641775.0,8670906681726667.0,468438252749174.25,484232788154445.8,1030319727751.0734,1772757675264.9426,21787645191574.72,421628943586675.6
6.261002284435747,7396089868637892.0,8835692070061558.0,476430666177332.5,492494685250352.06,1086789768076.5488,1869925664445.6782,22981870087406.746,444738264476049.94
6.486222330124463,7519986953073369.0,9001171560828256.0,484411690141910.75,500744808859389.7,1145324030548.235,1970646132954.8242,24219756561581.766,468692382028503.2
6.715946776726952,7643734528079736.0,9167400344051160.0,492383083223468.44,508984976856943.44,1205978640358.42,2075015709078.7378,25502492252565.707,493514269289005.4
6.950265712261491,7767357985530509.0,9334432110735620.0,500346481079146.7,517216880050318.0,1268811244032.4604,2183133642131.1638,26831297014907.62,519227522174566.44
7.18927102650672,7890880948135611.0,9502319221809402.0,508303405402660.5,525442091440836.3,1333881036227.9211,2295101848742.046,28207423488296.508,545856370457033.94
7.433056447036854,8014325394124395.0,9671112861134974.0,516255271955935.1,533662074526287.25,1401248787386.418,2411024960621.8496,29632157684758.254,573425689095597.1
7.681717575977592,8137711769262801.0,9840863174548490.0,524203397784881.2,541878190759990.6,1470976872196.065,2531010373729.301,31106819593109.68,601961009901771.6
7.935351927497144,8261059087708894.0,1.0011619396610862e+16,532149007716150.75,550091706266613.5,1543129298827.239,2655168298778.925,32632763799885.86,631488533521691.5
8.194058966047088,8384385023005792.0,1.0183429966525846e+16,540093240218595.3,558303797901256.7,1617771738908.7395,2783611813031.8154,34211380126047.93,662035141722190.2
8.45794014536803,8507705990338822.0,1.0356342634486698e+16,548037152701984.75,566515558726840.8,1694971558214.613,2916456913319.3984,35844094278851.98,693628409968627.8
8.72709894827539,8631037221036344.0,1.0530404559547724e+16,555981726316100.9,574728002974995.5,1774797848035.256,3053822570254.654,37532368518323.125,726296620283644.8
9.0016409272409,8754392830169305.0,1.0705662399977674e+16,563927870305252.4,582942070547426.4,1857321457208.7139,3195830783590.387,39277702337833.805,760068774377075.4
9.281673745785717,8877785877996941.0,1.088216239693081e+16,571876425966415.5,591158631107484.4,1942615024790.5046,3342606638687.285,41081633158334.63,794974607038143.6
9.567307220701432,9001228425915149.0,1.1059950452169142e+16,579828170253224.4,599378487805691.6,2030753013341.9944,3494278364058.153,42945737035818.11,831044599781852.4
9.85865336511546,9124731587484532.0,1.1239072200481708e+16,587783819063021.1,607602380677614.4,2121811742819.0483,3650977389957.3,44871629381641.836,868309994742115.4
10.155826432417769,9248305575047600.0,1.1419573077368594e+16,595744030239781.4,615830989748039.8,2215869425044.103,3812838407986.5913,46860965695355.76,906802808804789.9
10.458942961066125,9371959742385394.0,1.1601498382493076e+16,603709406321906.0,624064937871423.4,2313006198745.846,3979999431691.624,48915442309709.98,946555847974170.4
10.768121820287448,9495702623813362.0,1.1784893339347056e+16,611680497060634.9,632304793335209.6,2413304165151.9043,4152601858123.2925,51036797147540.734,987602721967047.8
11.083484256693197,9619541970070770.0,1.1969803151525788e+16,619657801731937.8,640551072249675.9,2516847424120.623,4330790530341.596,53226810490247.84,1029977859028664.6
11.405153941827061,9743484781321112.0,1.2156273055963264e+16,627641771262256.1,648804240745353.4,2623722110798.963,4514713800839.839,55487305757598.15,1073716520965323.9
11.733257020663602,9867537337544712.0,1.2344348373443742e+16,635632810186328.4,657064716996857.8,2734016432794.0015,4704523595868.435,57820150298598.69,1118854818388592.8
12.067922161076874,9991705226577800.0,1.2534074556669144e+16,643631278453344.9,665332873089939.8,2847820707846.3135,4900375480638.792,60227256193200.27,1165429726166370.5
12.409280604298411,1.0115993370023932e+16,1.2725497236135042e+16,651637493096072.5,673609036746911.2,2965227401993.8755,5102428725388.311,62710581064600.07,1213479099076171.5
12.75746621638438,1.0240406047242224e+16,1.2918662264041058e+16,659651729776110.8,681893492923973.2,3086331168215.557,5310846372288.635,65272128901921.39,1263041687656320.0
13.112615540712067,1.0364946917596428e+16,1.3113615756438794e+16,667674224217083.5,690186485292747.4,3211228885543.7236,5525795303179.694,67913950893061.91,1314157154250748.8
13.474867851526309,1.0489619041130184e+16,1.3310404133801324e+16,675705173536475.4,698488217617025.5,3340019698635.938,5747446308113.136,70638146267503.36,1366866089243384.8
13.844365208556836,1.0614424897819468e+16,1.350907416017955e+16,683744737485815.6,706798855034746.9,3472805057795.7583,5975974154688.809,73446863148886.73,1421210027478150.5
14.221252512727972,1.073936640553787e+16,1.3709672981095604e+16,691793039607918.2,715118525254280.6,3609688759433.3223,6211557658169.034,76342299417164.48,1477231464860770.2
14.605677562982532,1.0864444936858544e+16,1.3912248160309198e+16,699850168319229.1,723447319673248.5,3750776986956.3696,6454379752355.485,79326703580145.73,1534973875138710.5
14.997791114242183,1.0989661334805404e+16,1.4116847715580416e+16,707916177924452.8,731785294427376.2,3896178352082.9014,6704627561214.492,82402375654256.61,1594481726855638.0
15.397746936527026,1.1115015927656608e+16,1.4323520153542142e+16,715991089570136.8,740132471376227.0,4046003936566.746,6962492471236.526,85571668054347.1,1655800500477010.2
15.805701875257567,1.1240508542893546e+16,1.4532314503783352e+16,724074892143228.0,748488839032045.5,4200367334327.6455,7228170204516.807,88836986492379.64,1718976705683355.0
16.221815912762718,1.136613852038153e+16,1.4743280352238596e+16,732167543120127.9,756854353437451.2,4359384693977.9307,7501860892543.64,92200790884840.31,1784057898828133.5
16.64625223101797,1.1491904724861118e+16,1.4956467873967808e+16,740268969371322.9,765228938997199.2,4523174761737.811,7783769150682.785,95665596268725.55,1851092700557014.8
17.079177275638333,1.1617805557821676e+16,1.5171927865406396e+16,748379067926262.0,773612489268839.0,4691858924731.906,8074104153345.514,99233973725956.55,1920130813585601.8
17.5207608211511,1.174383896882415e+16,1.5389711776156952e+16,756497706702720.1,782004867716673.2,4865561254659.901,8373079709829.454,102908551316086.17,1991223040632821.0
17.97117603757412,1.1870002500964554e+16,1.5609871739251026e+16,764624727434759.0,790405910736900.8,5044408566385.377,8680914364305.95,106692014957456.8,2064421262226675.5
18.430599558325603,1.1996293162478932e+16,1.583246060572464e+16,772759937404512.6,798815419116822.5,5228530404385.1045,8997831379448.291,110587109613682.08,2139778615326840.0
18.899211549492115,1.2122707645423424e+16,1.6057531971791022e+16,780903123524978.0,807233172583124.6,5418059174073.111,9324058953954.502,114596639896593.73,2217349272234870.2
19.37719578048196,1.2249242195888006e+16,1.6285140210678418e+16,789054043982188.6,815658921168499.0,5613130129403.944,9659830208172.467,118723471264837.55,2297188618037307.0
19.864739696091597,1.2375892658369552e+16,1.6515340503021678e+16,797212431092930.1,824092388164145.8,5813881432647.524,10005383286289.4,122970530938453.61,2379353229737662.0
20.36203449001343,1.2502654484918888e+16,1.6748188867129226e+16,805377991893962.5,832533270728860.4,6020454200174.33,10360961436012.271,127340808878940.66,2463900895072388.0
20.869275179813698,1.2629522744078682e+16,1.6983742189162568e+16,813550408717767.5,840981240484198.6,6232992548575.914,10726813088862.67,131837358776910.22,2550890631467576.5
21.38666068340997,1.275649212964689e+16,1.7222058253266196e+16,821729339757071.8,849435944098019.6,6451643641116.322,11103191941081.938,136463299047271.58,2640382705134721.0
21.91439389707817,1.2883556969298198e+16,1.7463195771682634e+16,829914419620187.1,857897003858571.4,6676557734511.817,11490357035141.688,141221813831891.62,2732438650304150.5
22.452681775019734,1.301071123309279e+16,1.7707214414885916e+16,838105259879137.9,866364018241089.1,6907888226035.278,11888572841856.65,146116154009697.22,2827121288595308.5
23.00173541052013,1.3137948541900436e+16,1.7954174841762676e+16,846301449612301.1,874836562468726.8,7145791700943.929,12298109343098.12,151149638214192.44,2924494748522976.5
23.561770118730532,1.3265262175764756e+16,1.820413872987014e+16,854502555943202.6,883314189069530.6,7390427980227.898,12719242115106.297,156325653858377.12,3024624485138917.0
24.133005521105144,1.3392645082230668e+16,1.8457168805795396e+16,862708124576945.5,891796428430949.6,7641960168679.025,13152252412401.625,161647658167070.7,3127577299808715.0
24.715665631527248,1.3520089884656058e+16,1.871332887564068e+16,870917680335628.8,900282789353301.2,7900554703278.937,13597427252295.793,167119179216643.47,3233421360123456.5
25.309978944157795,1.3647588890527068e+16,1.897268385565521e+16,879130727693967.4,908772759603460.2,8166381401906.221,14055059500004.006,172743816982185.22,3342226219946618.5
25.91617852304095,1.377513409979275e+16,1.9235299803033932e+16,887346751316200.9,917265806469869.9,8439613512362.932,14525447954361.027,178525244392134.56,3454062839596245.5
26.53450209350177,1.3902717213235442e+16,1.950124394689968e+16,895565216595279.6,925761377319900.5,8720427761721.244,15008897434143.781,184467208390419.06,3569003606162776.0
27.165192135371807,1.4030329640889326e+16,1.9770584719485456e+16,903785570195154.4,934258900160430.8,9009004405990.748,15505718865004.941,190573531006143.28,3687122353963392.5
27.808495978079243,1.4157962510518322e+16,2.004339178752886e+16,912007240596893.1,942757784202380.8,9305527280108.24,16016229367021.238,196848110430891.47,3808494385133235.5
28.464665897640828,1.4285606676163296e+16,2.031973608389161e+16,920229638649272.5,951257420429854.0,9610183848250.576,16540752342861.584,203294922103694.06,3933196490354407.5
29.133959215593645,1.4413252726765452e+16,2.0599689839412492e+16,928452158124264.2,959757182174363.1,9923165254472.664,17079617566579.582,209918019803728.8,4061306969723615.0
29.816638399905518,1.4540890994872806e+16,2.0883326615001812e+16,936674176277861.5,968256425694571.8,10244666373671.877,17633161273035.645,216721536750810.94,4192905653759066.0
30.51297116790363,1.4668511565432416e+16,2.1170721333982684e+16,944895054416461.8,976754490761759.9,10574885862879.59,18201726247953.1,223709686713739.47,4328073924547439.5
31.223230591261704,1.4796104284671952e+16,2.146195031468191e+16,953114138468976.4,985250701251237.6,10914026212881.623,18785661918612.945,230886765126551.7,4466894737031686.0
31.947695203086937,1.4923658769070586e+16,2.175709130327289e+16,961330759564711.6,993744365739704.5,11262293800167.438,19385324445190.668,238257150212734.38,4609452640439835.0
32.686649107148675,1.5051164414418382e+16,2.20562235068685e+16,969544234616942.0,1002234778108487.0,11619898939208.502,20001076812738.332,245825304117429.16,4755833799855296.0
33.44038208929165,1.5178610404961784e+16,2.235942762686145e+16,977753866912026.8,1010721218152546.9,11987055935064.682,20633288923813.406,253595774047656.62,4906126017928538.0
34.20918973107749,1.530598572263096e+16,2.2666785892508144e+16,985958946703801.4,1019202952194892.1,12363983136317.77,21282337691754.875,261573193420572.06,5060418756729842.0
34.993373525699035,1.5433279156343854e+16,2.297838209474784e+16,994158751812927.8,1027679233706132.5,12750902988328.912,21948607134605.77,269762283019731.75,5218803159742262.0
35.793240996213015,1.5560479311380182e+16,2.32943016202493e+16,1002352548230713.9,1036149303928682.9,13148042086816.973,22632488469679.004,278167852159349.53,5381372073993882.0
36.60910581613728,1.5687574618817618e+16,2.361463148567416e+16,1010539590726983.5,1044612392505100.6,13555631231752.877,23334380208762.098,286794799856484.44,5548220072327484.0
37.44128793246003,1.581455334502165e+16,2.3939460372145276e+16,1018719123461349.2,1053067718109985.8,13973905481563.797,24054688253953.953,295648116011077.9,5719443475805671.0
38.29011369110923,1.5941403601178944e+16,2.426887865990536e+16,1026890380597357.2,1061514489084825.4,14403104207640.32,24793825994124.477,304732882593737.25,5895140376248739.0
39.15591596493141,1.6068113352864912e+16,2.460297846315318e+16,1035052586918764.2,1069951904075062.5,14843471149137.307,25552214401986.895,314054274841136.8,6075410658902155.0
40.03903428423004,1.6194670429634184e+16,2.494185366503862e+16,1043204958447338.2,1078379152668709.0,15295254468059.03,26330282131768.414,323617562458862.1,6260356025229742.0
40.93981496991464,1.6321062534623378e+16,2.5285599952802764e+16,1051346703061435.2,1086795416035798.2,15758706804617.203,27128465617464.133,333428110831528.7,6450080015828595.0
41.85861126931294,1.6447277254155438e+16,2.563431485304315e+16,1059477021114677.2,1095199867567901.0,16234085332848.664,27947209171657.85,343491382239964.0,6644688033460644.0
42.7957834946992,1.6573302067334886e+16,2.5988097767088516e+16,1067595106054034.5,1103591673517070.5,16721651816480.06,28786965084888.348,353812937085199.6,6844287366195987.0
43.751699164593184,1.6699124355623284e+16,2.6347050006465256e+16,1075700145036668.2,1111969993633468.2,17221672665024.041,29648193725543.293,364398435119055.44,7048987210662162.0
44.72673314788505,1.6824731412386458e+16,2.6711274828437376e+16,1083791319544899.2,1120333981801079.0,17734418990092.15,30531363640256.008,375253636681021.1,7258898695393575.0
