t(s),Total solute volume 1,Total retention volume 1,Total 1 volume 1,Total 2 volume 1,Total 3 volume 1,Total 4 volume 1,Total 5 volume 1,Total 6 volume 1
0.1,1301436301972856.8,2401541677724917.5,422763850992510.6,677341524759550.8,0.0,0.0,0.0,-2.162416271574588e-76
0.202,1949905851281073.8,3618436216971103.5,633415348360603.2,1014842126735013.0,4867583155.251762,16431758248.270357,552127115122.3347,19699464137887.47
0.30604000000000003,2439901651651513.0,4553820493943252.0,792587579475638.4,1269863883332531.5,12303241979.237837,41533038664.0907,1396084437119.9827,50017458765808.47
0.41216080000000005,2850328543003375.0,5350972880671728.0,925912321491901.0,1483473436584120.8,21775336343.724693,73508992644.77966,2471298798732.0674,88691996464612.88
0.5204040160000001,3211121588092175.5,6064084242158692.0,1043113802697377.9,1671250705232005.8,33037785837.872166,111528884405.12878,3749805608828.24,134703773858061.27
0.6308120963200001,3537257355344617.5,6720197888898723.0,1149057072684006.8,1840990350509212.8,45950519809.80311,155119859012.73322,5215694900887.702,187476345081174.6
0.7434283382464002,3837461065816053.0,7335044215696614.0,1246576467816010.5,1997233475230568.5,60425834531.302345,203985845657.09332,6859007068241.178,246649788085554.0
0.8582969050113283,4117330375364828.0,7918710419959094.0,1337490353420225.0,2142893418740911.5,76406256842.40222,257932827552.84818,8673216574769.911,311988716773963.56
0.9754628431115548,4380703993548888.0,8478119454671685.0,1423045711538222.5,2279968064372789.0,93853589836.01234,316831861604.5445,10653987279890.328,383337012480452.4
1.094972099973786,4630346295197025.0,9018267497944358.0,1504140532941746.2,2409896150388305.5,112742815919.32695,380598496036.15063,12798479830562.293,460592698274766.44
1.2168715419732616,4868323853693358.0,9542903169966708.0,1581446131739635.2,2533753239384885.0,133058410700.35712,449180326649.5917,15104932976715.06,543692773434772.25
1.3412089728127268,5096227882384028.0,1.0054927984755088e+16,1655479404150642.8,2652367489491906.5,154791972978.79187,522548996062.5327,17572394399266.91,632603473360206.1
1.4680331522689813,5315313205816428.0,1.0556646042903296e+16,1726647972486848.2,2766391982929422.0,177940626658.59842,600694798836.9028,20200539220155.484,727313707024951.5
1.597393815314361,5526589081634455.0,1.104992690007317e+16,1795279688107865.0,2876351994901349.5,202505901548.76648,683622903258.4448,22989542904461.42,827830463720245.9
1.729341691620648,5730880796356620.0,1.1536315818393698e+16,1861642640444217.5,2982677051550539.5,228492924993.5698,771350622426.549,25939989464381.836,934175497030519.2
1.863928525453061,5928872757497339.0,1.2017110757678854e+16,1925959155217439.8,3085723357555509.0,255909822901.70898,863905392240.2588,29052803444146.04,1046382868749275.1
2.001207095962122,6121139447470620.0,1.2493417582559306e+16,1988415849632105.2,3185789906306551.5,284767266316.5573,961323240706.7948,32329198433067.633,1164497090209952.2
2.1412312378813647,6308168169969428.0,1.2966190562768622e+16,2049171021402323.5,3283130318418337.0,315078121870.2617,1063647607944.5045,35770637375628.266,1288571689873093.0
2.284055862638992,6490376099391288.0,1.343626268099861e+16,2108360187156494.5,3377961715222839.0,346857178109.92065,1170928422317.1084,39378801497354.33,1418668092130197.0
2.4297369798917723,6668123284468949.0,1.3904368713549428e+16,2166100306589633.5,3470471486599997.0,380120928359.696,1283221367423.7205,43155565650588.85,1554854727944477.8
2.578331719489608,6841722720244026.0,1.4371163082039628e+16,2222493054284287.0,3560822533006927.5,414887396462.7197,1400587293843.7705,47102978529349.64,1697206321284739.0
2.7298983538794,7011448257375344.0,1.4837233853662472e+16,2277627389002422.0,3649157381932825.0,451175995562.133,1523091742416.5503,51223246635779.98,1845803310978121.0
2.884496320956988,7177540890352454.0,1.5303113858887578e+16,2331581596374271.5,3735601460643642.0,489007412702.39496,1650804554685.6987,55518721178442.16,2000731378371382.2
3.0421862473761276,7340213812966985.0,1.5769289620535804e+16,2384424931138273.5,3820265727337607.5,528403513870.3313,1783799552344.875,59991887291470.44,2162081058735253.5
3.2030299723236504,7499656524090350.0,1.6236208599376956e+16,2436218950878553.0,3903248808025912.5,569387265407.8326,1922154271951.6204,64645355112640.77,2329947419732128.5
3.3670905717701234,7656038193116874.0,1.6704285129441318e+16,2487018609269175.5,3984638748101146.5,611982668680.6293,2065949744391.5984,69481852366579.375,2504429794174483.5
3.5344323832055258,7809510442016944.0,1.7173905322475268e+16,2536873159807650.5,4064514460276322.5,656214705588.9652,2215270310943.5737,74504218178981.03,2685631557178837.5
3.7051210308696363,7960209663103058.0,1.7645431153349832e+16,2585826908727421.0,4142946930882439.0,702109293029.6757,2370203469563.0703,79715397907175.84,2873659939967146.0
3.879223451487029,8108258963916096.0,1.811920388879544e+16,2633919846782659.0,4220000232098122.5,749693244814.8058,2530839746338.335,85118438817304.44,3068625874190125.5
4.0568079205167695,8253769810113992.0,1.8595546985234692e+16,2681188182930934.5,4295732377002550.0,798994239854.3169,2697272588093.21,90716486472705.61,3270643861886608.5
4.237944078927105,8396843421857332.0,1.9074768554075764e+16,2727664797940764.5,4370196046334088.0,850040795643.9604,2869598272899.647,96512781724637.42,3479831867150387.5
4.422702960505647,8537571967525456.0,1.9557163472078344e+16,2773379632163198.5,4443439209768197.0,902862246281.4198,3047915835877.349,102510658217115.28,3696311226322183.0
4.61115701971576,8676039589673140.0,2.004301519854232e+16,2818360018807783.0,4515505659883739.0,957488724377.0546,3232327008141.35,108713540333926.03,3920206574111229.0
4.803380160110075,8812323291244624.0,2.0532597348826756e+16,2862630971823928.5,4586435473399291.0,1013951146339.1569,3422936167141.785,115124941528760.33,4151645783516687.5
4.9994477633122765,8946493704691900.0,2.1026175064180296e+16,2906215435744413.0,4656265411466120.0,1072281200604.3646,3619850296946.5933,121748462989721.02,4390759917790597.0
5.199436718578522,9078615762426246.0,2.1524006210390812e+16,2949134503477610.0,4725029268609393.0,1132511338457.0063,3823178957264.425,128587792597756.98,4637683192984074.0
5.403425452950093,9208749283694898.0,2.2026342431851016e+16,2991407606950837.0,4792758178172215.0,1194674767140.266,4033034260204.971,135646704145294.64,4892552949860455.0
5.611493962009095,9336949490314422.0,2.253343008293352e+16,3033052684643366.0,4859480880732707.0,1258805445010.4038,4249530853936.833,142929056786823.2,5155509634157254.0
5.823723841249277,9463267461559626.0,2.304551105479767e+16,3074086329354302.0,4925223960854072.0,1324938078524.8354,4472785912536.773,150438794697677.7,5426696784340929.0
6.040198318074262,9587750536782770.0,2.3562823512709996e+16,3114523918991136.5,4990012056630670.0,1393108120887.426,4702919131434.143,158179946920982.6,5706261026132101.0
6.261002284435747,9710442672940682.0,2.4085602556491868e+16,3154379732710222.0,5053868045765347.0,1463351772201.6213,4940052727946.108,166156627385772.3,5994352073189719.0
6.486222330124463,9831384763063146.0,2.461408081469584e+16,3193667054369385.5,5116813211318722.0,1535705981004.2642,5184311446474.562,174373035081886.03,6291122733435226.0
6.715946776726952,9950614920760004.0,2.514848898146024e+16,3232398264948376.5,5178867389782787.0,1610208447072.1245,5435822568000.245,182833454379348.44,6596728920574671.0
6.950265712261491,1.006816873508868e+16,2.568905630363069e+16,3270584925341063.5,5240049103728511.0,1686897625408.697,5694715923561.879,191542255481770.75,6911329670441676.0
7.18927102650672,1.0184079499464066e+16,2.623601102460987e+16,3308237850715419.0,5300375680943573.0,1765812731332.3376,5961123911454.35,200503895004801.62,7235087161839167.0
7.433056447036854,1.0298378417756918e+16,2.6789580790458028e+16,3345367177463409.5,5359863361697765.0,1846993746598.1284,6235181517916.99,209722916671948.5,7568166741603486.0
7.681717575977592,1.041109479028129e+16,2.734999302298379e+16,3381982423617921.0,5418527395541492.0,1930481426495.2922,6517026341116.408,219203952121182.88,7910736953654303.0
7.935351927497144,1.0522256181996094e+16,2.7917475263905384e+16,3418092543491965.5,5476382128847267.0,2016317307870.3271,6806798618254.995,228951721816664.4,8262969571827253.0
8.194058966047088,1.063188857492823e+16,2.849225549360905e+16,3453705977192496.0,5533441084139622.0,2104543718032.8423,7104641255660.52,238971036060708.1,8625039636314294.0
8.45794014536803,1.0740016506559492e+16,2.9074562427563428e+16,3488830695574549.5,5589717032119403.0,2195203784507.2861,7410699861731.973,249266796101815.8,8997125493561959.0
8.72709894827539,1.0846663195689752e+16,2.966462579304894e+16,3523474241127139.5,5645222057170184.0,2288341445598.5596,7725122782634.348,259843995335150.78,9379408839498502.0
9.0016409272409,1.095185065709681e+16,3.0262676588523948e+16,3557643765219872.0,5699967617033794.0,2384001461744.3223,8048061140649.912,270707720592356.47,9772074765978726.0
9.281673745785717,1.1055599806147056e+16,3.086894732766013e+16,3591346062085075.5,5753964597255665.0,2482229427630.239,8379668875106.5,281863153518050.06,1.0175311810351568e+16
9.567307220701432,1.1157930554369358e+16,3.148367226983079e+16,3624587599864396.5,5807223360926986.0,2583071785048.06,8720102785814.184,293315572030683.75,1.0589312008068518e+16
9.85865336511546,1.1258861896882532e+16,3.2107087638622536e+16,3657374549009082.0,5859753794186779.0,2686575836478.923,9069522578952.055,305070351865812.3,1.1014270948262914e+16
10.155826432417769,1.1358411992461146e+16,3.273943182975823e+16,3689712808288963.5,5911565347892958.0,2792789759387.1494,9428090915354.174,317132968200065.4,1.1450387832240346e+16
10.458942961066125,1.1456598236934252e+16,3.338094560965866e+16,3721608028635492.5,5962667075822944.0,2901762621211.5967,9795973461151.947,329508997354385.0,1.1897865534829218e+16
10.768121820287448,1.1553437330531364e+16,3.4031872305733816e+16,3753065635018782.5,6013067669724635.0,3013544395043.7354,10173338940736.309,342204118575297.0,1.235691066854797e+16
11.083484256693197,1.1648945339723044e+16,3.4692457989374772e+16,3784090846536070.0,6062775491501539.0,3128185975983.2305,10560359192008.23,355224115893170.5,1.2827733650552928e+16
11.405153941827061,1.1743137754042014e+16,3.5362951652511704e+16,3814688694869755.5,6111798602785803.0,3245739198163.1216,10957209223891.264,368574880056570.1,1.3310548772335494e+16
11.733257020663602,1.1836029538319814e+16,3.6043605378515736e+16,3844864041256194.0,6160144792125211.0,3366256852438.1655,11364067276084.559,382262410541992.56,1.3805574272144056e+16
12.067922161076874,1.1927635180727914e+16,3.6734674508138616e+16,3874621592091540.5,6207821599986441.0,3489792704730.7705,11781114881037.11,396292817638337.06,1.4313032410108636e+16
12.409280604298411,1.2017968736971986e+16,3.7436417801117416e+16,3903965913287971.0,6254836341756302.0,3616401515030.167,12208536928129.2,410672324605644.4,1.4833149546052332e+16
12.75746621638438,1.210704387095285e+16,3.814909759400951e+16,3932901443482209.5,6301196128904050.0,3746139057041.101,12646521730048.373,425407269907658.56,1.5366156219975604e+16
13.112615540712067,1.2194873892177098e+16,3.8872979954767976e+16,3961432506188097.0,6346907888451975.0,3879062138479.326,13095261091350.268,440504109517947.25,1.5912287235203068e+16
13.474867851526309,1.2281471790172234e+16,3.9608334834521576e+16,3989563320976183.0,6391978380886988.0,4015228622011.648,13554950379197.906,455969419299290.94,1.6471781744185572e+16
13.844365208556836,1.236685026613792e+16,4.035543621697895e+16,4017298013755406.0,6436414216633789.0,4154697446839.0117,14025788596273.107,471809897456199.3,1.704488333695251e+16
14.221252512727972,1.2451021762042382e+16,4.111456226584402e+16,4044640626224942.5,6480221871198276.0,4297528650921.6147,14507978455858.291,488032367060446.06,1.7631840132211164e+16
14.605677562982532,1.253399848735551e+16,4.188599547058997e+16,4071595124558229.0,6523407699080949.0,4443783393845.636,15001726459085.287,504643778649563.6,1.8232904871092884e+16
14.997791114242183,1.2615792443591224e+16,4.2670022790916936e+16,4098165407375469.0,6565977946550201.0,4593523980331.413,15507242974352.867,521651212898303.25,1.884833501354708e+16
15.397746936527026,1.2696415446819246e+16,4.346693580018576e+16,4124355313056404.5,6607938763358687.0,4746813884383.536,16024742318913.121,539061883363108.2,1.9478392837384868e+16
15.805701875257567,1.2775879148290272e+16,4.427703082810335e+16,4150168626440305.0,6649296213477873.0,4903717774083.639,16554442842629.855,556883139299703.2,2.0123345539978468e+16
16.221815912762718,1.2854195053308456e+16,4.510060910291047e+16,4175609084956557.0,6690056284920381.0,5064301537026.946,17096567013913.04,575122468553907.4,2.078346534262027e+16
16.64625223101797,1.2931374538473802e+16,4.59379768933032e+16,4200680384225798.0,6730224898713824.0,5228632306404.092,17651341507834.156,593787500525884.8,2.145902959754971e+16
17.079177275638333,1.3007428867406914e+16,4.678944565030828e+16,4225386183167957.5,6769807917084988.0,5396778487729.986,18218997296428.58,612886009208002.1,2.2150320897656172e+16
17.5207608211511,1.308236920506072e+16,4.7655332149312264e+16,4249730108651368.0,6808811150908330.0,5568809786221.964,18799769741192.63,632425916296570.8,2.2857627188867948e+16
17.97117603757412,1.3156206630714994e+16,4.8535958632435384e+16,4273715759713960.0,6847240366469220.0,5744797234829.404,19393898687783.07,652415294377728.8,2.358124188523683e+16
18.430599558325603,1.3228952149743778e+16,4.943165295142363e+16,4297346711385809.5,6885101291588278.0,5924813222917.711,20001628562928.7,672862370187805.2,2.4321463986732172e+16
18.899211549492115,1.33006167042378e+16,5.034274871123176e+16,4320626518139801.0,6922399621149928.0,6108931525609.657,20623208473563.938,693775527948487.2,2.5078598199756544e+16
19.37719578048196,1.3371211182559654e+16,5.126958541444672e+16,4343558716995554.5,6959141022075410.0,6297227333787.285,21258892308196.777,715163312777181.9,2.5852955060396976e+16
19.864739696091597,1.3440746427903356e+16,5.221250860670794e+16,4366146830299944.0,6995331137777746.0,6489777284758.055,21908938840520.79,737034434173000.8,2.664485106042869e+16
20.36203449001343,1.3509233245925428e+16,5.317187002325844e+16,4388394368206022.0,7030975592133330.0,6686659493589.083,22573611835288.484,759397769578787.8,2.745460877608602e+16
20.869275179813698,1.3576682411510394e+16,5.414802773676633e+16,4410304830870753.5,7066079993003105.0,6887953585113.633,23253180156455.56,782262368019687.6,2.828255699962076e+16
21.38666068340997,1.3643104674729366e+16,5.514134630654124e+16,4431881710390622.5,7100649935333782.0,7093740726614.373,23947917877615.81,805637453818776.6,2.9129030873664456e+16
21.91439389707817,1.3708510766046934e+16,5.615219692926996e+16,4453128492493026.0,7134691003867706.0,7304103661188.12,24658104394738.9,829532430390283.1,2.999437202841603e+16
22.452681775019734,1.3772911400827878e+16,5.71809575913876e+16,4474048658000310.0,7168208775488538.0,7519126741797.291,25384024541231.777,853956884111000.4,3.0878928721676816e+16
23.00173541052013,1.3836317283192746e+16,5.822801322319845e+16,4494645684082214.5,7201208821227833.0,7738895966013.107,26125968705339.97,878920588270506.0,3.1783055981753696e+16
23.561770118730532,1.3898739109267936e+16,5.92937558548544e+16,4514923045311595.0,7233696707956555.0,7963499011456.847,26884232949908.582,904433507100833.6,3.2707115753256176e+16
24.133005521105144,1.3960187569873242e+16,6.037858477429874e+16,4534884214537553.0,7265677999783908.0,8193025271944.676,27659119134524.67,930505799886319.0,3.365147704581127e+16
24.715665631527248,1.4020673352688104e+16,6.148290668727394e+16,4554532663589005.0,7297158259184688.0,8427565894342.541,28450935040061.38,957147825154318.6,3.4616516085723452e+16
25.309978944157795,1.4080207143934364e+16,6.260713587949724e+16,4573871863821426.0,7328143047875244.0,8667213816138.127,29259994495647.164,984370144947585.2,3.560261647060683e+16
25.91617852304095,1.4138799629612588e+16,6.375169438109831e+16,4592905286518412.0,7358637927456667.0,8912063803736.605,30086617508084.72,1012183529179128.1,3.661016932701967e+16
26.53450209350177,1.4196461496325426e+16,6.491701213341464e+16,4611636403159142.0,7388648459843591.0,9162212491487.684,30931130393744.008,1040598960070362.5,3.763957347113084e+16
27.165192135371807,1.4253203431721092e+16,6.6103527158237544e+16,4630068685562455.0,7418180207494836.0,9417758421451.895,31793865912956.297,1069627636673494.6,3.869123557245126e+16
27.808495978079243,1.4309036124587654e+16,6.731168572960061e+16,4648205605917466.0,7447238733462537.0,9678802083913.996,32675163406936.992,1099280979479032.5,3.976557032066304e+16
28.464665897640828,1.436397026462669e+16,6.854194254819831e+16,4666050636710028.0,7475829601274317.0,9945445958652.197,33575368937266.02,1129570635109415.2,4.0863000595581976e+16
29.133959215593645,1.4418016541934192e+16,6.979476091852594e+16,4683607250554196.0,7503958374663215.0,10217794556972.078,34494835427956.14,1160508481099781.5,4.198395764028964e+16
29.816638399905518,1.4471185646214942e+16,7.107061292882488e+16,4700878919936850.0,7531630617158622.0,10495954464514.44,35433922810140.67,1192106630766940.0,4.3128881237472856e+16
30.51297116790363,1.452348826575427e+16,7.236997963392243e+16,4717869116883864.0,7558851891551325.0,10780034384846.568,36392998169413.695,1224377438167622.0,4.4298219889011224e+16
31.223230591261704,1.457493508617136e+16,7.369335124104992e+16,4734581312554972.0,7585627759244496.0,11070145183847.45,37372435895857.02,1257333503147244.8,4.549243099885221e+16
31.947695203086937,1.4625536788975348e+16,7.504122729872331e+16,4751018976774837.0,7611963779502314.0,11366399934896.904,38372617836789.11,1290987676480232.8,4.6711981059219064e+16
32.686649107148675,1.4675304049945598e+16,7.641411688877328e+16,4767185577506863.0,7637865508606955.0,11668913964879.629,39393933452273.48,1325353065103353.5,4.795734584019322e+16
33.44038208929165,1.4724247537355848e+16,7.781253882160358e+16,4783084580276235.0,7663338498934220.0,11977804901015.81,40436779973424.06,1360443037443159.2,4.922901058271957e+16
34.20918973107749,1.4772377910060298e+16,7.923702183476848e+16,4798719447548317.0,7688388297957580.0,12293192718529.209,41501562563548.53,1396271228838971.2,5.052747019508136e+16
34.993373525699035,1.481970581545973e+16,8.06881047949456e+16,4814093638067893.0,7713020447189579.0,12615199789165.537,42588694482169.98,1432851547062799.5,5.185322945289434e+16
35.793240996213015,1.486624188736416e+16,8.216633690338925e+16,4829210606164876.0,7737240481069329.0,12943950930573.201,43698597251968.57,1470198177937556.8,5.320680320267082e+16
36.60910581613728,1.4911996743767346e+16,8.36722779049511e+16,4844073801031358.0,7761053925804428.0,13279573456559.545,44831700828689.38,1508325591055150.2,5.458871656900749e+16
37.44128793246003,1.4956980984547982e+16,8.520649830074562e+16,4858686665974904.0,7784466298174401.0,13622197228235.64,45988443774059.4,1547248545595838.0,5.599950516545042e+16
38.29011369110923,1.5001205189111682e+16,8.676957956455e+16,4873052637652506.0,7807483104303460.0,13971954706063.703,47169273431763.1,1586982096250599.5,5.743971530909386e+16
39.15591596493141,1.50446799139861e+16,8.8362114363013e+16,4887175145289380.0,7830109838408902.0,14328981002821.24,48374646106520.914,1627541599247973.8,5.890990423897161e+16
40.03903428423004,1.5087415690381896e+16,8.998470677976888e+16,4901057609886684.0,7852351981531704.0,14693413937496.045,49605027246325.54,1668942718487122.2,6.0410640338297624e+16
40.93981496991464,1.5129423021730594e+16,9.16379725435267e+16,4914703443421691.0,7874215000255008.0,15065394090127.842,50860891627881.67,1711201431778864.5,6.194250336062259e+16
41.85861126931294,1.517071238121022e+16,9.332253926023254e+16,4928116048044068.0,7895704345416494.0,15445064857611.223,52142723545306.5,1754334037196370.2,6.350608465996235e+16
