t(s),Total solute volume 1,Total retention volume 1,Total 1 volume 1,Total 2 volume 1,Total 3 volume 1,Total 4 volume 1,Total 5 volume 1,Total 6 volume 1
0.1,839524706393360.9,941664656952722.2,50673114377222.37,51466836182138.266,0.0,0.0,0.0,0.0
0.202,1264576425918396.8,1419257216929110.5,76328934047307.45,77524517756257.95,2096617121.0054762,3510635663.0679846,41427241564.51756,780304712799.2566
0.30604000000000003,1587934271976148.2,1783227263826959.2,95846583762774.47,97347883597800.9,5317975680.697218,8904581628.04776,105078601467.5138,1979223331459.0532
0.41216080000000005,1861156281910488.0,2091318362953935.0,112338070046758.55,114097685466890.22,9443036435.06068,15811729358.653212,186586562782.68073,3514484201224.365
0.5204040160000001,2103537877568243.0,2365134613553408.0,126968050848498.64,128956824025521.67,14373270112.01314,24067103944.92998,284004333025.11804,5349416404065.798
0.6308120963200001,2324691873974094.5,2615437358600020.0,140316748849912.05,142514610317440.3,20055444797.416195,33581577474.90619,396280158148.7094,7464208278155.175
0.7434283382464002,2530204919426499.0,2848480784946895.0,152721370170964.38,155113532315610.03,26458755852.564503,44303574909.99552,522805428865.3916,9847395274192.363
0.8582969050113283,2723655371714684.0,3068271593416642.5,164397901944024.4,166972960282649.97,33565426872.624027,56203336167.38078,663228964352.8625,12492361747885.66
0.9754628431115548,2907494722084714.0,3277555832050083.5,175494314437957.56,178243182230489.94,41366076593.497284,69265158404.53682,817365466965.581,15395616594957.518
1.094972099973786,3083487546175320.0,3478311360047463.0,186117116183880.1,189032374994339.8,49857151345.57798,83483096895.94247,985144790267.8064,18555837655417.227
1.2168715419732616,3252953044256430.0,3672018165349777.0,196345933172258.72,199421411792121.53,59039380726.15182,98858379206.4761,1166581424908.3354,21973296944124.176
1.3412089728127268,3416907509948738.0,3859817777327509.5,206242108163548.2,209472596231041.75,68916790941.04256,115397753136.63593,1361755003509.952,25649493436592.652
1.4680331522689813,3576153209771054.5,4042612699314423.5,215854065394484.1,219235111044358.28,79496044770.96263,133112381574.38863,1570797259352.166,29586907418836.38
1.597393815314361,3731336389503886.5,4221131291672724.0,225220811800954.3,228748574155906.16,90785983939.43922,152017076252.32123,1793882984318.63,33788830167468.89
1.729341691620648,3882986562815943.0,4395971711644052.0,234374308451563.66,238045447258788.66,102797302743.02917,172129751293.3203,2031223580467.0833,38259242483251.42
1.863928525453061,4031543962287557.0,4567632610266189.0,243341127471893.94,247152718692986.75,115542310069.00609,193471024754.5665,2283062358058.931,43002726120863.76
2.001207095962122,4177379233148238.0,4736535152463312.0,252143640744500.66,256093110764647.78,129034752845.15536,216063923035.43106,2549671047438.1445,48024398082604.52
2.1412312378813647,4320807886968114.5,4903039176877674.0,260800892323456.84,264885965825753.03,143289683361.4567,239933658746.24225,2831347177788.3486,53329861240449.62
2.284055862638992,4462101121646361.0,5067455292566528.0,269329251521156.34,273547909590599.16,158323358671.52936,265107462293.09277,3128412089768.53,58925166897666.836
2.4297369798917723,4601494055839644.0,5230054093827586.0,277742909934306.22,282093355951052.4,174153163702.5611,291614453500.0415,3441209490568.9785,64816794994817.18
2.578331719489608,4739192134272125.0,5391073286588358.0,286054268056833.4,290534899628721.7,190797553788.86942,319485544067.14026,3770104023589.878,71011597509222.77
2.7298983538794,4875376081961701.0,5550723280546305.0,294274234324176.5,298883619928414.25,208276008894.66498,348753362975.3231,4115480806449.5483,77516834153696.88
2.884496320956988,5010205904291622.0,5709191627727400.0,302412466547521.75,307149325937130.7,226609001301.55212,379452201069.8497,4477744498652.067,84340125250091.22
3.0421862473761276,5143824065767447.0,5866646587091366.0,310477563783138.3,315340751403075.0,245817970921.45248,411617970095.86597,4857318887733.158,91489451308958.28
3.2030299723236504,5276358073999857.0,6023240016059121.0,318477222299763.2,323465713146039.75,265925307970.53384,445288173724.93475,5254646547388.949,98973146584374.28
3.3670905717701234,5407922594336060.0,6179109737883387.0,326418363216233.9,331531240694305.0,286954341466.9413,480501888334.84686,5670188610700.223,106799894796296.73
3.5344323832055258,5538621194938694.0,6334381496407937.0,334307237833219.5,339543683266232.94,308929332547.9435,517299751861.04224,6104424638607.364,114978726646768.31
3.7051210308696363,5668547797997586.0,6489170582798461.0,342149515227326.8,347508798736421.4,331875471821.3514,555723959405.1112,6557852568124.06,123519018837769.23
3.879223451487029,5797787895120722.0,6643583199109724.0,349950355611236.1,355431828144912.2,355818880131.5947,595818264562.9481,7030988728047.812,132430494360110.98
4.0568079205167695,5926419571888177.0,6797717608950556.0,357714472175049.4,363317558507199.3,380786612247.1894,637627985646.777,7524367912422.432,141723223869801.97
4.237944078927105,6054514376764870.0,6951665114568547.0,365446183533241.94,371170376082685.5,406806663073.8501,681200016138.4777,8038543503934.0625,151407628004600.97
4.422702960505647,6182138062155752.0,7105510891392431.0,373149458454237.06,378994311804884.56,433907976073.3839,726582838838.7706,8574087640922.358,161494480521722.16
4.61115701971576,6309351219718259.0,7259334704734354.0,380827954207398.56,386793080229061.7,462120453628.1934,773826543276.7218,9131591422867.32,171994912159873.6
4.803380160110075,6436209827669355.0,7413211528463915.0,388485049598107.75,394570113084761.06,491474969138.4456,822982846023.1708,9711665150145.986,182920415146379.62
4.9994477633122765,6562765724418258.0,7567212081658987.0,396123873555894.2,402328588311725.4,522003380676.7363,874105113614.85,10314938594599.348,194282848284213.84
5.199436718578522,6689067020179943.0,7721403296249780.0,403747329979130.8,410071455293750.1,553738546055.3494,927248387846.7832,10942061298048.182,206094442565010.8
5.403425452950093,6815158456109780.0,7875848726309372.0,411358119412148.7,417801456875337.06,586714339185.8041,982469413231.5905,11593702896382.598,218367807263309.44
5.611493962009095,6941081718814791.0,8030608907762449.0,418958758028913.3,425521148642725.8,620965667630.3595,1039826666457.8743,12270553467244.111,231115936474676.4
5.823723841249277,7066875716745600.0,8185741675774535.0,426551594315843.9,433232915868021.25,656528491261.4291,1099380387707.1688,12973323899642.69,244352216066474.28
6.040198318074262,7192576823883306.0,8341302445867082.0,434138823780582.8,440938988448360.8,693439841958.4894,1161192613711.5752,13702746284117.902,258090431015040.22
6.261002284435747,7318219095250978.0,8497344463815060.0,441722501960112.3,448641454117779.1,731737844282.9799,1225327212452.7917,14459574322272.127,272344773107184.44
6.486222330124463,7443834458056410.0,8653919028578126.0,449304555957996.9,456342270165166.9,771461737081.1594,1291849919418.748,15244583754687.97,287129848987361.25
6.715946776726952,7569452881681112.0,8811075691853777.0,456886794704800.8,464043273855405.6,812651895972.4143,1360828375347.0486,16058572806393.82,302460688534748.0
6.950265712261491,7695102529240984.0,8968862437296011.0,464470918106180.06,471746191720746.25,855349856687.1019,1432332165395.1067,16902362649169.092,318352753556852.6
7.18927102650672,7820809893039548.0,9127325841990328.0,472058525218740.6,479452647864735.9,899598339223.376,1506432859686.1047,17776797880088.066,334821946788293.6
7.433056447036854,7946599915896960.0,9286511222399448.0,479651121573375.56,487164171400261.0,945441272796.9773,1583204055187.4075,18682747015791.906,351884621185112.06
7.681717575977592,8072496100056578.0,9446462766680278.0,487250125748788.5,494882203126036.7,992923821561.8733,1662721418884.622,19621103002053.5,369557589506385.3
7.935351927497144,8198520605133881.0,9607223655006528.0,494856875283616.75,502608101531336.3,1042092411082.8933,1745062732219.9026,20592783738265.38,387858134176126.0
8.194058966047088,8324694336373145.0,9768836169311596.0,502472632003543.1,510343148206539.7,1092994755544.148,1830307936767.6853,21598732616535.098,406804017419502.8
8.45794014536803,8451037024308419.0,9931341793674900.0,510098586829577.8,518088552726737.75,1145679885679.5378,1918539181125.0847,22639919075117.89,426413491668250.25
8.72709894827539,8577567296782290.0,1.0094781306417434e+16,517735864125055.9,525845457066816.1,1200198177413.4304,2009840868997.3125,23717339165956.688,446705310230895.25
9.0016409272409,8704302744153604.0,1.0259194864833994e+16,525385525631537.3,533614939598999.5,1256601381201.4229,2104299708461.4111,24832016136131.83,467698738224034.9
9.281673745785717,8831259978421108.0,1.042462208337492e+16,533048574037453.3,541398018717406.6,1314942652062.3557,2202004762393.96,25985001023051.5,489413563761436.8
9.567307220701432,8958454686900320.0,1.0591102105988804e+16,540725956218019.75,549195656128702.25,1375276580294.1165,2303047500050.2944,27177373263236.36,511870109398177.0
9.85865336511546,9085901681014346.0,1.0758673673252376e+16,548418566180207.9,557008759843202.8,1437659222866.5356,2407521849784.589,28410241314572.582,535089243827370.06
10.155826432417769,9213614940692714.0,1.0927375184839752e+16,556127247742622.94,564838186896729.9,1502148135485.7268,2515524252901.506,29684743291923.836,559092393827392.44
10.458942961066125,9341607654814604.0,1.1097244757818946e+16,563852796976642.6,572684745829987.0,1568802405324.7085,2627153718631.115,31002047616005.305,583901556457745.0
10.768121820287448,9469892258084316.0,1.1268320281207588e+16,571595964432173.8,580549198949178.0,1637682684415.8657,2742511880219.9937,32363353675435.63,609539311501868.2
11.083484256693197,9598480464681326.0,1.1440639467172186e+16,579357457168768.5,588432264388928.6,1708851223701.0703,2861703052131.987,33769892501889.723,636028834155460.4
11.405153941827061,9727383298992178.0,1.1614239899212332e+16,587137940610560.9,596334617996302.9,1782371907735.8574,2984834288352.6387,35222927458283.7,663393907958897.9
11.733257020663602,9856611123696586.0,1.178915907763502e+16,594938040241531.0,604256895052594.0,1858310290043.9827,3112015441792.035,36723754939928.74,691658937972530.4
12.067922161076874,9986173665451756.0,1.1965434462591562e+16,602758343155792.2,612199691847910.1,1936733629119.293,3243359224780.719,38273705088591.12,720848964193629.6
12.409280604298411,1.0116080038394134e+16,1.2143103514921202e+16,610599399476151.8,620163567121948.0,2017710925071.523,3378981270654.027,39874142519404.93,750989675213836.8
12.75746621638438,1.0246338765655392e+16,1.2322203735021102e+16,618461723652772.2,628149043383002.6,2101312956912.9895,3519000196419.724,41526467060577.26,782107422116018.1
13.112615540712067,1.0376957799068844e+16,1.2502772699939758e+16,626345795652658.2,636156608116080.2,2187612320483.055,3663537666504.459,43232114505832.03,814229232609353.6
13.474867851526309,1.050794453722664e+16,1.2684848098871838e+16,634252062049583.5,644186714889897.6,2276683467007.1445,3812718457573.993,44992557379534.56,847382825401544.8
13.844365208556836,1.0639305842032332e+16,1.2868467767215206e+16,642180937023159.2,652239784371602.1,2368602742287.053,3966670524422.3145,46809305714439.336,881596624806948.8
14.221252512727972,1.0771048053878542e+16,1.3053669719335676e+16,650132803274985.1,660316205257269.9,2463448426519.238,4125525066924.4395,48683907842000.45,916899775589439.1
14.605677562982532,1.0903177005569904e+16,1.3240492180170968e+16,658108012869001.9,668416335125423.8,2561300774737.3643,4289416598047.5073,50617951195180.04,953322158038685.5
14.997791114242183,1.1035698035098404e+16,1.3428973615794252e+16,666106888002610.4,676540501220233.1,2662242057875.5654,4458483012914.426,52613063123688.625,990894403278524.2
15.397746936527026,1.1168615997369994e+16,1.361915276304582e+16,674129721714485.9,684689001170406.4,2766356604448.314,4632865658914.051,54670911721587.445,1029647908805984.9
15.805701875257567,1.130193527497267e+16,1.3811068658332868e+16,682176778534526.9,692862103649330.5,2873730842842.7227,4812709406851.401,56793206667174.21,1069614854259441.5
16.221815912762718,1.143565978806829e+16,1.4004760665687384e+16,690248295080916.1,701060048981476.8,2984453344218.7896,4998162723130.9795,58981700075074.24,1110828217414270.9
16.64625223101797,1.1569793003483842e+16,1.420026850416622e+16,698344480608868.1,709283049699747.6,3098614866012.902,5189377742966.03,61238187360448.86,1153321790404308.5
17.079177275638333,1.1704337943071742e+16,1.439763227466813e+16,706465517515249.1,717531291057998.5,3216308396039.3066,5386510344605.718,63564508115231.33,1197130196167248.0
17.5207608211511,1.1839297191403216e+16,1.4596892486238872e+16,714611561802936.8,725804931502677.2,3337629197184.365,5589720224571.86,65962546996289.13,1242288905112003.5
17.97117603757412,1.1974672902853678e+16,1.4798090081927326e+16,722782743508510.5,734104103107195.9,3462674852687.6714,5799170973896.474,68434234625410.56,1288834252005969.0
18.430599558325603,1.2110466808135152e+16,1.5001266464252376e+16,730979167096511.9,742428911972394.0,3591545312003.8877,6015030155350.332,70981548501001.39,1336803453079955.2
18.899211549492115,1.2246680220325574e+16,1.5206463520333762e+16,739200911823395.9,750779438596169.2,3724342937238.851,6237469381652.452,73606513921373.28,1386234623348351.0
19.37719578048196,1.238331404044237e+16,1.5413723646737814e+16,747448032073932.1,759155738215151.1,3861172550152.8384,6466664394649.889,76311204919497.11,1437166794142067.8
19.864739696091597,1.2520368762603154e+16,1.5623089774082742e+16,755720557672712.6,767557841121094.2,4002141479723.647,6702795145455.721,79097745209082.23,1489639930851520.8
20.36203449001343,1.2657844478814256e+16,1.5834605391446228e+16,764018494173176.5,775985752954425.8,4147359610261.589,6946045875533.401,81968309141839.27,1543694950876741.8
20.869275179813698,1.2795740883423756e+16,1.604831457061351e+16,772341823126387.0,784439454977241.1,4296939430067.832,7196605198713.813,84925122675769.66,1599373741781561.2
21.38666068340997,1.2934057277273868e+16,1.626426199020108e+16,780690502331684.8,792918904327864.6,4450996080627.089,7454666184131.107,87970464354313.95,1656719179648601.2
21.91439389707817,1.3072792571584282e+16,1.6482492959688336e+16,789064466071061.5,801424034258910.9,4609647406325.086,7720426440061.874,91106666296183.03,1715775147631487.0
22.452681775019734,1.3211945291595994e+16,1.670305344338528e+16,797463625329112.5,809954754360678.6,4773014004680.127,7994088198651.371,94336115195673.66,1776586554700478.8
23.00173541052013,1.3351513580001972e+16,1.692599008436291e+16,805887868000103.5,818510950771460.1,4941219277077.891,8275858401509.127,97661253333268.05,1839199354577503.8
23.561770118730532,1.349149520018992e+16,1.7151350228368514e+16,814337059083710.0,827092486376343.4,5114389479996.989,8565948786154.668,101084579596283.98,1903660564856093.5
24.133005521105144,1.363188753931855e+16,1.7379181947745778e+16,822811040870689.9,835699200995793.5,5292653776712.526,8864575973292.502,104608650509339.11,1970018286301402.8
24.715665631527248,1.3772687611247528e+16,1.7609534065376472e+16,831309633119734.4,844330911565277.6,5476144289463.013,9171961554893.775,108236081274352.67,2038321722325218.0
25.309978944157795,1.391389205933847e+16,1.7842456178657002e+16,839832633226534.6,852987412306978.2,5664996152065.446,9488332183059.795,111969546819801.42,2108621198630098.5
25.91617852304095,1.4055497159141922e+16,1.8077998683520436e+16,848379816385969.2,861668474894524.8,5859347562961.171,9813919659639.992,115811782858904.25,2180968183016510.0
26.53450209350177,1.4197498820983424e+16,1.8316212798510844e+16,856950935748194.5,870373848611516.1,6059339838674.203,10148961026574.55,119765586956385.03,2255415305346067.0
27.165192135371807,1.4339892592458568e+16,1.8557150588913676e+16,865545722569242.2,879103260504487.9,6265117467661.088,10493698656928.537,123833819603423.62,2332016377653349.5
27.808495978079243,1.4482673660845198e+16,1.8800864990942064e+16,874163886356624.8,887856415530798.6,6476828164530.027,10848380346581.28,128019405300368.25,2410826414397985.0
28.464665897640828,1.4625836855438318e+16,1.9047409835975984e+16,882805115010256.6,896632996701756.5,6694622924604.021,11213259406530.564,132325333646730.86,2491901652847796.5
29.133959215593645,1.4769376649810658e+16,1.9296839874846316e+16,891469074958918.8,905432665221213.5,6918656078800.783,11588594755766.83,136754660437947.23,2575299573582966.0
29.816638399905518,1.4913287163999716e+16,1.9549210802153308e+16,900155411292247.1,914255060619634.5,7149085348798.725,11974651014668.588,141310508768313.4,2661078921109930.5
30.51297116790363,1.5057562166619578e+16,1.9804579280604896e+16,908863747888216.8,923099800883571.6,7386071902455.8545,12371698598864.21,145996070139462.56,2749299724572735.0
31.223230591261704,1.5202195076893856e+16,2.006300296535479e+16,917593687535833.4,931966482580273.2,7629780409444.305,12780013813499.988,150814605573671.22,2840023318548249.5
31.947695203086937,1.5347178966603478e+16,2.032454052831964e+16,926344812052714.0,940854680977115.0,7880379097060.1455,13199878947848.357,155769446731217.97,2933312363910237.5
32.686649107148675,1.5492506561941726e+16,2.0589251682447236e+16,935116682397058.2,949763950155313.4,8138039806163.919,13631582370183.283,160863997030933.28,3029230868745836.5
33.44038208929165,1.5638170245266834e+16,2.085719720590721e+16,943908838773406.5,958693823117359.5,8402938047202.941,14075418622843.549,166101732773002.03,3127844209306582.0
34.20918973107749,1.5784162089037296e+16,2.112843896521453e+16,952720802680437.5,967643813865587.6,8675253073823.728,14531688545134.176,171486204243262.2,3229219113769031.5
34.993373525699035,1.593047372806456e+16,2.140303994209669e+16,961552069202408.0,976613409578019.5,8955167869008.697,15000699258109.605,177021036915500.0,3333423831209045.0
35.793240996213015,1.6077096554937922e+16,2.168106425421301e+16,970402118801566.4,985602082577776.0,9242869305331.28,15482764424434.42,182709932458927.38,3440527931707058.0
36.60910581613728,1.6224021591725928e+16,2.1962577179722396e+16,979270409576342.8,994609282475153.1,9538548131485.805,15978204233870.262,188556669934329.62,3550602473645270.5
37.44128793246003,1.6371239523461772e+16,2.224764518051889e+16,988156379281952.1,1003634438218575.9,9842399045068.203,16487345525049.127,194565106892507.78,3663719988093950.5
38.29011369110923,1.651874069901462e+16,2.2536335925153284e+16,997059445382982.1,1012676958148022.0,10154620747805.203,17010521879553.33,200739180485759.28,3779954499494547.5
39.15591596493141,1.6666515131768816e+16,2.28287183113907e+16,1005979005094407.0,1021736230036665.9,10475416000392.451,17548073715405.46,207082908572446.88,3899381546202547.5
40.03903428423004,1.6814552500099734e+16,2.3124862488357388e+16,1014914435410284.0,1030811621120036.2,10804991676853.666,18100348379824.355,213600390812957.72,4022078200857676.0
40.93981496991464,1.6962842147636276e+16,2.3424839878230092e+16,1023865093119614.6,1039902478112119.4,11143558818329.596,18667700241095.625,220295809755277.2,4148123090547381.5
41.85861126931294,1.7111373083304338e+16,2.372872319742355e+16,1032830314808963.9,1049008127208021.2,11491332686200.555,19250490779399.508,227173431908313.94,4277596416728309.5
42.7957834946992,1.7260133981146916e+16,2.4036586477232204e+16,1041809416851606.0,1058127874072942.6,11848532814442.984,19849088676430.63,234237608801029.1,4410579974868788.0
43.751699164593184,1.7409113179921676e+16,2.4348505083886824e+16,1050801695383222.9,1067261003817495.2,12215383061117.19,20463869903640.918,241492778025384.94,4547157173774280.0
44.72673314788505,1.7558298682479266e+16,2.4664555737988852e+16,1059806426264394.8,1076406780959612.0,12592111658880.299,21095217808931.145,248943464261050.22,4687413054556730.0
