t(s),Total solute volume 1,Total retention volume 1,Total 1 volume 1,Total 2 volume 1,Total 3 volume 1,Total 4 volume 1,Total 5 volume 1,Total 6 volume 1
0.1,1393105271922661.8,5193352995607505.0,1226369007487646.5,2573878716197194.5,0.0,0.0,0.0,3.3616881476863753e-156
0.202,2034381638581208.0,7805829474547868.0,1790893424114079.5,3758695463975347.5,43262870612.33095,220842636602.82455,11915397050769.03,209679445319251.66
0.30604000000000003,2494224306982988.5,9882220798528936.0,2195699134726362.2,4608295098226886.0,107144721028.19682,547016501121.3911,29823417052034.73,553524680318513.3
0.41216080000000005,2857110933443740.5,1.1697379263823494e+16,2515153120235687.0,5278759773624142.0,185946547853.79837,949386599495.3368,51990283433156.516,993229819939413.1
0.5204040160000001,3157715964746316.5,1.3359548805401736e+16,2779779774934604.5,5834153720833944.0,276771142954.532,1413154272783.235,77574601431994.75,1508634818039146.8
0.6308120963200001,3414077608784221.5,1.492319187522069e+16,3005458379252795.5,6307804144842167.0,377827006075.47534,1929170063800.7998,106063242011783.36,2087481503259842.0
0.7434283382464002,3636984846810449.0,1.6420050422414516e+16,3201686619745829.0,6719644643689084.0,487885807621.0437,2491161194793.799,137106736756430.16,2721648528410315.5
0.8582969050113283,3833508096444577.0,1.7870496010887842e+16,3374688680663653.5,7082738435669045.0,606051810887.7394,3094553595232.597,170451332367112.3,3405408860337338.0
0.9754628431115548,4008584809578678.5,1.9288526992622304e+16,3528811067538217.0,7406207895296588.0,731644900500.8715,3735874396430.9546,205904959773144.0,4134550741138734.0
1.094972099973786,4165828367420593.0,2.068426893677185e+16,3667234688529008.0,7696729059454478.0,864134237037.7487,4412413057837.843,243318062820578.3,4905882211252312.0
1.2168715419732616,4307980214845722.5,2.2065347416766064e+16,3792372874444336.5,7959366985894424.0,1003097534545.5587,5122013380373.373,282571889502439.06,5716930341164233.0
1.3412089728127268,4437180502735617.0,2.3437696710042812e+16,3906109628866521.5,8198075788962507.0,1148194513831.0571,5862937928075.95,323570890542014.56,6565748766494252.0
1.4680331522689813,4555139022850444.0,2.48060633257995e+16,4009950104437101.5,8416014456883262.0,1299148749296.3723,6633775320893.204,366237539691163.75,7450789277867343.0
1.597393815314361,4663247972316270.0,2.6174333863191748e+16,4105119870961477.5,8615755194086462.0,1455734765786.7793,7433374341419.947,410508663206980.8,8370813053513332.0
1.729341691620648,4762659085871439.0,2.754575651633425e+16,4192632815968184.5,8799425929811114.0,1617768571947.6956,8260795592620.124,456332754054592.44,9324827366464358.0
1.863928525453061,4854338035494243.0,2.8923095441522148e+16,4273339033435954.5,8968810826187473.0,1785100530140.2698,9115275088461.115,503667953819652.44,1.0312039216966216e+16
2.001207095962122,4939103816192088.0,3.0308741221186044e+16,4347959495635250.0,9125423046928354.0,1957609866567.373,9996196220940.521,552480502227866.9,1.1331820554114984e+16
2.1412312378813647,5017657915394902.0,3.1704791739663464e+16,4417111731338586.5,9270558650330758.0,2135200364356.3555,10903067768202.068,602743523201805.2,1.2383681651264838e+16
2.284055862638992,5090606347530197.0,3.31131125915052e+16,4481329223153731.5,9405337300073712.0,2317796929838.2324,11835506361760.877,654436058849545.5,1.34672503586064e+16
2.4297369798917723,5158476591105629.0,3.453538300525271e+16,4541076317465427.0,9530733557952066.0,2505342816501.693,12793222312169.379,707542289847673.5,1.4582255683753242e+16
2.578331719489608,5221730809917060.0,3.5973131308801892e+16,4596759863242687.0,9647601311206776.0,2697797353164.9834,13776008009434.637,762050898473152.6,1.5728514620599618e+16
2.7298983538794,5280776316681647.0,3.7427762707485e+16,4648738423315610.0,9756693104994482.0,2895134064868.0874,14783728328791.2,817954542547625.4,1.6905921457551936e+16
2.884496320956988,5335973957262716.0,3.890058132091896e+16,4697329655121130.0,9858675632968992.0,3097339104009.9155,15816312620651.025,875249416852285.2,1.8114439006989164e+16
3.0421862473761276,5387644904125975.0,4.039280787008162e+16,4742816291073727.0,9954142288778890.0,3304409929736.266,16873747968150.178,933934884417756.8,1.9354091343787396e+16
3.2030299723236504,5436076216863323.0,4.190559402582306e+16,4785451033569052.0,1.004362343961534e+16,3516354188299.3564,17956073470858.594,994013164288783.4,2.062495774382737e+16
3.3670905717701234,5481525435710558.0,4.344003416457755e+16,4825460598719199.0,1.0127594913132072e+16,3733188757852.56,19063375368082.855,1055489065423153.8,2.1927167587466652e+16
3.5344323832055258,5524224408343703.0,4.499717508870309e+16,4863049085132700.0,1.0206485067780962e+16,3954938929102.6626,20195782855833.832,1118369758648383.2,2.3260896047012396e+16
3.7051210308696363,5564382502657087.0,4.6578024133238424e+16,4898400802166142.0,1.0280680728695784e+16,4181637699216.021,21353464482039.527,1182664580297473.8,2.4626360417240756e+16
3.879223451487029,5602189323265320.0,4.818355598186127e+16,4931682661297143.0,1.035053220666279e+16,4413325160914.785,22536625027766.8,1248384862433824.2,2.6023816978013532e+16
4.0568079205167695,5637817023460796.0,4.9814718441634e+16,4963046211371523.0,1.0416357569660552e+16,4650047972188.162,23745502800030.297,1315543785564654.8,2.7453558300804256e+16
4.237944078927105,5671422284784082.0,5.147243737140277e+16,4992629381245506.0,1.0478446300285734e+16,4891858894752.745,24980367275602.062,1384156250509665.0,2.89159109284074e+16
4.422702960505647,5703148021475914.0,5.315762091734721e+16,5020557980237606.0,1.053706244487398e+16,5138816391520.482,26241517046083.46,1454238766692720.0,3.0411233370629388e+16
4.61115701971576,5733124855643383.0,5.487116317761093e+16,5046946996737137.0,1.0592447338995584e+16,5390984275014.225,27529278023086.42,1525809354599405.5,3.1939914369337348e+16
4.803380160110075,5761472400107159.0,5.661394739361744e+16,5071901727511698.0,1.0644821977625216e+16,5648431400012.793,28844001869224.305,1598887460522067.8,3.350237139458208e+16
4.9994477633122765,5788300378964641.0,5.83868487467812e+16,5095518764153927.0,1.0694389085478012e+16,5911231394787.794,30186064626128.31,1673493882018394.2,3.5099049340145292e+16
5.199436718578522,5813709610440137.0,6.019073682451767e+16,5117886858297563.0,1.0741334932908992e+16,6179462426170.517,31555865515179.113,1749650702756150.0,3.6730419392173496e+16
5.403425452950093,5837792872253939.0,6.20264778077761e+16,5139087683413413.0,1.0785830934756224e+16,6453206994403.284,32953825890299.062,1827381235617911.5,3.839697804884989e+16
5.611493962009095,5860635666271614.0,6.389493642302979e+16,5159196507940298.0,1.0828035063095392e+16,6732551754318.64,34380388325158.625,1906709973104947.8,4.009924627253808e+16
5.823723841249277,5882316896400103.0,6.579697769423264e+16,5178282792046027.0,1.0868093099710588e+16,7017587359878.098,35836015819642.805,1987662544216210.5,4.183776875868021e+16
6.040198318074262,5902909471432532.0,6.773346852426263e+16,5196410718319723.0,1.0906139749901388e+16,7308408329509.041,37321191112502.12,2070265677092204.2,4.361311330807482e+16
6.261002284435747,5922480842697345.0,6.9705279130531784e+16,5213639665071511.0,1.0942299635835218e+16,7605112930020.054,38836416088855.6,2154547166808981.5,4.542587029109983e+16
6.486222330124463,5941093484853356.0,7.171328435549004e+16,5230024629582797.0,1.0976688184857216e+16,7907803077162.963,40382211272685.76,2240535847787794.0,4.727665219405896e+16
6.715946776726952,5958805326924162.0,7.37583648695204e+16,5245616607551617.0,1.1009412425862862e+16,8216584251154.737,41959115395713.02,2328261570354134.0,4.9166093239180824e+16
6.950265712261491,5975670139630835.0,7.58414082810592e+16,5260462934066747.0,1.1040571704927982e+16,8531565425680.87,43567685035104.06,2417755181037848.5,5.109484907093504e+16
7.18927102650672,5991737884220210.0,7.796331016657414e+16,5274607590685903.0,1.1070258329798784e+16,8852859009080.832,45208494313380.3,2509048506255717.0,5.306359650229109e+16
7.433056447036854,6007055027264898.0,8.012497503120582e+16,5288091482558377.0,1.1098558151511502e+16,9180580796570.5,46882134654681.44,2602174339060624.0,5.507303331535918e+16
7.681717575977592,6021664825304845.0,8.232731720934766e+16,5300952688998799.0,1.1125551090291876e+16,9514849932489.668,48589214592218.945,2697166428678400.0,5.712387811154909e+16
7.935351927497144,6035607582688377.0,8.457126171316429e+16,5313226690468008.0,1.1151311611938428e+16,9855788881678.775,50330359622346.67,2794059472585427.0,5.921687020698002e+16
8.194058966047088,6048920885536225.0,8.685774503596608e+16,5324946574534785.0,1.1175909160090952e+16,10203523409190.242,52106212101191.586,2892889110908070.0,6.1352769569385736e+16
8.45794014536803,6061639814382882.0,8.918771591645549e+16,5336143223066767.0,1.119940854910326e+16,10558182567627.896,53917431180240.3,2993691922949419.5,6.3532356793205304e+16
8.72709894827539,6073797137732906.0,9.156213606908062e+16,5346845482620705.0,1.1221870321655222e+16,10919898691486.61,55764692777674.18,3096505425670300.0,6.5756433109932344e+16
9.0016409272409,6085423488499538.0,9.398198088508486e+16,5357080319763715.0,1.124335107473785e+16,11288807397931.732,57648689582594.72,3201368073970267.0,6.802582043113295e+16
9.281673745785717,6096547525058901.0,9.644824010827334e+16,5366872962851415.0,1.1263903757214812e+16,11665047593519.6,59570131089592.164,3308319262631244.0,7.034136142183394e+16
9.567307220701432,6107196078451955.0,9.896191848904374e+16,5376247031611819.0,1.1283577941790496e+16,12048761486413.295,61529743661382.85,3417399329800906.5,7.270391960224069e+16
9.85865336511546,6117394287091305.0,1.015240364198123e+17,5385224655729465.0,1.1302420073892368e+16,12440094603695.969,63528270617484.836,3528649561906318.0,7.51143794759716e+16
10.155826432417769,6127165720178105.0,1.0413563055461595e+17,5393826583491029.0,1.1320473699694168e+16,12839195813426.441,65566472347119.32,3642112199899847.0,7.757364668319221e+16
10.458942961066125,6136532490901865.0,1.0679775441535965e+17,5402072281436580.0,1.13377796752622e+16,13246217351119.758,67645126444717.65,3757830446749871.5,8.008264817721331e+16
10.768121820287448,6145515360379969.0,1.0951147898691746e+17,5409980025858949.0,1.1354376358592584e+16,13661314850369.098,69765027866586.875,3875848476098064.0,8.264233242327088e+16
11.083484256693197,6154133833192227.0,1.1227789330306304e+17,5417566986904043.0,1.1370299786119286e+16,14084647377356.184,71926989107444.19,3996211442013500.5,8.525366961834907e+16
11.405153941827061,6162406245276197.0,1.1509810502500451e+17,5424849305946333.0,1.1385583835108482e+16,14516377469024.244,74131840395665.78,4118965489781153.0,8.79176519310277e+16
11.733257020663602,6170349844870626.0,1.179732410141257e+17,5431842166844351.0,1.140026037320833e+16,14956671174712.299,76380429906224.88,4244157767669230.0,9.063529376045226e+16
12.067922161076874,6177980867124362.0,1.2090444790038022e+17,5438559861619969.0,1.1414359396295276e+16,15405698101071.475,78673623990403.61,4371836439625827.0,9.340763201362318e+16
12.409280604298411,6185314602926668.0,1.2389289264765398e+17,5445015851050686.0,1.1427909155644158e+16,15863631460104.21,81012307421465.94,4502050698860788.0,9.623572640029008e+16
12.75746621638438,6192365462460295.0,1.2693976311729192e+17,5451222820616147.0,1.1440936275347752e+16,16330648120184.51,83397383655570.8,4634850782273674.0,9.91206597448183e+16
13.112615540712067,6199147033929780.0,1.3004626863088285e+17,5457192732197527.0,1.145346586082249e+16,16806928659934.781,85829775107285.7,4770287985693191.0,1.0206353831447262e+17
13.474867851526309,6205672137874221.0,1.3321364053330453e+17,5462936871889767.0,1.1465521599155858e+16,17292657424847.896,88310423439139.6,4908414679897454.0,1.050654921636233e+17
13.844365208556836,6211952877435151.0,1.3644313275695259e+17,5468465894253054.0,1.1477125851980692e+16,17788022586558.066,90840289864717.08,5049284327388159.0,1.081276754934442e+17
14.221252512727972,6218000684915401.0,1.3973602238800501e+17,5473789863299229.0,1.1488299741496646e+16,18293216204674.863,93420355464861.75,5192951499895016.0,1.112512670267291e+17
14.605677562982532,6223826364934000.0,1.4309361023551123e+17,5478918290481588.0,1.1499063230202616e+16,18808434291106.645,96051621516609.52,5339471896589958.0,1.1443747039749533e+17
14.997791114242183,6229440134454179.0,1.4651722140404163e+17,5483860169932094.0,1.15094351948519e+16,19333876876808.57,98735109834525.94,5488902362993152.0,1.1768751455509893e+17
15.397746936527026,6234851659936687.0,1.5000820587058166e+17,5488624011167973.0,1.1519433495096156e+16,19869748080900.992,101471863124166.11,5641300910555669.0,1.2100265418262003e+17
15.805701875257567,6240070091848099.0,1.535679390663147e+17,5493217869469760.0,1.1529075037242478e+16,20416256182110.406,104262945347418.72,5796726736905633.0,1.2438417012931912e+17
16.221815912762718,6245104096733432.0,1.57197822463897e+17,5497649374115341.0,1.1538375833510398e+16,20973613692494.246,107109442099534.92,5955240246747110.0,1.2783336985699869e+17
16.64625223101797,6249961887044336.0,1.608992841707953e+17,5501925754638022.0,1.1547351057141882e+16,21542037433416.992,110012460997677.25,6116903073402504.0,1.3135158790013752e+17
17.079177275638333,6254651248897198.0,1.6467377952922822e+17,5506053865262444.0,1.1556015093687014e+16,22121748613751.434,112973132080854.73,6281778100991458.0,1.3494018633969547e+17
17.5207608211511,6259179567920971.0,1.6852279172322374e+17,5510040207658716.0,1.1564381588760006e+16,22712972910284.64,115992608221145.27,6449929487240419.0,1.3860055529051211e+17
17.97117603757412,6263553853340737.0,1.7244783239328582e+17,5513890952143524.0,1.1572463492535644e+16,23315940550314.168,119072065546124.52,6621422686918866.0,1.4233411340225058e+17
18.430599558325603,6267780760430732.0,1.7645044225913824e+17,5517611957445835.0,1.1580273101233314e+16,23930886396423.66,122212703872456.12,6796324475899326.0,1.461423083738602e+17
18.899211549492115,6271866611459555.0,1.8053219175099645e+17,5521208789145219.0,1.1587822095814952e+16,24558050033432.992,125415747150611.03,6974702975839725.0,1.500266174815529e+17
19.37719578048196,6275817415239986.0,1.8469468164980525e+17,5524686736881869.0,1.1595121578105182e+16,25197675857520.82,128682443920712.9,7156627679487620.0,1.5398854812031242e+17
19.864739696091597,6279638885386856.0,1.8893954373686208e+17,5528050830429174.0,1.160218210452415e+16,25850013167522.734,132014067779522.1,7342169476607163.0,1.5802963835896768e+17
20.36203449001343,6283336457377598.0,1.932684414532344e+17,5531305854712415.0,1.1609013717608552e+16,26515316258409.957,135411917858588.61,7531400680530423.0,1.6215145750888854e+17
20.869275179813698,6286915304503015.0,1.9768307056937267e+17,5534456363850431.0,1.1615625975481948e+16,27193844516959.156,138877319313625.1,7724395055335728.0,1.663556067063708e+17
21.38666068340997,6290380352788422.0,2.021851598653027e+17,5537506694290874.0,1.1622027979422964e+16,27885862519624.32,142411623825161.6,7921227843656652.0,1.706437195087989e+17
21.91439389707817,6293736294959035.0,2.067764718217834e+17,5540460977104149.0,1.1628228399667466e+16,28591640132627.05,146016210110563.44,8121975795125801.0,1.7501746250468374e+17
22.452681775019734,6296987603517796.0,2.1145880332280298e+17,5543323149496011.0,1.1634235499571106e+16,29311452614282.56,149692484447503.25,8326717195458677.0,1.7947853593769782e+17
23.00173541052013,6300138542998430.0,2.1623398636977962e+17,5546096965594052.0,1.1640057158247798e+16,30045580719582.19,153441881208994.44,8535531896183329.0,1.8402867434482746e+17
23.561770118730532,6303193181451501.0,2.2110388880783315e+17,5548786006559100.0,1.1645700891791288e+16,30794310807054.816,157265863410102.5,8748501345022275.0,1.8866964720879165e+17
24.133005521105144,6306155401217165.0,2.2607041506448646e+17,5551393690068539.0,1.1651173873178776e+16,31557934947932.516,161165923266466.16,8965708616933899.0,1.934032596248737e+17
24.715665631527248,6309028909033800.0,2.3113550690115578e+17,5553923279215152.0,1.1656482950947452e+16,32336751037647.746,165143582764764.6,9187238445820896.0,1.98231352982336e+17
25.309978944157795,6311817245528297.0,2.3630114417777862e+17,5556377890861502.0,1.1661634666728616e+16,33131062909690.67,169200394245285.3,9413177256914212.0,2.0315580566059107e+17
25.91617852304095,6314523794130132.0,2.415693456309411e+17,5558760503487107.0,1.1666635271717306e+16,33941180451858.336,173337940996751.3,9643613199841234.0,2.0817853374031677e+17
26.53450209350177,6317151789448297.0,2.4694216966584707e+17,5561073964562801.0,1.167149074214933e+16,34767419724928.09,177557837863576.72,9878636182387570.0,2.133014917297106e+17
27.165192135371807,6319704325147270.0,2.5242171516248794e+17,5563320997484032.0,1.1676206793852864e+16,35610103083790.195,181861731865731.5,1.0118337904962348e+16,2.1852667330609206e+17
27.808495978079243,6322184361355485.0,2.5801012229636278e+17,5565504208092627.0,1.1680788895936216e+16,36469559301075.734,186251302831399.12,1.036281189577735e+16,2.2385611207306845e+17
28.464665897640828,6324594731637337.0,2.6370957337409664e+17,5567626090814394.0,1.1685242283669248e+16,37346123693317.76,190728264042628.78,1.0612153546750702e+16,2.2929188233348896e+17
29.133959215593645,6326938149557544.0,2.6952229368431747e+17,5569689034437770.0,1.168957197061164e+16,38240138249685.45,195294362894179.9,1.0866460150146522e+16,2.3483609987841987e+17
29.816638399905518,6329217214864556.0,2.7545055236414173e+17,5571695327557155.0,1.1693782760037222e+16,39151951763331.72,199951381565772.84,1.1125830935962068e+16,2.4049092279239152e+17
30.51297116790363,6331434419317739.0,2.8149666328162592e+17,5573647163702702.0,1.1697879255700256e+16,40081919965397.27,204701137707966.7,1.1390367110074554e+16,2.462585522751572e+17
31.223230591261704,6333592152181476.0,2.8766298593454262e+17,5575546646176811.0,1.1701865871986228e+16,41030405661714.52,209545485141886.88,1.1660171893160198e+16,2.5214123348023414e+17
31.947695203086937,6335692705407449.0,2.93951926365845e+17,5577395792616204.0,1.1705746843486688e+16,41997778872257.37,214486314573041.53,1.1935350560398316e+16,2.5814125637049114e+17
32.686649107148675,6337738278525141.0,3.0036593809618106e+17,5579196539297049.0,1.1709526234034706e+16,42984416973382.19,219525554319461.12,1.2216010481973876e+16,2.6426095659105757e+17
33.44038208929165,6339730983258887.0,3.0690752307382694e+17,5580950745199463.0,1.1713207945235506e+16,43990704842909.85,224665171054414.25,1.2502261164392256e+16,2.7050271635984336e+17
34.20918973107749,6341672847888865.0,3.1357923264240525e+17,5582660195846487.0,1.1716795724523538e+16,45017035008096.35,229907170563952.7,1.279421429262009e+16,2.768689653759543e+17
34.993373525699035,6343565821371883.0,3.203836685267769e+17,5584326606931759.0,1.1720293172776252e+16,46063807796543.65,235253598519547.1,1.3091983773066964e+16,2.8336218174631408e+17
35.793240996213015,6345411777237069.0,3.2732348383746554e+17,5585951627748868.0,1.1723703751511516e+16,47131431490102.875,240706541266081.1,1.3395685777422596e+16,2.899848929307892e+17
36.60910581613728,6347212517270268.0,3.344013840940126e+17,5587536844434793.0,1.1727030789694944e+16,48220322481822.01,246268126625480.12,1.3705438787364792e+16,2.967396767061403e+17
37.44128793246003,6348969775000065.0,3.41620128267645e+17,5589083783038747.0,1.1730277490180776e+16,49330905435993.664,251940524716255.4,1.4021363640153786e+16,3.036291621491195e+17
38.29011369110923,6350685218997758.0,3.4898252984364826e+17,5590593912427122.0,1.1733446935808586e+16,50463613451358.25,257725948789250.8,1.4343583575128938e+16,3.1065603063904506e+17
39.15591596493141,6352360456002334.0,3.5649145790384045e+17,5592068647034481.0,1.1736542095177226e+16,51618888227519.305,263626656079891.44,1.4672224281124008e+16,3.178230168801951e+17
40.03903428423004,6353997033881107.0,3.641498382295514e+17,5593509349469846.0,1.1739565828114708e+16,52797180234630.06,269644948677227.1,1.5007413944817838e+16,3.251329099443556e+17
