t(s),Total solute volume 1,Total retention volume 1,Total 1 volume 1,Total 2 volume 1,Total 3 volume 1,Total 4 volume 1,Total 5 volume 1,Total 6 volume 1
0.1,1090211262672958.4,1436790320131653.8,152346489675587.4,194232567783107.2,0.0,0.0,0.0,0.0
0.202,1641722956282563.8,2163776406658696.0,229414921076691.25,292490165494749.06,112965890.31135042,268359055.40425605,5350014936.148745,142632464809.32196
0.30604000000000003,2061906874725600.8,2717765238197692.0,288131564083301.5,367350338891970.44,286590139.20370257,680817132.7835478,13573064777.60996,361920024766.21277
0.41216080000000005,2417312087290268.5,3186446306819126.5,337796008742029.94,430669505903877.44,509031850.1691385,1209245048.4794269,24108227615.22225,642878378433.3574
0.5204040160000001,2732913213404507.0,3602726770983724.0,381898216874914.25,486897157257597.8,775032000.2082546,1841149552.1146245,36706411055.94253,978860854099.0978
0.6308120963200001,3021158841950868.0,3983008926888808.5,422177758516379.06,538251139717710.4,1081768264.0738444,2569825980.3945365,51233939467.06998,1366301170129.8667
0.7434283382464002,3289285501153755.0,4336827678860597.0,459645868572729.44,586020716721931.8,1427625857.4535577,3391438284.5299926,67614331334.13044,1803159016700.1943
0.8582969050113283,3541929394594603.5,4670291884405166.0,494950411702486.9,631031876581677.6,1811692442.0965433,4303819134.31249,85804375354.88788,2288281639476.668
0.9754628431115548,3782267627790822.5,4987588050537853.0,528535357706185.06,673850653977215.5,2233509246.9416285,5305878685.609794,105782342520.21432,2821089333177.5576
1.094972099973786,4012587920773354.0,5291730977309637.0,560720393355224.9,714884630232553.6,2692933234.2746267,6397277144.723717,127541457817.987,3401401280312.521
1.2168715419732616,4234601408214285.5,5584975888504867.0,591744633187728.0,754438661940604.6,3190054274.086068,7578228009.312001,151085977346.71216,4029330902611.3345
1.3412089728127268,4449627142262945.5,5869061518635214.0,621792401997360.4,792747752079367.4,3725142299.189503,8849372531.082914,176428685425.1147,4705219095280.316
1.4680331522689813,4658707193963635.0,6145361758826309.0,651009319144428.0,829997556537154.9,4298612021.4358225,10211695896.314722,203589223452.79062,5429589649715.019
1.597393815314361,4862681771252841.0,6414984622825075.0,679512795570232.5,866337767171914.4,4910998532.239357,11666469262.947765,232592934285.27692,6203118428007.299
1.729341691620648,5062240096028150.0,6678839275147186.0,707399143375911.5,901891176094816.6,5562939964.340995,13215208572.22101,263470041049.90805,7026611458720.201
1.863928525453061,5257955950926728.0,6937682861673911.0,734748543141290.4,936760008701770.1,6255164911.093292,14859644662.189096,296255051291.2203,7900989043249.08
2.001207095962122,5450313180354035.0,7192154105296068.0,761628607447269.0,971030466949209.0,6988483155.2443,16601701243.22317,330986317863.1832,8827274043283.186
2.1412312378813647,5639724405883940.0,7442797961882150.0,788096996172159.2,1004776063698976.0,7763778764.167298,18443478495.196175,367705711902.54285,9806583157905.152
2.284055862638992,5826545036393844.0,7690084077451557.0,814203374272717.1,1038060118770850.8,8582004918.48768,20387240782.494686,406458377900.3003,10840120390543.053
2.4297369798917723,6011083939944458.0,7934420847563005.0,839990903076227.0,1070937660249903.6,9444180037.926102,22435407450.67379,447292550212.6496,11929172154718.055
2.578331719489608,6193611699016927.0,8176166293108171.0,865497393870136.9,1103456895243579.0,10351384896.924404,24590545974.421753,490259416450.4702,13075103630189.955
2.7298983538794,6374367084684446.0,8415636589847662.0,890756212604977.1,1135660363323280.0,11304760509.012022,26855366931.73159,535413017278.26465,14279356090249.61
2.884496320956988,6553562196964608.0,8653112840903487.0,915796998208958.6,1167585852332087.8,12305506618.175276,29232720420.057972,582810174962.2222,15543444995830.674
3.0421862473761276,6731386591811676.0,8888846514382509.0,940646239295249.5,1199267133651702.2,13354880677.035078,31725593628.928303,632510444974.7122,16868958704595.576
3.2030299723236504,6908010628130351.0,9123063853586758.0,965327741874814.8,1230734558508059.0,14454197221.272703,34337109353.874905,684576086366.0281,18257557680591.305
3.3670905717701234,7083588207302608.0,9355969487045956.0,989863012178835.4,1262015546046798.5,15604827571.233662,37070525287.60626,739072047632.0815,19710974117218.074
3.5344323832055258,7258259034438079.0,9587749408588930.0,1014271572646584.6,1293134986198704.8,16808199807.456614,39929233961.91136,796065965555.8348,21231011906235.824
3.7051210308696363,7432150499331908.0,9818573456532852.0,1038571224771131.4,1324115574792108.0,18065798978.676212,42916763241.82684,855628175059.2717,22819546900445.438
3.879223451487029,7605379252276223.0,1.0048597390982462e+16,1062778269303753.8,1354978094300224.0,19379167509.764877,46036777294.77686,917831728524.9587,24478527428942.297
4.0568079205167695,7778052532956893.0,1.0277964645948916e+16,1086907691954428.8,1385741650598025.0,20749905783.894028,49293077973.58636,982752423369.0493,26209975032451.17
4.237944078927105,7950269297994630.0,1.050680781630425e+16,1110973320954813.1,1416423873845561.8,22179672878.457542,52689606564.77404,1050468836896.9006,28015985392901.234
4.422702960505647,8122121183093357.0,1.073524992694481e+16,1134987961509165.8,1447041089904749.8,23670187438.410885,56230445863.28576,1121062367666.98,29898729436588.477
4.61115701971576,8293693328418355.0,1.0963405521868846e+16,1158963511132988.8,1477608467389155.8,25223228673.911583,59919822542.52193,1194617282742.053,31860454594360.93
4.803380160110075,8465065090161396.0,1.1191381603408668e+16,1182911059087356.5,1508140144436801.2,26840637471.7195,63762109794.610855,1271220770328.3257,33903486205508.082
4.9994477633122765,8636310656838481.0,1.1419278446048992e+16,1206840972500597.2,1538649338510048.5,28524317611.875153,67761830220.78168,1350962997400.805,36030229054641.53
5.199436718578522,8807499585403246.0,1.1647190304699014e+16,1230762971284939.5,1569148441909853.8,30276237082.83693,71923658955.63797,1433937171991.9958,38243169032951.27
5.403425452950093,8978697269520956.0,1.187520603368124e+16,1254686193573288.8,1599649105203665.2,32098429489.615044,76252427012.3559,1520239609885.1533,40544874916938.305
5.611493962009095,9149965350166628.0,1.2103409629825792e+16,1278619253096346.0,1630162310377812.8,33992995550.549583,80753124838.46437,1609969805505.9678,42938000259124.6
5.823723841249277,9321362076962552.0,1.2331880710756104e+16,1302570289676037.8,1660698435213541.0,35962104679.29807,85430906074.05382,1703230506850.0479,45425285386401.87
6.040198318074262,9492942627258928.0,1.2560694937592614e+16,1326547013813938.0,1691267310134612.0,38007996649.36209,90291091506.0656,1800127794319.7012,48009559502647.695
6.261002284435747,9664759388816588.0,1.2789924389793232e+16,1350556746193481.0,1721878268570185.8,40132983339.12346,95339173213.84024,1900771163373.8816,50693742893039.82
6.486222330124463,9836862211015612.0,1.301963789861833e+16,1374606452783891.0,1752540191710240.8,42339450555.898705,100580818902.38786,2005273610920.6904,53480849228192.6
6.715946776726952,1.0009298628746576e+16,1.324990134469618e+16,1398702776126857.5,1783261548394178.8,44629859937.98258,106021876420.92693,2113751725403.7139,56373987966808.016
6.950265712261491,1.0182114062508624e+16,1.3480777924333362e+16,1422852063298312.5,1814050430760412.8,47006750934.04099,111668378465.18256,2226325780551.869,59376366856039.56
7.18927102650672,1.0355351997714594e+16,1.3712328388522824e+16,1447060390964539.8,1844914586191393.5,49472742859.55726,117526547462.73164,2343119832778.7705,62491294529190.42
7.433056447036854,1.0529054145765704e+16,1.3944611258028044e+16,1471333587890863.0,1875861446010821.8,52030537030.32504,123602800641.38594,2464261822231.266,65722183200740.41
7.681717575977592,1.0703260589095286e+16,1.4177683017440798e+16,1495677255210073.2,1906898151324671.8,54682918973.24451,129903755281.21889,2589883677499.3237,69072551459023.94
7.935351927497144,1.0878009912072894e+16,1.4411598290707104e+16,1520096784715033.2,1938031576343139.5,57432760714.89868,136436234151.3707,2720121424009.963,72546027157164.28
8.194058966047088,1.1053339319402952e+16,1.4646410000274852e+16,1544597375403726.5,1969268349474611.0,60283023148.595955,143207271133.26303,2855115296137.444,76146350403127.33
8.45794014536803,1.122928474343314e+16,1.4882169511730056e+16,1569184048474570.2,2000614872443767.5,63236758480.739746,150224117032.26895,2995009853070.877,79877376649986.34
8.72709894827539,1.1405880941602224e+16,1.5118926765543488e+16,1593861660943806.2,2032077337652945.2,66297112757.55289,157494245580.27066,3139954098487.602,83743079887692.14
9.0016409272409,1.158316158509877e+16,1.5356730397341114e+16,1618634918034739.5,2063661743977614.5,69467328473.32979,165025359631.912,3290101604088.117,87747555937835.27
9.281673745785717,1.1761159339667878e+16,1.5595627847935404e+16,1643508384469633.5,2095373911162947.5,72750747261.52678,172825397557.63626,3445610637054.5283,91895025853050.14
9.567307220701432,1.1939905939385552e+16,1.5835665464198912e+16,1668486494778995.0,2127219492967472.5,76150812670.12828,180902539836.9365,3606644291500.541,96189839422881.27
9.85865336511546,1.2119432254121938e+16,1.607688859173424e+16,1693573562728941.5,2159203989182420.2,79671073022.83487,189265215855.49756,3773370623986.5337,100636478788066.52
10.155826432417769,1.2299768351328514e+16,1.6319341660177268e+16,1718773789955297.2,2191332756639670.5,83315184367.74132,197922110910.17773,3945962793178.302,105239562165338.08
10.458942961066125,1.2480943552708582e+16,1.656306826187533e+16,1744091273882821.5,2223611019308298.0,87086913515.26375,206882173426.01892,4124599203733.1294,110003847684970.53
10.768121820287448,1.2662986486267948e+16,1.6808111224596012e+16,1769530014998725.2,2256043877567848.0,90990141167.17746,216154622389.70923,4309463654501.2124,114934237343423.61
11.083484256693197,1.2845925134184024e+16,1.7054512678847576e+16,1795093923541947.5,2288636316736771.0,95028865138.72246,225748955004.1424,4500745491135.194,120035781073555.84
11.405153941827061,1.302978687688498e+16,1.7302314120329786e+16,1820786825662777.8,2321393214925593.5,99207203675.81909,235674954568.92914,4698639763204.471,125313680934982.03
11.733257020663602,1.3214598533685484e+16,1.7551556467974046e+16,1846612469101342.8,2354319350276574.5,103529398869.52452,245942698591.92075,4903347385915.369,130773295427277.97
12.067922161076874,1.3400386400290474e+16,1.7802280117986906e+16,1872574528428333.0,2387419407645416.0,107999820169.94504,256562567137.01147,5115075306541.855,136420143928819.45
12.409280604298411,1.3587176283442652e+16,1.8054524994262676e+16,1898676609886713.0,2420697984774064.5,112622968001.90099,267545251413.67102,5334036675675.741,142259911264163.4
12.75746621638438,1.3774993532962976e+16,1.8308330595497556e+16,1924922255869045.0,2454159597999059.0,117403477484.71819,278901762613.8538,5560451023409.046,148298452402970.7
13.112615540712067,1.3963863071406106e+16,1.8563736039299956e+16,1951314949061542.0,2487808687534967.0,122346122258.60466,290643441002.11523,5794544440564.315,154541797293572.47
13.474867851526309,1.4153809421530732e+16,1.8820780103565252e+16,1977858116282812.2,2521649622368539.5,127455818420.14145,302781965264.95825,6036549765093.452,160996155834380.6
13.844365208556836,1.4344856731765036e+16,1.9079501265353892e+16,2004555132042379.8,2555686704795575.5,132737628569.49774,315329362125.59766,6286706773768.213,167667922986433.34
14.221252512727972,1.4537028799828878e+16,1.933993773749203e+16,2031409321841670.2,2589924174629535.5,138196765972.05576,328298016230.53217,6545262379289.733,174563684030478.7
14.605677562982532,1.4730349094659376e+16,1.9602127503089184e+16,2058423965237903.5,2624366213107787.5,143838598837.202,341700680314.47266,6812470832947.658,181690219972066.3
14.997791114242183,1.492484077677198e+16,1.986610834815202e+16,2085602298689348.0,2659016946519140.0,149668654717.12747,355550485650.3626,7088593932963.425,189054513098246.16
15.397746936527026,1.5120526717176696e+16,2.0131917892455424e+16,2112947518198684.2,2693880449573966.0,155692625028.5337,369860952791.40643,7373901238655.137,196663752689535.97
15.805701875257567,1.5317429514957796e+16,2.0399593618817428e+16,2140462781769589.0,2728960748536197.0,161916369700.24014,384646002612.1973,7668670290565.718,204525340890939.25
16.221815912762718,1.5515571513615524e+16,2.0669172900912876e+16,2168151211690352.5,2764261824134859.5,168345921949.74655,399919967656.19556,7973186836699.02,212646898745867.06
16.64625223101797,1.5714974816259282e+16,2.094069302974592e+16,2196015896656972.5,2799787614270759.5,174987493191.8805,415697603797.0231,8287745065012.191,221036272396924.22
17.079177275638333,1.5915661299733512e+16,2.1214191238894136e+16,2224059893747093.2,2835542016533254.0,181847478082.7387,431994102221.16705,8612647842316.563,229701539457618.53
17.5207608211511,1.6117652627749942e+16,2.148970472862523e+16,2252286230255122.0,2871528890539857.0,188932459702.2079,448825101739.9136,8948206959741.916,238651015559130.75
17.97117603757412,1.6320970263094254e+16,2.1767270688980904e+16,2280697905397997.5,2907752060111035.5,196249214878.41196,466206701438.46674,9294743384923.775,247893261076384.12
18.430599558325603,1.6525635478968382e+16,2.20469263219116e+16,2309297891900163.5,2944215315290903.5,203804719657.52444,484155473670.4094,9652587521075.576,257437088037758.9
18.899211549492115,1.6731669369524704e+16,2.232870886254259e+16,2338089137465613.0,2980922414224000.0,211606154922.44833,502688477405.84174,10022079473112.377,267291567222866.53
19.37719578048196,1.6939092859643408e+16,2.261265559964293e+16,2367074566144187.0,3017877084897287.5,219660912163.94232,521823271941.6864,10403569320995.055,277466035452918.78
19.864739696091597,1.7147926714000392e+16,2.2898803895363908e+16,2396257079598723.5,3055083026755615.0,227976599407.85062,541577930982.8748,10797417400468.957,287970103078307.8
20.36203449001343,1.735819154546814e+16,2.3187191204309508e+16,2425639558279009.5,3092543912198497.5,236561047302.17282,561971057103.2484,11203994591372.902,298813661668102.0
20.869275179813698,1.756990782288985e+16,2.3477855091995016e+16,2455224862508116.5,3130263387965099.0,245422315367.76816,583021796595.2347,11623682613699.666,310006891906286.56
21.38666068340997,1.778309587826196e+16,2.3770833252746356e+16,2485015833486129.0,3168245076413920.5,254568698416.58768,604749854717.5339,12056874331591.15,321560271699634.44
21.91439389707817,1.7997775913359322e+16,2.4066163527090428e+16,2515015294215876.5,3206492576703076.0,264008733141.38812,627175511350.1837,12503974065456.11,333484584502212.75
22.452681775019734,1.8213968005832356e+16,2.436388391868007e+16,2545226050355051.0,3245009465876669.0,273751204880.9581,650319637066.6262,12965397912401.45,345790927861638.44
23.00173541052013,1.8431692114805308e+16,2.466403261079739e+16,2575650890998420.5,3283799299862098.5,283805154564.96747,674203709632.5133,13441574075171.787,358490722192239.06
23.561770118730532,1.8650968086000456e+16,2.4966647982474428e+16,2606292589393948.0,3322865614383002.5,294179885842.6274,698849830941.2019,13932943199795.098,371595719780442.9
24.133005521105144,1.8871815656412404e+16,2.527176862426707e+16,2637153903595947.0,3362211925792068.0,304884972399.41656,724280744396.0459,14439958722136.836,385118014027751.94
24.715665631527248,1.9094254458554028e+16,2.557943335371849e+16,2668237577058412.0,3401841731827448.5,315930265466.207,750519852749.8195,14963087223567.373,399070048936789.8
25.309978944157795,1.9318304024294092e+16,2.5889681230541756e+16,2699546339171286.5,3441758512296502.0,327325901525.2023,777591236411.7068,15502808795951.93,413464628845988.1
25.91617852304095,1.9543983788305092e+16,2.620255157155465e+16,2731082905742298.5,3481965729690037.5,339082310217.173,805519672232.5266,16059617416175.305,428314928418579.5
26.53450209350177,1.977131293087507e+16,2.6518083970312196e+16,2762849957042782.0,3522466801237718.5,351210219689.9323,834330647756.5015,16634022118040.488,443634718171139.56
27.165192135371807,2.0000311020761828e+16,2.6836318296585356e+16,2794850227594847.5,3563265213199088.0,363720675898.27234,864050400932.5403,17226544256960.46,459437519695809.2
27.808495978079243,2.0230997058473184e+16,2.7157294726104176e+16,2827086372547238.0,3604364350773886.5,376625034794.31506,894705910708.944,17837722577669.742,475737890786785.5
28.464665897640828,2.0463390117159332e+16,2.748105374945912e+16,2859561057188435.0,3645767612043958.0,389934981912.28125,926324937502.6254,18468110540723.75,492550592607275.8
29.133959215593645,2.0697509184719176e+16,2.7807636186201576e+16,2892276934893865.0,3687478379902714.0,403662538662.7045,958936039657.1587,19118277515016.9,509890810592507.0
29.816638399905518,2.09333731652137e+16,2.8137083198830764e+16,2925236647323399.5,3729500022306999.0,417820071545.5317,992568595330.5237,19788809214170.28,527774166105605.94
30.51297116790363,2.1171000879994668e+16,2.846943630669554e+16,2958442824579124.0,3771835892478111.5,432420301598.12103,1027252824940.9305,20480308144038.84,546216728373027.7
31.223230591261704,2.1410411068546028e+16,2.8804737399833256e+16,2991898085322871.0,3814489329051744.5,447476314082.9773,1063019814182.2363,21193394061574.043,565235026722819.0
31.947695203086937,2.165162238904781e+16,2.914302875276483e+16,3025605036855041.0,3857463656178472.0,463001568420.37683,1099901537621.1711,21928704445286.305,584846063132201.6
32.686649107148675,2.1894653418671204e+16,2.948435303826311e+16,3059566275155839.5,3900762183576280.0,479009908371.0436,1137930882888.6675,22686894977551.797,605067325091000.6
33.44038208929165,2.2139522653611616e+16,2.982875334111243e+16,3093784384889861.0,3944388206536437.0,495515572474.1348,1177141675477.7634,23468640039012.895,625916798787529.9
34.20918973107749,2.238624850886712e+16,3.017627317187424e+16,3128261939375185.5,3988345005884097.5,512533204745.8438,1217568704160.7,24274633215322.598,647412982623610.6
34.993373525699035,2.2634849317768996e+16,3.052695648067605e+16,3163001500517755.0,4032635847894627.0,530077865643.9654,1259247747037.9417,25105587816487.754,669574901065488.5
35.793240996213015,2.288534333126959e+16,3.0880847671036172e+16,3198005618711818.5,4077263984166675.5,548165043303.8742,1302215598232.0105,25962237409067.41,692422118837429.0
36.60910581613728,2.313774871699359e+16,3.1237991613740892e+16,3233276832707407.0,4122232651453210.0,566810665051.3584,1346510095239.1265,26845336361485.04,715974755464908.5
37.44128793246003,2.339208355805651e+16,3.1598433660785908e+16,3268817669445207.0,4167545071451040.5,586031109197.8394,1392170146951.763,27755660402716.598,740253500174290.0
38.29011369110923,2.3648366095967228e+16,3.1962219652196776e+16,3304630677987805.0,4213204494012674.0,605843223256.3016,1439235774563.1792,28694006075393.62,765279299155870.0
39.15591596493141,2.3906613753381684e+16,3.2329395952124004e+16,3340718293007111.5,4259214023294225.5,626264311967.3561,1487748092544.3374,29661195769108.133,791074674267370.5
40.03903428423004,2.4166844593603636e+16,3.270000944058518e+16,3377083038663301.5,4305576877399349.0,647312186245.3722,1537749410887.1772,30658071694589.12,817661797627145.0
40.93981496991464,2.4429076345389756e+16,3.3074107535525084e+16,3413727392378828.0,4352296214892074.0,669005152140.2034,1589283218179.0005,31685500886647.36,845063793607455.5
41.85861126931294,2.4693326643740404e+16,3.3451738207242536e+16,3450653818474630.5,4399375177632760.5,691362030095.3398,1642394225046.0703,32744374744007.395,873304436395571.5
42.7957834946992,2.495961302741656e+16,3.383294999297196e+16,3487864767823098.0,4446816890335679.0,714402168555.937,1697128396483.343,33835609673847.305,902408167157746.9
43.751699164593184,2.522795293623335e+16,3.4217792011616332e+16,3525362677469913.5,4494624460086904.5,738145457898.5469,1753532984948.488,34960147751583.484,932400111631732.0
