t(s),Total solute volume 1,Total retention volume 1,Total 1 volume 1,Total 2 volume 1,Total 3 volume 1,Total 4 volume 1,Total 5 volume 1,Total 6 volume 1
0.1,919935341976466.9,1072551036543860.6,72903600131805.52,79712094435588.67,0.0,0.0,0.0,0.0
0.202,1385973325976855.0,1615933928084415.0,109836464299819.48,120094133107941.8,51501984.396492645,96595957.22544388,1351303091.7578163,28505298764.20905
0.30604000000000003,1740910242709971.0,2029800396904958.5,137964722823238.88,150849300371827.7,130673515.52630451,245088328.13348848,3428606672.1388764,72326631405.13399
0.41216080000000005,2041127307424334.8,2379882057701574.0,161756508934294.12,176863010390428.1,232112566.98064613,435345179.7751438,6090167946.032528,128473326827.5639
0.5204040160000001,2307735357719515.0,2690790603082932.5,182884827250456.34,199964510340753.47,353421860.47293997,662870230.1142634,9273086452.435385,195618393665.72916
0.6308120963200001,2551252099660991.0,2974787859392442.0,202183191396058.66,221065156005566.56,493315649.92430276,925251963.5779122,12943626549.180975,273050135661.58807
0.7434283382464002,2777790413156560.5,3239000394615295.0,220136038628576.0,240694626422875.3,651058970.6489089,1221111898.371369,17082504129.608734,360361732282.65564
0.8582969050113283,2991266231164372.5,3487993546736812.5,237053701205513.12,259192235897779.3,826237267.2951744,1549672505.5631328,21678842046.334602,457323717322.29126
0.9754628431115548,3194362942598725.0,3724895753308436.0,253148833977749.62,276790499198397.66,1018642896.1127498,1910544335.1985934,26727192131.01219,563821154200.8085
1.094972099973786,3389012732839162.0,3951959708903034.0,268574559957567.56,293656839553167.44,1228212274.5234382,2303608135.4124236,32225886112.80675,679818846614.19
1.2168715419732616,3576660827608438.5,4170870424596935.0,283445411279621.44,309916485296166.75,1454988117.9488866,2728944024.657479,38176044782.13415,805340435780.7758
1.3412089728127268,3758421340337993.5,4382926916110112.5,297849679888572.7,325665973990180.75,1699095349.18761,3186786307.870059,44580945897.43855,940455065808.5673
1.4680331522689813,3935174489974634.0,4589155540510316.0,311857121915479.75,340981576317731.0,1960725016.2408314,3677493313.1070924,51445602219.039925,1085268481924.6664
1.597393815314361,4107630044125532.5,4790383957988998.0,325523985459073.6,355924793408755.4,2240123173.725322,4201526537.778798,58776469778.359825,1239916876153.116
1.729341691620648,4276370286866122.5,4987291223353025.0,338896415724956.8,370546079987054.3,2537582984.4791384,4759435834.604803,66581240639.03877,1404562515430.5432
1.863928525453061,4441880038378466.0,5180442782531794.0,352012834040321.2,384887445562084.7,2853438990.8612976,5351848667.000914,74868692586.78093,1579390570685.4585
2.001207095962122,4604568190203696.0,5370315578032974.0,364905644492845.5,398984320451515.44,3188062895.4678555,5979462195.494615,83648578423.46895,1764606781404.4324
2.1412312378813647,4764783509750464.0,5557316473562289.0,377602486416073.3,412866925236696.6,3541860421.2630734,6643037388.668136,92931543583.1065,1960435717671.2925
2.284055862638992,4922826471149551.0,5741796046228096.0,390127171968239.5,426561295902315.8,3915268962.4891534,7343394617.269029,102729064496.3134,2167119479914.029
2.4297369798917723,5078958266998148.0,5924059092294704.0,402500400300512.06,440090064701084.4,4308755827.490689,8081410358.503271,113053402485.54811,2384916726284.87
2.578331719489608,5233407779340208.0,6104372753875892.0,414740309997506.7,453473064186892.3,4722816933.298003,8858014747.638376,123917569513.64532,2614101950095.137
2.7298983538794,5386377046642858.0,6282972892317298.0,426862912327609.06,466727800926522.0,5157975851.208223,9674189787.930336,135335303141.87267,2854964951531.924
2.884496320956988,5538045604469930.0,6460069148585637.0,438882435235306.56,479869831617573.94,5614783129.645139,10530968080.609646,147321048763.27112,3107810462852.2603
3.0421862473761276,5688573970473919.0,6635849006150021.0,450811599521993.3,492913065061887.5,6093815839.522665,11429431972.190557,159889947674.0753,3372957896735.6494
3.2030299723236504,5838106470789822.0,6810481086110382.0,462661842833746.6,505870007071627.06,6595677300.850355,12370713041.714958,173057829900.59418,3650741194956.464
3.3670905717701234,5986773553490732.0,6984117844379440.0,474443502999486.2,518751960929459.8,7120996959.119158,13355991868.92159,186841210956.05237,3941508759961.4033
3.5344323832055258,6134693697345075.0,7156897798160906.0,486165969300498.44,531569192794050.4,7670430388.165554,14386498062.652828,201257298863.97986,4245624493965.7007
3.7051210308696363,6281975003854952.0,7328947377941859.0,497837808624488.75,544331069599993.6,8244659394.975509,15463510365.740273,216323969226.72504,4563463723424.716
3.879223451487029,6428716522874517.0,7500382479461159.0,509466870538343.75,557046173997350.8,8844392225.795479,16588357178.626972,232059811996.85202,4895419489561.141
4.0568079205167695,6575009378600978.0,7671309772468598.0,521060376508338.7,569722401867859.9,9470363842.998362,17762416987.660152,248484111268.42874,5241898599322.469
4.237944078927105,6720937721123675.0,7841827811384168.0,532624995312371.9,582367044789104.0,10123336277.539547,18987119048.844135,265616861369.02673,5603322842309.33
4.422702960505647,6866579539240885.0,8012027983201764.0,544166907454570.7,594986860464817.2,10804099043.951326,20263944166.218533,283478777748.74603,5980129220516.308
4.61115701971576,7012007357816852.0,8181995320811825.0,555691860429863.75,607588133150651.9,11513469612.87725,21594425578.157665,302091309378.9655,6372770209884.23
4.803380160110075,7157288839062521.0,8351809204339601.0,567205216374645.6,620176725754947.1,12252293936.383518,22980149942.659153,321476652535.8719,6781714051065.309
4.9994477633122765,7302487303399823.0,8521543968754421.0,578711993344560.5,632758124971452.8,13021447022.227444,24422758414.45632,341657765868.56036,7207445067286.394
5.199436718578522,7447662182644470.0,8691269432596156.0,590216901228592.1,645337480547465.2,13821833554.022284,25923947808.214203,362658386671.37573,7650464007616.734
5.403425452950093,7592869415930946.0,8861051359970115.0,601724373125587.8,657919639590603.2,14654388554.85867,27485471843.233646,384503048296.51385,8111288414289.423
5.611493962009095,7738161796961505.0,9030951865814796.0,613238592863245.8,670509176657815.0,15520078092.452274,29109142466.04291,407217098656.191,8590453013008.16
5.823723841249277,7883589279684203.0,9201029772725614.0,624763519222686.0,683110420242282.6,16419900024.307335,30796831248.042324,430826719774.7911,9088510125403.24
6.040198318074262,8029199248314062.0,9371340926228952.0,636302907337245.6,695727476170663.6,17354884781.73724,32550470856.032196,455358948360.58026,9606030102995.71
6.261002284435747,8175036756644301.0,9541938474273504.0,647860327657564.4,708364248339330.9,18326096191.878536,34372056594.00081,480841697374.3046,10143601782191.102
6.486222330124463,8321144740804993.0,9712873115786150.0,659439182812421.0,721024457149851.8,19334632337.08301,36263648015.02001,507303778578.5592,10701832959962.5
6.715946776726952,8467564208979551.0,9884193322383978.0,671042722643486.5,733711655947831.5,20381626451.28551,38227370602.49416,534774926057.3602,11281350890000.469
6.950265712261491,8614334411054337.0,1.0055945536712478e+16,682674057649835.1,746429245723030.5,21468247853.128407,40265417520.351204,563285820700.1573,11882802799207.857
7.18927102650672,8761492990735079.0,1.0228174350362712e+16,694336171042944.5,759180488290180.0,22595702915.77966,42380051432.05674,592868115648.6766,12506856424505.56
7.433056447036854,8909076122294304.0,1.0400922663891316e+16,706031929583759.6,771968518138098.5,23765236073.521866,44573606388.59796,623554462708.5592,13154200569990.97
7.681717575977592,9057118633806700.0,1.0574231831108564e+16,717764093348902.6,784796353108016.1,24978130865.307922,46848489785.80507,655378539731.0205,13825545684558.559
7.935351927497144,9205654118470130.0,1.074814178949684e+16,729535324552729.2,797666904039486.5,26235711015.58991,49207184391.58113,688375078972.4678,14521624460151.346
8.194058966047088,9354715035392118.0,1.0922691178369434e+16,741348195534500.5,810582983503510.8,27539341552.819965,51652250443.794876,722579896442.6478,15243192450864.738
8.45794014536803,9504332801037456.0,1.1097917446162618e+16,753205196005492.9,823547313726439.1,28890429966.11246,54186327819.74785,758029922254.0977,15991028713172.908
8.72709894827539,9654537872375324.0,1.1273856948073516e+16,765108739638280.4,836562533794637.4,30290427400.632393,56812138278.28113,794763231987.7365,16765936467590.998
9.0016409272409,9805359822631354.0,1.1450545035098628e+16,777061170069986.9,849631206218390.0,31740829892.349445,59532487775.716774,832819079091.3865,17568743782126.73
9.281673745785717,9956827410435914.0,1.162801613539644e+16,789064766382199.9,862755822923570.8,33243179642.862854,62350268856.95906,872237928329.735,18400304277911.93
9.567307220701432,1.0108968643061806e+16,1.1806303828782614e+16,801121748112448.0,875938810731157.4,34799066335.06404,65268463123.1949,913061490305.8424,19261497857438.47
9.85865336511546,1.0261810834360278e+16,1.1985440915068456e+16,813234279845573.1,889182536377391.5,36410128490.46421,68290143777.74147,955332757075.9177,20153231455856.613
10.155826432417769,1.0415380657932328e+16,1.2165459476868648e+16,825404475427468.6,902489311121026.2,38078054869.06795,71418478251.6983,999096038880.4801,21076439815822.36
10.458942961066125,1.056970419600835e+16,1.234639093743109e+16,837634401838726.5,915861394978756.6,39804585912.72647,74656730911.15198,1044397002016.395,22032086286413.63
10.768121820287448,1.0724806984455654e+16,1.2528266113977806e+16,849926082761428.5,929301000625096.0,41591515232.95718,78008265847.78407,1091282707875.6855,23021163646656.848
11.083484256693197,1.0880714054285418e+16,1.2711115266991156e+16,862281501868499.1,942810296988936.5,43440691144.2612,81476549754.8212,1139801653178.2102,24044694954239.164
11.405153941827061,1.1037449969989194e+16,1.2894968145831004e+16,874702605861836.6,956391412575397.6,45354018244.0223,85065154890.3549,1190003811426.5962,25103734420004.06
11.733257020663602,1.119503886499956e+16,1.3079854031026222e+16,887191307282510.0,970046438538482.9,47333459040.11476,88777762130.1475,1241940675613.0188,26199368308853.99
12.067922161076874,1.1353504474536982e+16,1.3265801773547712e+16,899749487113824.1,983777431527242.6,49381035627.39192,92618164112.12631,1295665302208.669,27332715867710.51
12.409280604298411,1.1512870166077686e+16,1.3452839831336968e+16,912378997195875.9,997586416325816.4,51498831414.27776,96590268474.85056,1351232356467.798,28504930281206.297
12.75746621638438,1.167315896765302e+16,1.3640996303335772e+16,925081662468217.1,1011475388305547.6,53688992900.720024,100698101192.32152,1408698159079.5767,29717199655807.652
13.112615540712067,1.1834393594168432e+16,1.3830298961238384e+16,937859283055609.1,1025446315705535.1,55953731508.81496,104945810007.58557,1468120734202.0193,30970748033091.48
13.474867851526309,1.1996596471911926e+16,1.4020775279163748e+16,950713636210282.5,1039501141756264.0,58295325467.4556,109337667967.66805,1529559858913.4133,32266836432925.145
13.844365208556836,1.2159789761404426e+16,1.4212452461427068e+16,963646478122790.5,1053641786659589.8,60716121752.39656,113878077062.45529,1593077114117.9539,33606763927320.23
14.221252512727972,1.2323995378729848e+16,1.440535746857201e+16,976659545612396.8,1067870149436978.6,63218538083.17578,118571571970.22043,1658735936943.2732,34991868745758.758
14.605677562982532,1.2489235015468738e+16,1.4599517041808664e+16,989754557706785.4,1082188109656762.1,65805064978.37822,123422823912.58319,1726601674668.8352,36423529412811.84
14.997791114242183,1.2655530157348514e+16,1.4794957725990358e+16,1002933217120058.5,1096597529050156.4,68478267870.76885,128436644621.7643,1796741640225.3298,37903165918897.08
15.397746936527026,1.2822902101711574e+16,1.4991705891247612e+16,1016197211637071.6,1111100253024884.1,71240789283.86768,133617990423.09119,1869225169306.277,39432240925046.0
15.805701875257567,1.2991371973894002e+16,1.5189787753389042e+16,1029548215411419.4,1125698112084374.0,74095351071.58563,138971966435.7856,1944123679134.4143,41012261002575.86
16.221815912762718,1.316096074259843e+16,1.538922939316708e+16,1042987890183709.2,1140392923159818.5,77044756722.58826,144503830895.16055,2021510728926.4263,42644777908589.73
16.64625223101797,1.3331689234337662e+16,1.5590056774499264e+16,1056517886426207.8,1155186490861711.0,80091893731.0907,150218999599.42828,2101462082101.0063,44331389898247.445
17.079177275638333,1.350357814701843e+16,1.5792295761726192e+16,1070139844419318.0,1170080608656865.0,83239736035.85106,156123050484.4249,2184055770276.303,46073743074784.66
17.5207608211511,1.3676648062728378e+16,1.5995972135982004e+16,1083855395264951.1,1185077059976414.5,86491346529.15706,162221728329.62564,2269372159104.0957,47873532778274.19
17.97117603757412,1.3850919459784456e+16,1.6201111610744976e+16,1097666161841329.6,1200177619259791.0,89849879637.66518,168520949598.93744,2357494015989.381,49732505014158.125
18.430599558325603,1.4026412724095196e+16,1.6407739846631636e+16,1111573759703439.0,1215384052939272.8,93318583976.99176,175026807419.82446,2448506579745.165,51652457922601.12
18.899211549492115,1.4203148159885416e+16,1.6615882465491402e+16,1125579797932943.8,1230698120369268.2,96900805082.00331,181745576704.4334,2542497632233.705,53635243289744.234
19.37719578048196,1.4381145999827392e+16,1.682556506385427e+16,1139685879941065.8,1246121574704182.0,100599988214.81007,188683719416.46576,2639557572046.7173,55682768101966.02
19.864739696091597,1.4560426414618992e+16,1.70368132257808e+16,1153893604227642.8,1261656163728343.5,104419681252.51378,195847889987.64453,2739779490278.222,57796996144286.01
20.36203449001343,1.4741009522045846e+16,1.7249652535157484e+16,1168204565099295.0,1277303630641284.2,108363537656.8053,203244940887.72018,2843259248445.3013,59979949644071.55
20.869275179813698,1.4922915395561742e+16,1.7464108587480046e+16,1182620353349396.2,1293065714801167.5,112435319527.57329,210881928352.05237,2950095558613.296,62233710961241.45
21.38666068340997,1.5106164072418052e+16,1.7680207001160626e+16,1197142556902335.5,1308944152429232.5,116638900742.7241,218766118270.90372,3060390065783.12,64560424326183.06
21.91439389707817,1.5290775561370836e+16,1.7897973428394414e+16,1211772761424287.8,1324940677277628.0,120978270186.47081,226904992244.68668,3174247432600.1904,66962297626634.9
22.452681775019734,1.5476769849991814e+16,1.811743356561739e+16,1226512550902602.0,1341057021262868.0,125457535068.4052,235306253809.48798,3291775426445.328,69441604244809.23
23.00173541052013,1.5664166911606774e+16,1.833861316358367e+16,1241363508195640.5,1357294915067056.0,130080924335.70934,243977834837.30963,3413085008969.857,72000684946062.48
23.561770118730532,1.5852986711882862e+16,1.8561538037089316e+16,1256327215554848.2,1373656088708699.0,134852792180.92943,252927902115.55716,3538290428138.137,74641949820448.83
24.133005521105144,1.6043249215084558e+16,1.8786234074366904e+16,1271405255120502.0,1390142272084738.8,139777621647.77133,262164864110.39734,3667509312842.224,77367880278519.89
24.715665631527248,1.6234974390015232e+16,1.901272724617241e+16,1286599209392569.8,1406755195485416.5,144860028337.44,271697377918.71326,3800862770154.8916,80181031102760.8
25.309978944157795,1.6428182215659898e+16,1.9241043614582984e+16,1301910661677917.8,1423496590083207.2,150104764218.08856,281534356413.4711,3938475485288.1567,83084032556085.78
25.91617852304095,1.6622892686542048e+16,1.9471209341524116e+16,1317341196514801.5,1440368188397004.5,155516721539.9882,291684975587.3961,4080475824325.9546,86079592548828.39
26.53450209350177,1.6819125817806078e+16,1.970325069703866e+16,1332892400075663.8,1457371724732462.2,161100936859.07895,302158682099.9482,4226995939800.7246,89170498865706.45
27.165192135371807,1.7016901650033172e+16,1.9937194067310936e+16,1348565860548765.0,1474508935599345.5,166862595171.59796,312965201032.65625,4378171879184.6323,92359621454238.97
27.808495978079243,1.7216240253797472e+16,2.0173065962453516e+16,1364363168499275.5,1491781560106285.0,172807034162.5154,324114543857.9362,4534143696367.09,95649914776133.94
28.464665897640828,1.7417161733965728e+16,2.0410893024063652e+16,1380285917210001.2,1509191340333359.5,178939748570.5399,335617016626.568,4695055566191.015,99044420223167.23
29.133959215593645,1.7619686233741098e+16,2.065070203254969e+16,1396335703001859.2,1526740021682471.2,185266394672.47284,347483228379.04474,4861055902120.754,102546268599083.77
29.816638399905518,1.7823833938447822e+16,2.089251991422776e+16,1412514125533791.0,1544429353205301.8,191792794889.70355,359724099786.04724,5032297477114.909,106158682669072.14
30.51297116790363,1.8029625079050772e+16,2.1136373748181416e+16,1428822788081711.2,1562261087908271.5,198524942519.62997,372350872023.2428,5208937547777.133,109884979778338.22
31.223230591261704,1.8237079935398788e+16,2.1382290772873508e+16,1445263297795496.2,1580236983033567.2,205469006594.7791,385375115885.6386,5391137981857.719,113728574541318.92
31.947695203086937,1.8446218839176556e+16,2.1630298392494724e+16,1461837265932966.0,1598358800314944.5,212631336872.3637,398808741146.60596,5579065389177.676,117692981603039.23
32.686649107148675,1.8657062176544856e+16,2.188042418302568e+16,1478546308069071.0,1616628306206469.2,220018468956.9643,412664006166.6244,5772891256045.906,121781818474099.36
33.44038208929165,1.8869630390442204e+16,2.2132695897983812e+16,1495392044278335.0,1635047272081979.5,227637129558.92917,426953527756.621,5972792083237.604,125998808440723.08
34.20918973107749,1.9083943982516296e+16,2.238714147381861e+16,1512376099287876.0,1653617474402432.2,235494241891.01407,441690291300.6204,6178949527599.72,130347783551252.45
34.993373525699035,1.9300023514644428e+16,2.264378903491012e+16,1529500102597952.2,1672340694847659.0,243596931205.61066,456887661142.1199,6391550547345.473,134832687680391.4
35.793240996213015,1.9517889609997096e+16,2.2902666898117036e+16,1546765688566200.5,1691218720408501.2,251952530474.76584,472559391238.33044,6610787551095.552,139457579672407.83
36.60910581613728,1.9737562953587624e+16,2.3163803576810732e+16,1564174496451211.0,1710253343434453.2,260568586214.98425,488719636085.99677,6836858550718.099,144226636564388.44
37.44128793246003,1.995906429224475e+16,2.3427227784321304e+16,1581728170410366.5,1729446361631285.2,269452864458.53516,505382961922.07263,7069967318012.9795,149144156890504.62
38.29011369110923,2.0182414433933196e+16,2.369296843670975e+16,1599428359445983.5,1748799578002156.2,278613356872.70605,522564358201.8981,7310323545277.815,154214564068065.3
39.15591596493141,2.04076342463387e+16,2.3961054654769024e+16,1617276717293179.0,1768314800725030.0,288058287028.0766,540279249356.95184,7558143009784.258,159442409865966.4
40.03903428423004,2.063474465462294e+16,2.4231515765144716e+16,1635274902241965.0,1787993842958121.8,297796116816.48065,558543506833.3961,7813647742181.899,164832377955882.94
40.93981496991464,2.0863766638242756e+16,2.4504381300451772e+16,1653424576885151.8,1807838522564271.8,307835553018.8622,577373461411.8129,8077066198834.939,170389287546324.03
41.85861126931294,2.1094721226717204e+16,2.4779680998251572e+16,1671727407782909.5,1827850661744189.5,318185554022.66473,596785915807.4757,8348633438083.002,176118097099345.25
42.7957834946992,2.132762949421489e+16,2.5057444798740216e+16,1690185065033827.0,1848032086567428.5,328855336687.8409,616798157549.4114,8628591300400.947,182023908129404.84
43.751699164593184,2.1562512552823056e+16,2.5337702840985028e+16,1708799221741471.2,1868384626389152.0,339854383359.8378,637427972135.2034,8917188592415.625,188111969083449.88
44.72673314788505,2.1799391544347956e+16,2.5620485457533356e+16,1727571553364609.2,1888910113139654.8,351192449027.1975,658693656457.0999,9214681274717.152,194387679300930.38
