t(s),Total solute volume 1,Total retention volume 1,Total 1 volume 1,Total 2 volume 1,Total 3 volume 1,Total 4 volume 1,Total 5 volume 1,Total 6 volume 1
0.1,1386011386779396.2,8520484941412214.0,2082602288778356.8,5051871265854462.0,0.0,0.0,0.0,0.00819856729667888
0.202,2003433447408867.8,1.2528078049496432e+16,3010334350445266.5,7302348144331513.0,99309348654.41905,628995257949.7435,27883546829651.523,183350255874527.6
0.30604000000000003,2463933232567979.5,1.5723877843323722e+16,3702275878875417.5,8980836110704362.0,246721304365.67136,1563716267279.198,72081525338525.48,502940658265789.9
0.41216080000000005,2836068700372571.0,1.8495580238047108e+16,4261442156111675.5,1.0337241211189374e+16,430253585027.7145,2727665006149.981,128000260332197.94,929669991450108.4
0.5204040160000001,3150087505699175.5,2.1008820827548972e+16,4733283002202889.0,1.1481814920304844e+16,643605259625.4186,4080802865288.3677,193356760305245.75,1445554230911904.8
0.6308120963200001,3422233889450569.0,2.3349501348096988e+16,5142206835625872.0,1.2473766579102274e+16,882836372565.9597,5598106751912.342,266772681749038.62,2038040419044754.0
0.7434283382464002,3662418283914516.0,2.5568379420967696e+16,5503104960359692.0,1.3349219095666874e+16,1145240909377.5154,7262395480455.691,347325361086625.1,2697904083550151.0
0.8582969050113283,3877268175006866.5,2.7698290499435676e+16,5825935761394751.0,1.4132329229161862e+16,1428869256361.7183,9061294114374.275,434362575365680.1,3417904595135792.0
0.9754628431115548,4071465461844954.5,2.9761916250450656e+16,6117734206849063.0,1.4840162195096728e+16,1732264664053.88,10985559087985.977,527410675186925.1,4192425887720950.5
1.094972099973786,4248453877553696.5,3.177572218338725e+16,6383674810595404.0,1.548527017177007e+16,2054309254795.0134,13028099556859.52,626117556533165.2,5017123358123248.0
1.2168715419732616,4410841877692667.5,3.375213759895199e+16,6627677007854282.0,1.6077160803065602e+16,2394125114731.496,15183348736535.256,730215876354609.2,5888664560133565.0
1.3412089728127268,4560651033722346.0,3.5700847699029556e+16,6852778388399121.0,1.6623202576761422e+16,2751008278811.7812,17446844273778.684,839498194536085.5,6804519653057992.0
1.4680331522689813,4699478684489925.0,3.762960205687169e+16,7061379094844842.0,1.7129217679006506e+16,3124383931075.0195,19814943486127.594,953800034939368.9,7762787236173833.0
1.597393815314361,4828609111981802.0,3.954474319659517e+16,7255408874091507.0,1.7599887223194316e+16,3513775799309.966,22284628865484.516,1072988435454732.9,8762051147208041.0
1.729341691620648,4949091741395965.0,4.145156497660835e+16,7436444579886743.0,1.8039036284622696e+16,3918785115466.7905,24853374421682.492,1196954290042061.0,9801265921123740.0
1.863928525453061,5061797180347414.0,4.335456312533028e+16,7605794376718022.0,1.844983816015535e+16,4339075967203.8545,27519052672679.57,1325607241523199.2,1.087966803794639e+16
2.001207095962122,5167457902984277.0,4.525761501339699e+16,7764558871316900.0,1.883496265947121e+16,4774364872019.836,30279868481848.723,1458872234501962.0,1.1996709111768804e+16
2.1412312378813647,5266698110853410.0,4.716411158765954e+16,7913675981264963.0,1.9196684946162424e+16,5224413131076.455,33134310559216.754,1596687119346857.5,1.3152006706341586e+16
2.284055862638992,5360055892881884.0,4.9077056118009e+16,8053954232334464.0,1.9536966309523372e+16,5689021031032.542,36081114697989.88,1739000913171973.5,1.4345308634368258e+16
2.4297369798917723,5447999872049298.0,5.09991393947196e+16,8186097771590196.0,1.985751484062374e+16,6168023307583.82,39119235017263.97,1885772476789233.2,1.5576467175342288e+16
2.578331719489608,5530941880656563.0,5.293279787903596e+16,8310725413103600.0,2.0159831632833852e+16,6661285506910.585,42247820898933.41,2036969467178524.0,1.6845420378857588e+16
2.7298983538794,5609246750605591.0,5.488025929410112e+16,8428385348713966.0,2.0445246466729704e+16,7168701016086.694,45466198165309.414,2192567484929528.5,1.815217834394091e+16
2.884496320956988,5683239982958571.0,5.6843578815025224e+16,8539566672218700.0,2.0714945765098732e+16,7690188610626.607,48773853534488.91,2352549368463203.5,1.9496812984140908e+16
3.0421862473761276,5753213836260123.0,5.8824668122055144e+16,8644708527614562.0,2.0969994784435136e+16,8225690411525.609,52170421671156.02,2516904603706020.5,2.087945025795661e+16
3.2030299723236504,5819432218621436.0,6.082531896588948e+16,8744207459885295.0,2.121135544622566e+16,8775170171937.7705,55655674326835.0,2685628827389868.5,2.230026416926849e+16
3.3670905717701234,5882134662418720.0,6.284722246395947e+16,8838423387336040.0,2.143990082442641e+16,9338611832885.07,59229511185666.99,2858723408020545.5,2.3759472058739212e+16
3.5344323832055258,5941539586281621.0,6.489198504055122e+16,8927684503018028.0,2.165642703516138e+16,9916018300784.404,62891952116631.51,3036195092074860.0,2.5257330853597944e+16
3.7051210308696363,5997846996234675.0,6.696114170286723e+16,9012291333431232.0,2.186166308217416e+16,10507410408574.25,66643130590038.0,3218055704932435.5,2.6794134045096176e+16
3.879223451487029,6051240740016763.0,6.905616718364749e+16,9092520125837410.0,2.205627907364559e+16,11112826028567.209,70483288056224.27,3404321897322547.5,2.837020923274038e+16
4.0568079205167695,6101890401562143.0,7.117848536139764e+16,9168625694884410.0,2.224089312742736e+16,11732319310422.69,74412769117738.55,3595014929355700.5,2.9985916119739836e+16
4.237944078927105,6149952903207936.0,7.332947727967851e+16,9240843830063576.0,2.2416077210960132e+16,12365960022535.219,78432017357355.55,3790160485681975.5,3.1641644872385056e+16
4.422702960505647,6195573868915231.0,7.551048801905603e+16,9309393344069132.0,2.2582362110104504e+16,13013832979560.145,82541571712369.3,3989788516745982.0,3.33378147745293e+16
4.61115701971576,6238888790912929.0,7.772283262340558e+16,9374477825782916.0,2.2740241681462896e+16,13676037542382.15,86742063308343.33,4193933102215046.0,3.507487312218108e+16
4.803380160110075,6280024033648677.0,7.996780124221715e+16,9436287148798736.0,2.2890176511698284e+16,14352687179424.146,91034212681933.25,4402632333354987.0,3.685329431485508e+16
4.9994477633122765,6319097702196471.0,8.224666361939163e+16,9494998776280876.0,2.303259708280804e+16,15043909079978.52,95418827333689.67,4615928211528639.0,3.8673579110163944e+16
5.199436718578522,6356220396993501.0,8.456067303459467e+16,9550778895022480.0,2.3167906523077004e+16,15749843811563.004,99896799560099.1,4833866560280781.0,4.0536254015849224e+16
5.403425452950093,6391495872691819.0,8.69110697839372e+16,9603783405427718.0,2.3296483008536124e+16,16470645014452.887,104469104521398.7,5056496948782171.0,4.244187079896346e+16
5.611493962009095,6425021615749777.0,8.92990842713857e+16,9654158789393644.0,2.34186818682344e+16,17206479127653.764,109136798508756.1,5283872624769780.0,4.43910060956017e+16
5.823723841249277,6456889352912685.0,9.172593976997678e+16,9702042874346804.0,2.3534837437607304e+16,17957525141647.125,113901017381189.97,5516050455501950.0,4.638426110708524e+16
6.040198318074262,6487185500743854.0,9.419285490195634e+16,9747565508702998.0,2.364526469697837e+16,18723974374197.34,118762975148680.73,5753090875587827.0,4.842226137042047e+16
6.261002284435747,6515991564731860.0,9.67010458788835e+16,9790849161560832.0,2.3750260726270424e+16,19506030266292.14,123723962682899.77,5995057840810966.0,5.05056565925602e+16
6.486222330124463,6543384495133618.0,9.925172853614525e+16,9832009457386966.0,2.3850106002022028e+16,20303908195888.0,128785346540787.39,6242018787242680.0,5.263512053962321e+16
6.715946776726952,6569437005568355.0,1.018461201909297e+17,9871155654731466.0,2.3945065558634224e+16,21117835307572.48,133948567889000.58,6494044595050896.0,5.481135097374819e+16
6.950265712261491,6594217859423225.0,1.04485441348258e+17,9908391076577226.0,2.403539003229313e+16,21948050356585.125,139215141519346.69,6751209556483974.0,5.703506963160449e+16
7.18927102650672,6617792128341653.0,1.071709172759997e+17,9943813498741194.0,2.4121316603136308e+16,22794803565905.094,144586654946991.8,7013591347571808.0,5.930702223969581e+16
7.433056447036854,6640221426415028.0,1.0990377946673531e+17,9977515501767884.0,2.4203069848860056e+16,23658356495344.1,150064767584705.9,7281271003150733.0,6.162797856246162e+16
7.681717575977592,6661564123162617.0,1.1268526700177078e+17,1.0009584790950196e+16,2.428086252101132e+16,24538981921797.723,155651209987759.8,7554332894889272.0,6.399873247984784e+16
7.935351927497144,6681875537939798.0,1.1551662783045133e+17,1.0040104488444752e+16,2.4354896253587468e+16,25436963730003.695,161347783165330.0,7832864712063931.0,6.6420102091520104e+16
8.194058966047088,6701208118042544.0,1.1839911997610744e+17,1.0069153400889388e+16,2.4425362212210092e+16,26352596813331.824,167156357955394.16,8116957444902347.0,6.88929298452944e+16
8.45794014536803,6719611602460540.0,1.213340126784203e+17,1.0096806265456408e+16,2.449244169098946e+16,27286186984280.926,173078874461049.84,8406705370370124.0,7.141808268769844e+16
8.72709894827539,6737133172962028.0,1.2432258748068742e+17,1.0123133976870766e+16,2.455630666321423e+16,28238050894480.01,179117341546972.2,8702206040324788.0,7.39964522348741e+16
9.0016409272409,6753817593961885.0,1.27366139269355e+17,1.0148203797573918e+16,2.4617120291156636e+16,29208515964086.49,185273836395328.78,9003560271995385.0,7.662895496230766e+16
9.281673745785717,6769707342425053.0,1.3046597727223563e+17,1.017207955291509e+16,2.4675037399557876e+16,30197920320543.58,191550504120916.3,9310872140770640.0,7.93165324121255e+16
9.567307220701432,6784842728885795.0,1.3362342602102035e+17,1.0194821812993186e+16,2.4730204916731116e+16,31206612746709.438,197949557445601.12,9624248975295018.0,8.20601514169229e+16
9.85865336511546,6799262010515474.0,1.368398262830001e+17,1.0216488062550896e+16,2.478276228668236e+16,32234952638403.535,204473276432355.28,9943801354883006.0,8.486080433929763e+16
10.155826432417769,6813001497044860.0,1.4011653596631818e+17,1.0237132860132226e+16,2.4832841855186344e+16,33283309971437.223,211124008279317.7,1.0269643109268982e+16,8.771950932643491e+16
10.458942961066125,6826095650238243.0,1.434549310025605e+17,1.0256807987550848e+16,2.488056923235981e+16,34352065278206.35,217904167174379.4,1.0601891320714932e+16,9.063731057924398e+16
10.768121820287448,6838577177523369.0,1.468564062100501e+17,1.0275562590577368e+16,2.4926063633932896e+16,35441609633929.22,224816234210825.12,1.0940666328502548e+16,9.36152786356692e+16
11.083484256693197,6850477120301632.0,1.5032237614082528e+17,1.0293443311632888e+16,2.4969438203130812e+16,36552344652611.61,231862757364554.56,1.1286091735837966e+16,9.66545106679048e+16
11.405153941827061,6861824937394236.0,1.5385427591394944e+17,1.031049441517419e+16,2.5010800314826544e+16,37684682492814.34,239046351533370.56,1.1638294419200102e+16,9.975613079332822e+16
11.733257020663602,6872648584021659.0,1.574535620375114e+17,1.0326757906367176e+16,2.5050251863412876e+16,38839045873291.25,246369698638768.22,1.1997404540163596e+16,1.029212903990341e+17
12.067922161076874,6882974586663283.0,1.611217132214217e+17,1.0342273643569904e+16,2.5087889535657812e+16,40015868098552.19,253835547790579.4,1.2363555559727424e+16,1.0615116847991418e+17
12.409280604298411,6892828114100846.0,1.6486023118289338e+17,1.0357079445081656e+16,2.5123805069650972e+16,41215593094391.664,261446715514741.62,1.2736884255179364e+16,1.094469719902713e+17
12.75746621638438,6902233044912647.0,1.6867064144630506e+17,1.0371211190558676e+16,2.5158085500812616e+16,42438675453408.92,269206086044359.28,1.311753073952362e+16,1.128099362089997e+17
13.112615540712067,6911212031653397.0,1.725544941389811e+17,1.0384702917450088e+16,2.519081339582286e+16,43685580490528.64,277116611674125.47,1.3505638483496822e+16,1.1624132511839325e+17
13.474867851526309,6919786561927891.0,1.7651336478427795e+17,1.0397586912766246e+16,2.522206707522867e+16,44956784308514.32,285181313178063.6,1.3901354340193486e+16,1.1974243179667512e+17
13.844365208556836,6927977016543115.0,1.8054885509324653e+17,1.040989380045743e+16,2.52519208254024e+16,46252773873449.67,293403280290448.4,1.4304828572318428e+16,1.2331457882436126e+17
14.221252512727972,6935802724904049.0,1.846625937560297e+17,1.0421652624650734e+16,2.5280445100453788e+16,47574047100149.61,301785672249657.25,1.4716214882079198e+16,1.2695911870459213e+17
14.605677562982532,6943282017801271.0,1.8885623723406384e+17,1.0432890928968132e+16,2.530770671463536e+16,48921112947443.63,310331718404615.8,1.5135670443727372e+16,1.3067743429757984e+17
14.997791114242183,6950432277724372.0,1.9313147055407254e+17,1.044363483212659e+16,2.5333769025729588e+16,50294491523264.164,319044718883408.3,1.5563355938753524e+16,1.3447093926933182e+17
15.397746936527026,6957269986822758.0,1.974900081047677e+17,1.0453909100003486e+16,2.5358692109861196e+16,51694714199457.28,327928045323545.5,1.5999435593736306e+16,1.3834107855482091e+17
15.805701875257567,6963810772625309.0,2.0193359443712086e+17,1.0463737214334258e+16,2.5382532928140548e+16,53122323736223.78,336985141663311.56,1.6444077220842746e+16,1.4228932883577851e+17
16.221815912762718,6970069451621381.0,2.0646400506900566e+17,1.0473141438196646e+16,2.5405345485512204e+16,54577874416087.91,346219524993549.25,1.6897452260973186e+16,1.4631719903329254e+17
16.64625223101797,6976060070798160.0,2.110830472949733e+17,1.0482142878424242e+16,2.5427180982154136e+16,56061932187283.87,355634786469199.1,1.7359735829541566e+16,1.5042623081539875e+17
17.079177275638333,6981795947223110.0,2.1579256100188323e+17,1.0490761545082436e+16,2.5448087957751908e+16,57575074816443.8,365234592279859.3,1.783110676487879e+16,1.5461799911985078e+17
17.5207608211511,6987289705754619.0,2.205944194910734e+17,1.0499016408132054e+16,2.54681124289502e+16,59117892050466.766,375022684678611.44,1.831174767924545e+16,1.588941126922621e+17
17.97117603757412,6992553314959525.0,2.254905303077305e+17,1.050692545139846e+16,2.548729802026858e+16,60690985787444.1,385002883068338.4,1.8801845012437652e+16,1.6325621463981062e+17
18.430599558325603,6997598121311947.0,2.3048283607809056e+17,1.0514505723958344e+16,2.5505686088752904e+16,62294970256517.72,395179085144744.75,1.9301589087969284e+16,1.677059830006968e+17
18.899211549492115,7002434881744496.0,2.3557331535508208e+17,1.0521773389050684e+16,2.552331584262123e+16,63930472206545.0,405555268095306.0,1.9811174171812464e+16,1.7224513132955136e+17
19.37719578048196,7007073794619928.0,2.4076398347300365e+17,1.0528743770614374e+16,2.5540224454152508e+16,65598131103448.586,416135489853365.4,2.033079853367804e+16,1.7687540929898192e+17
19.864739696091597,7011524529188474.0,2.4605689341181043e+17,1.0535431397550446e+16,2.555644716705572e+16,67298599336130.914,426923890406632.9,2.086066451081744e+16,1.8159860331745568e+17
20.36203449001343,7015796253593806.0,2.5145413667157616e+17,1.054185004580342e+16,2.5572017398548776e+16,69032542430836.75,437924693159357.44,2.1400978574327932e+16,1.8641653716371197e+17
20.869275179813698,7019897661488345.0,2.569578441576764e+17,1.054801277835314e+16,2.558696683636887e+16,70800639273855.2,449142206347480.94,2.1951951397943332e+16,1.9133107263790147e+17
21.38666068340997,7023836997316603.0,2.6257018707723958e+17,1.0553931983205212e+16,2.560132553092795e+16,72603582342455.53,460580824506122.8,2.251379792929379e+16,1.9634411022964758e+17
21.91439389707817,7027622080323460.0,2.6829337784739488e+17,1.0559619409465532e+16,2.5615121982820324e+16,74442077943961.33,472245029988787.56,2.3086737463618908e+16,2.014575898032339e+17
22.452681775019734,7031260327342343.0,2.7412967101584435e+17,1.056508620158147e+16,2.562838322588379e+16,76316846462873.14,484139394537741.8,2.367099371991956e+16,2.0667349130011648e+17
23.00173541052013,7034758774416778.0,2.8008136419428176e+17,1.0570342931830144e+16,2.5641134906007804e+16,78228622615959.88,496268580905055.06,2.4266794919536704e+16,2.1199383545896938e+17
23.561770118730532,7038124097306929.0,2.8615079900517046e+17,1.057539963113135e+16,2.565340135587824e+16,80178155715247.97,508637344523861.8,2.4874373867145252e+16,2.174206845534696e+17
24.133005521105144,7041362630931340.0,2.9234036204239366e+17,1.0580265818260354e+16,2.5665205665840464e+16,82166209938845.06,521250535229460.4,2.5493968034154876e+16,2.2295614314803824e+17
24.715665631527248,7044480387792299.0,2.986524858462864e+17,1.0584950527533744e+16,2.5676569751058416e+16,84193564609548.08,534113099029921.8,2.6125819644510644e+16,2.2860235887175178e+17
25.309978944157795,7047483075431959.0,3.0508964989355654e+17,1.0589462335038678e+16,2.568751441514029e+16,86261014481191.33,547230079925951.3,2.6770175762888372e+16,2.3436152321065005e+17
25.91617852304095,7050376112964476.0,3.116543816025969e+17,1.059380938347386e+16,2.5698059410396772e+16,88369370032704.27,560606621779801.9,2.7427288385283028e+16,2.402358723186664e+17
26.53450209350177,7053164646728175.0,3.18349257354695e+17,1.0597999405668378e+16,2.5708223494891916e+16,90519457769855.47,574247970233111.6,2.8097414531989436e+16,2.4622768784741418e+17
27.165192135371807,7055853565100117.0,3.251769035316436e+17,1.0602039746841784e+16,2.5718024486440784e+16,92712120534671.89,588159474673593.6,2.8780816342977804e+16,2.5233929779507478e+17
27.808495978079243,7058447512513845.0,3.321399975702524e+17,1.0605937385667068e+16,2.572747931370298e+16,94948217822530.08,602346590250566.9,2.9477761175668852e+16,2.585730773746267e+17
28.464665897640828,7060950902719825.0,3.392412690342698e+17,1.0609698954195532e+16,2.5736604064515664e+16,97228626106929.28,616814879939400.6,3.01885217051153e+16,2.6493144990167712e+17
29.133959215593645,7063367931326236.0,3.4648350070421325e+17,1.061333075670053e+16,2.574541403160386e+16,99554239171962.17,631570016654981.1,3.091337602659979e+16,2.714168877021558e+17
29.816638399905518,7065702587656760.0,3.5386952968561766e+17,1.061683878749474e+16,2.5753923755800824e+16,101925968452511.61,646617785414384.2,3.1652607760660588e+16,2.7803191304013766e+17
30.51297116790363,7067958665960083.0,3.6140224853620883e+17,1.0620228747773504e+16,2.5762147066905972e+16,104344743382210.38,661964085548994.1,3.2406506160560176e+16,2.8477909906607776e+17
31.223230591261704,7070139776004775.0,3.6908460641250784e+17,1.0623506061534494e+16,2.5770097122302064e+16,106811511749209.08,677614932966374.1,3.3175366222212816e+16,2.916610707857381e+17
31.947695203086937,7072249353091546.0,3.7691961023638266e+17,1.0626675890622062e+16,2.5777786443449292e+16,109327240059807.31,693576462462238.5,3.3959488796590584e+16,2.986805060501073e+17
32.686649107148675,7074290667513651.0,3.8491032588205677e+17,1.0629743148942254e+16,2.5785226950367484e+16,111892913910013.06,709854930082942.1,3.4759180704629588e+16,3.0584013656661075e+17
33.44038208929165,7076266833494736.0,3.9305987938409235e+17,1.0632712515892792e+16,2.5792429994213828e+16,114509538365098.83,726456715538946.2,3.5574754854659484e+16,3.131427489319274e+17
34.20918973107749,7078180817632188.0,4.0137145816687245e+17,1.0635588449049898e+16,2.579940638805827e+16,117178138347239.52,743388324669793.8,3.640653036238288e+16,3.205911856867318e+17
34.993373525699035,7080035446872715.0,4.098483122960987e+17,1.0638375196152306e+16,2.5806166435953828e+16,119899759031316.02,760656391961142.6,3.725483267343256e+16,3.2818834639269446e+17
35.793240996213015,7081833416045581.0,4.184937557528391e+17,1.064107680642061e+16,2.581271996039456e+16,122675466248982.5,778267683114490.0,3.8119993688536824e+16,3.3593718873207795e+17
36.60910581613728,7083577294977841.0,4.2731116773065286e+17,1.064369714124855e+16,2.5819076328250104e+16,125506346901099.8,796229097670248.0,3.900235189132543e+16,3.4384072963027936e+17
37.44128793246003,7085269535214513.0,4.3630399395632954e+17,1.064623988430064e+16,2.5825244475260104e+16,128393509378646.11,814547671684877.1,3.990225247881093e+16,3.519020464016797e+17
