t(s),Total solute volume 1,Total retention volume 1,Total 1 volume 1,Total 2 volume 1,Total 3 volume 1,Total 4 volume 1,Total 5 volume 1,Total 6 volume 1
0.1,1225891390677807.5,1918426285810987.5,281662698191601.44,410872196941578.9,0.0,0.0,0.0,0.0
0.202,1836592545560717.5,2895814363568897.0,421978344085235.94,615556051416702.0,8184256093.633175,23917501549.42922,649731648392.6122,21005589100206.047
0.30604000000000003,2296134734862529.5,3648111909000873.5,527563469089924.0,769577141210020.4,20668551014.85228,60401548940.960014,1641027366702.372,53114466371737.1
0.41216080000000005,2679743289452144.0,4290601397463544.5,615701964370409.5,898148158784932.9,36544952235.736855,106798742420.87218,2901711896696.0454,93962929264701.53
0.5204040160000001,3015846866372993.0,4866641159681250.0,692925642402868.5,1010797311816871.2,55389388827.8769,161869779932.9188,4398100876246.179,142455979043512.28
0.6308120963200001,3318667335395120.0,5397836336159325.0,762502142047917.6,1112291231224694.9,76957231114.16283,224899764053.06122,6110766125381.493,197963004371045.22
0.7434283382464002,3596494765545945.0,5896745442088189.0,826336202410502.1,1205408433370771.5,101092485138.10664,295432827786.17084,8027319787994.118,260082195660053.1
0.8582969050113283,3854651707412772.5,6371419218567077.0,885650740955830.0,1291932835080066.8,127690303710.52946,373162576078.79364,10139436241359.668,328543645997260.0
0.9754628431115548,4096791452446023.0,6827382845923540.0,941285143582945.8,1373088880894133.2,156678422027.54626,457877833087.6138,12441377547272.674,403161435198044.5
1.094972099973786,4325547440798309.5,7268624685947191.0,993844473577055.9,1449759199927432.2,188006817361.33432,549432423626.55176,14929172187470.0,483806960215937.2
1.2168715419732616,4542890483976672.0,7698138657297096.0,1043781547639756.6,1522604333337524.0,221641452670.3796,647726889505.2563,17600118178940.65,570392805822014.8
1.3412089728127268,4750339845701363.0,8118243850102173.0,1091445434154129.1,1592133480613638.8,257560250952.46857,752696725005.2295,20452463364478.652,662862369292605.9
1.4680331522689813,4949095151290386.0,8530783727928226.0,1137111760889227.2,1658748710593028.2,295750378758.2333,864304438251.841,23485189678751.707,761182860659821.0
1.597393815314361,5140122620057754.0,8937256011359138.0,1181002527889405.2,1722773863285870.0,336206342392.99445,982533987588.2001,26697861957686.99,865340397838432.9
1.729341691620648,5324213566738948.0,9338900569022940.0,1223299548852382.5,1784474157331178.8,378928611945.8199,1107386760471.7063,30090518666860.113,975336462061139.1
1.863928525453061,5502025341870739.0,9736760773452296.0,1264153857654305.0,1844069911657170.8,423922601141.1413,1238878592226.5037,33663590888206.535,1091185270188529.6
2.001207095962122,5674110749446494.0,1.0131727483013512e+16,1303692467395738.2,1901746405161944.5,471197894673.4602,1377037508040.552,37417840960847.47,1212911784645770.8
2.1412312378813647,5840939671178529.0,1.0524571297906144e+16,1342023338825651.5,1957661124344845.8,520767652317.16815,1521901981570.5005,41354315160558.05,1340550178762676.0
2.284055862638992,6002915279770590.0,1.0915966691972098e+16,1379239105527993.8,2011949197379574.8,572648142242.115,1673519571137.7434,45474306640066.42,1474142634940490.8
2.4297369798917723,6160386408378521.0,1.1306510385443146e+16,1415419915948126.5,2064727539887525.8,626858370682.2148,1831945837507.1245,49779326021153.52,1613738390999637.8
2.578331719489608,6313657133949219.0,1.1696735552091044e+16,1450635635275597.0,2116098066909018.2,683419784742.9863,1997243475407.4812,54271077794993.95,1759392974902074.2
2.7298983538794,6462994304626888.0,1.208712295895827e+16,1484947574952641.8,2166150215803883.5,742356031610.8428,2169481609881.4312,58951441201560.46,1911167584731820.2
2.884496320956988,6608633525583568.0,1.2478109810930378e+16,1518409867987891.8,2214962952474531.5,803692761879.0801,2348735221562.8057,63822454612483.62,2069128582288462.0
3.0421862473761276,6750783972196978.0,1.2870096853122318e+16,1551070574839545.5,2262606384560295.0,867457467828.2833,2535084674105.7886,68886302689755.836,2233347076693804.8
3.2030299723236504,6889632299524818.0,1.3263454133532092e+16,1582972581662227.0,2309143071744733.0,933679349729.0222,2728615323507.6733,74145305769778.36,2403898580157309.0
3.3670905717701234,7025345847054101.0,1.3658525723220964e+16,1614154336635164.2,2354629099865843.0,1002389204853.709,2929417193797.989,79601911050818.17,2580862722216369.0
3.5344323832055258,7158075287924532.0,1.4055633616550062e+16,1644650458651841.2,2399114968835125.0,1073619335077.0826,3137584707052.5254,85258685256657.39,2764323011839756.0
3.7051210308696363,7287956835879314.0,1.4455080980119604e+16,1674492244392439.2,2442646332323641.0,1147403469835.343,3353216458292.8325,91118308519935.8,2954366639076131.5
3.879223451487029,7415114096884005.0,1.4857154879668214e+16,1703708093754635.0,2485264618354323.0,1223776701887.0168,3576415027799.1304,97183569282136.31,3151084309663431.5
4.0568079205167695,7539659632849906.0,1.5262128585036212e+16,1732323869137127.0,2527007553402649.0,1302775433833.1907,3807286824867.8506,103457360048028.39,3354570107339811.5
4.237944078927105,7661696290273365.0,1.5670263531465784e+16,1760363200709831.2,2567909607706074.0,1384437333752.0332,4045941958206.854,109942673863939.94,3564921379620621.0
4.422702960505647,7781318335517855.0,1.608181099898859e+16,1787847747258064.2,2608002375767442.5,1468801298612.6438,4292494129066.354,116642601413836.25,3782238643603720.5
4.61115701971576,7898612429980661.0,1.6497013559021094e+16,1814797420238348.5,2647314903193836.5,1555907424376.7617,4547060543916.735,123560328646547.42,4006625508993414.0
4.803380160110075,8013658471831495.0,1.691610632754455e+16,1841230577177583.2,2685873968815369.0,1645796981890.5273,4809761844048.97,130699134862842.67,4238188616031332.5
4.9994477633122765,8126530325902153.0,1.733931805666381e+16,1867164189373604.2,2723704329316466.5,1738512397822.8633,5080722049925.585,138062391203323.77,4477037586420513.0
5.199436718578522,8237296459294308.0,1.7766872090391236e+16,1892613987933431.2,2760828932267474.0,1834097240031.6428,5360068518473.469,145653559487992.78,4723284985649519.0
5.403425452950093,8346020497096882.0,1.819898720580075e+16,1917594591455732.2,2797269102380004.5,1932596206839.5554,5647931911804.677,153476191366359.88,4977046295383120.0
5.611493962009095,8452761710073268.0,1.8635878356954236e+16,1942119618082634.2,2833044704961144.0,2034055119783.8342,5944446176091.898,161533927743492.1,5238439894797800.0
5.823723841249277,8557575444147775.0,1.9077757336003884e+16,1966201784179124.8,2868174289861042.0,2138520919471.6829,6249748529522.202,169830498452746.44,5507587049914193.0
6.040198318074262,8660513499880360.0,1.9524833363455396e+16,1989852991521821.2,2902675218658371.0,2246041664228.5703,6563979458415.575,178369722150384.94,5784611910121820.0
6.261002284435747,8761624468787171.0,1.9977313617615284e+16,2013084404572473.8,2936563777382256.5,2356666531273.0796,6887282720729.615,187155506410892.8,6069641511210510.0
6.486222330124463,8860954032276064.0,2.0435403711645052e+16,2035906519161825.2,2969855276704038.0,2470445820190.1846,7219805356284.247,196191848004916.56,6362805784321789.0
6.715946776726952,8958545228072699.0,2.0899308125332376e+16,2058329223704137.5,3002564141233236.5,2587430958507.2812,7561697703134.245,205482833344263.53,6664237570316376.0
6.950265712261491,9054438688276128.0,2.136923059760761e+16,2080361853893155.5,3034703989304708.5,2707674509204.2217,7913113419596.952,215032639080586.97,6974072639124203.0
7.18927102650672,9148672852570478.0,2.1845374484938856e+16,2102013241690002.5,3066287704439154.0,2831230180011.5107,8274209511509.074,224845532846169.84,7292449713701568.0
7.433056447036854,9241284159610932.0,2.232794308999168e+16,2123291759296285.5,3097327499488328.5,2958152834370.4297,8645146364343.461,234925874126788.2,7619510498270648.0
7.681717575977592,9332307219175282.0,2.2817139964317556e+16,2144205358707911.2,3127834974333823.0,3088498503945.056,9026087779864.871,245278115257923.2,7955399710558792.0
7.935351927497144,9421774967315038.0,2.3313169188313516e+16,2164761607362852.8,3157821167887725.0,3222324402590.681,9417201017045.32,255906802536738.66,8300265117791540.0
8.194058966047088,9509718806437724.0,2.3816235631253644e+16,2184967720326671.8,3187296605042944.5,3359688941694.7114,9818656836994.674,266816577443181.97,8654257576224392.0
8.45794014536803,9596168731996728.0,2.43265451938211e+16,2204830589400964.5,3216271339134835.0,3500651746817.335,10230629551693.107,278012177964411.6,9017531074025668.0
8.72709894827539,9681153447247750.0,2.4844305035255364e+16,2224356809490000.5,3244754990403156.0,3645273675567.3916,10653297076337.902,289498440017456.44,9390242777345096.0
9.0016409272409,9764700467345836.0,2.536972378695709e+16,2243552702518184.0,3272756780881458.5,3793616836657.471,11086840985140.516,301280298965648.06,9772553079424170.0
9.281673745785717,9846836213898550.0,2.5903011754166996e+16,2262424339154796.5,3300285566087773.5,3945744610088.5234,11531446570429.117,313362791224904.6,1.0164625652620414e+16
9.567307220701432,9927586100955318.0,2.644438110713551e+16,2280977558570956.0,3327349863844890.5,4101721668420.6406,11987302904930.062,325751055956398.4,1.0566627503234592e+16
9.85865336511546,1.000697461329522e+16,2.699404606303236e+16,2299217986427246.0,3353957880519509.0,4261613999091.4336,12454602907115.598,338450336842591.0,1.0978729029041538e+16
10.155826432417769,1.0085025377775736e+16,2.755222305969837e+16,2317151051266809.5,3380117534935616.5,4425488927748.453,12933543409520.475,351465983943943.2,1.1401104079439004e+16
10.458942961066125,1.0161761228416146e+16,2.811913092221676e+16,2334781999469088.0,3405836480187933.0,4593415142565.931,13424325229939.594,364803455633958.2,1.1833930018137148e+16
10.768121820287448,1.0237204265814612e+16,2.8694991023170812e+16,2352115908901538.0,3431122123556350.0,4765462719519.512,13927153245432.064,378468320610489.5,1.2277387788322852e+16
11.083484256693197,1.0311375911431324e+16,2.928002743736112e+16,2369157701391837.0,3455981644699472.5,4941703148596.394,14442236469063.203,392466259981497.56,1.2731661980239304e+16
11.405153941827061,1.0384296957212172e+16,2.9874467091671904e+16,2385912154129483.5,3480422012286643.0,5122209360920.476,14969788129327.6,406803069423663.1,1.3196940901129666e+16
11.733257020663602,1.0455987610977728e+16,3.047853991070426e+16,2402383910094448.0,3504449999210661.5,5307055756775.095,15510025752201.082,421484661412481.44,1.3673416647499982e+16
12.067922161076874,1.0526467537957706e+16,3.1092478958731344e+16,2418577487600164.0,3528072196508432.0,5496318234508.281,16063171245778.002,436517067522636.2,1.4161285179662108e+16
12.409280604298411,1.0595755898811664e+16,3.1716520578473804e+16,2434497289029276.0,3551295026104151.5,5690074220307.075,16629450987455.293,451906440797600.3,1.4660746398523394e+16
12.75746621638438,1.0663871384443518e+16,3.235090452714787e+16,2450147608832637.0,3574124752477786.0,5888402698829.838,17209095913630.975,467659058187597.2,1.5172004224593882e+16
13.112615540712067,1.0730832247886116e+16,3.2995874110191868e+16,2465532640855178.5,3596567493351602.0,6091384244687.025,17802341611889.2,483781323055165.2,1.5695266679187204e+16
13.474867851526309,1.079665633350645e+16,3.3651676313043316e+16,2480656485046091.0,3618629229478545.5,6299101054762.289,18409428415648.66,500279767747690.44,1.6230745967794118e+16
13.844365208556836,1.0861361103756558e+16,3.4318561931301856e+16,2495523153605274.5,3640315813608248.5,6511636981367.627,19030601501256.4,517161056236419.94,1.677865856561271e+16
14.221252512727972,1.0924963663676612e+16,3.4996785699586476e+16,2510136576613055.5,3661632978699478.0,6729077566227.054,19666110987511.406,534431986821535.56,1.7339225305222048e+16
14.605677562982532,1.0987480783335132e+16,3.5686606419367476e+16,2524500607186202.5,3682586345441239.0,6951510075285.348,20316212037607.043,552099494902997.9,1.7912671466388954e+16
14.997791114242183,1.104892891837665e+16,3.638828708603129e+16,2538619026198913.0,3703181429139553.5,7179023534338.557,20981164963484.71,570170655816936.6,1.8499226868001424e+16
15.397746936527026,1.1109324228830456e+16,3.7102095015415976e+16,2552495546604410.5,3723423646021523.5,7411708765485.097,21661235332594.535,588652687737495.8,1.9099125962123956e+16
15.805701875257567,1.1168682596322308e+16,3.782830197003586e+16,2566133817389465.0,3743318319003918.0,7649658424396.451,22356694077060.426,607552954644041.0,1.9712607930174548e+16
16.221815912762718,1.1227019639816954e+16,3.856718428519772e+16,2579537427191456.0,3762870682969587.0,7892967038407.861,23067817605252.445,626878969353823.4,2.0339916781222292e+16
16.64625223101797,1.128435073001008e+16,3.9319022995198376e+16,2592709907605095.5,3782085889591009.5,8141731045430.449,23794887915768.938,646638396620172.2,2.098130145241091e+16
17.079177275638333,1.1340691002477484e+16,4.008410395977533e+16,2605654736203581.0,3800969011737466.5,8396048833686.633,24538192713836.273,666839056296410.9,2.1637015911512892e+16
17.5207608211511,1.1396055369681034e+16,4.086271799097749e+16,2618375339297093.5,3819525047498895.5,8656020782271.971,25298025530134.67,687488926565745.0,2.2307319261622332e+16
17.97117603757412,1.1450458531922176e+16,4.165516098060682e+16,2630875094449534.5,3837758923857167.0,8921749302547.195,26074685842061.59,708596147237425.1,2.2992475847995936e+16
18.430599558325603,1.1503914987327524e+16,4.246173402837489e+16,2643157332772795.5,3855675500032867.0,9193338880364.863,26868479197447.344,730169023109595.9,2.3692755367054348e+16
18.899211549492115,1.1556439040943444e+16,4.328274357091047e+16,2655225341016365.5,3873279570533429.5,9470896119136.213,27679717340737.05,752216027399198.5,2.4408432977558224e+16
19.37719578048196,1.160804481301117e+16,4.411850151174472e+16,2667082363468620.5,3890575867926635.0,9754529783743.88,28508718341659.566,774745805239493.6,2.5139789413973364e+16
19.864739696091597,1.1658746246488336e+16,4.496932535239606e+16,2678731603684964.5,3907569065361560.0,10044350845307.658,29355806726401.52,797767177245715.9,2.5887111102043692e+16
20.36203449001343,1.1708557113877446e+16,4.583553832466979e+16,2690176226056789.5,3924263778857233.5,10340472526810.271,30221313611309.676,821289143149474.1,2.665069027659078e+16
20.869275179813698,1.1757491023418068e+16,4.6717469524282744e+16,2701419357234192.0,3940664569378014.5,10643010349591.646,31105576839146.254,845320885502558.9,2.743082510156113e+16
21.38666068340997,1.1805561424694454e+16,4.761545404591506e+16,2712464087414356.0,3956775944713016.0,10952082180720.37,32008941117922.19,869871773450858.8,2.8227819792343736e+16
21.91439389707817,1.1852781613706518e+16,4.8529833119794264e+16,2723313471506739.0,3972602361175789.5,11267808281251.59,32931758162337.855,894951366579185.9,2.9041984740382356e+16
22.452681775019734,1.1899164737449914e+16,4.946095424990437e+16,2733970530185283.0,3988148225139282.5,11590311355381.352,33874386837860.414,920569418827789.0,2.9873636640108936e+16
23.00173541052013,1.1944723798044912e+16,5.0409171353916456e+16,2744438250837191.0,4003417894419779.5,11919716600508.574,34837193307469.27,946735882481415.9,3.072309861822519e+16
23.561770118730532,1.1989471656454252e+16,5.137484490492722e+16,2754719588417096.0,4018415679522935.5,12256151758215.031,35820551181104.69,973460912231892.0,3.159070036536187e+16
24.133005521105144,1.2033421035824268e+16,5.235834207509751e+16,2764817466214710.0,4033145844763593.0,12599747166176.037,36824841667852.34,1000754869315107.8,3.24767782701459e+16
24.715665631527248,1.207658452448286e+16,5.3360036881271304e+16,2774734776543662.5,4047612609270624.0,12950635811013.957,37850453730905.36,1028628325723486.8,3.3381675555708828e+16
25.309978944157795,1.2118974578625208e+16,5.438031033266203e+16,2784474381358539.5,4061820147887016.0,13308953382107.064,38897784245336.27,1057092068494938.0,3.430574241866895e+16
25.91617852304095,1.216060352471484e+16,5.541955058068356e+16,2794039112806639.0,4075772591974677.5,13674838326368.482,39967238158726.375,1086157104079444.8,3.5249336170622892e+16
26.53450209350177,1.2201483561627536e+16,5.647815307100779e+16,2803431773720462.0,4089474030132991.5,14048431904008.31,41059228654689.12,1115834662784397.0,3.621282138218362e+16
27.165192135371807,1.2241626762561792e+16,5.755652069792465e+16,2812655138056717.0,4102928508839061.5,14429878245294.062,42174177319335.04,1146136203299889.8,3.7196570029602584e+16
27.808495978079243,1.2281045076738764e+16,5.865506396108269e+16,2821711951286880.5,4116140033017558.0,14819324408324.676,43312514310721.27,1177073417305199.8,3.8200961644015144e+16
28.464665897640828,1.231975033091298e+16,5.9774201124682504e+16,2830604930744354.0,4129112566547009.0,15216920437834.014,44474678531334.42,1208658234157747.8,3.922638346335119e+16
29.133959215593645,1.2357754230713266e+16,6.091435837920169e+16,2839336765932442.5,4141850032709200.5,15622819425039.61,45661117803654.53,1240902825665852.5,4.0273230586952136e+16
29.816638399905518,1.2395068361831776e+16,6.207597000572043e+16,2847910118797673.0,4154356314587717.0,16037177568554.393,46872289048850.77,1273819610946647.2,4.134190613293918e+16
30.51297116790363,1.2431704191078216e+16,6.325947854292277e+16,2856327623971930.0,4166635255421341.0,16460154236377.834,48108658468660.14,1307421261370563.5,4.243282139837569e+16
31.223230591261704,1.2467673067314802e+16,6.446533495684552e+16,2864591888987336.0,4178690658917319.0,16891912028985.01,49370701730503.56,1341720705593832.5,4.354639602227272e+16
31.947695203086937,1.2502986222286108e+16,6.569399881344545e+16,2872705494466856.5,4190526289529497.5,17332616843531.582,50658904155892.73,1376731134680536.0,4.468305815148292e+16
32.686649107148675,1.2537654771357104e+16,6.694593845405731e+16,2880670994293908.0,4202145872705760.5,17782437939193.9,51973760912184.59,1412466007315651.8,4.584324460953338e+16
33.44038208929165,1.2571689714171796e+16,6.822163117381265e+16,2888490915763684.5,4213553095108755.0,18241548003663.15,53315777207742.445,1448939055110735.8,4.702740106844616e+16
34.20918973107749,1.2605101935243868e+16,6.9521563403090936e+16,2896167759718870.5,4224751604813799.0,18710123220813.54,54685468490560.24,1486164288003852.0,4.823598222359931e+16
34.993373525699035,1.2637902204489314e+16,7.084623089207305e+16,2903704000671984.5,4235745011487423.5,19188343339565.27,56083360650414.02,1524155999755342.8,4.946945197167895e+16
35.793240996213015,1.2670101177711074e+16,7.21961388984674e+16,2911102086916786.0,4246536886549864.0,19676391743961.863,57509990224598.625,1562928773541202.8,5.072828359177984e+16
36.60910581613728,1.2701709397044156e+16,7.357180237848157e+16,2918364440630501.0,4257130763324176.0,20174455524484.81,58965904607317.15,1602497487645727.2,5.201295992970529e+16
37.44128793246003,1.2732737291369764e+16,7.497374618110707e+16,2925493457968998.0,4267530137175048.5,20682725550625.36,60451662262785.016,1642877321255194.8,5.332397358552469e+16
38.29011369110923,1.2763195176705058e+16,7.640250524579022e+16,2932491509156312.5,4277738465639461.5,21201396544736.727,61967832942116.625,1684083760354469.2,5.466182710444791e+16
39.15591596493141,1.2793093256576156e+16,7.785862480355834e+16,2939360938570377.5,4287759168551672.5,21730667157189.43,63514997904060.445,1726132603728240.5,5.602703317107051e+16
40.03903428423004,1.2822441622379728e+16,7.934266058167576e+16,2946104064826098.0,4297595628164430.0,22270740042851.58,65093750139653.33,1769039969068854.2,5.742011480705418e+16
40.93981496991464,1.2851250253739466e+16,8.085517901189774e+16,2952723180857250.0,4307251189268444.5,22821821938918.32,66704694600862.234,1812822299192626.5,5.884160557230027e+16
41.85861126931294,1.2879529018861868e+16,8.239675744239475e+16,2959220553998207.5,4316729159311624.0,23384123744115.035,68348448433286.69,1857496368366582.2,6.029204976967907e+16
