t(s),Total solute volume 1,Total retention volume 1,Total 1 volume 1,Total 2 volume 1,Total 3 volume 1,Total 4 volume 1,Total 5 volume 1,Total 6 volume 1
0.1,1323473711248431.8,2617890617675497.5,487117646595586.6,807299259831480.0,0.0,0.0,0.0,-8.892789209081686e-83
0.202,1987532140735534.8,3934471378716232.5,731530972508951.4,1212365232094663.2,633734018.4099998,2253500623.566188,81627233316.50282,2958518909124.346
0.30604000000000003,2493961922165507.5,4940934689287153.0,917927493525013.6,1521279940842308.8,1606314724.9655259,5711973169.900602,207019455948.4506,7550995010481.324
0.41216080000000005,2921956402399512.5,5793584262685314.0,1075455120271312.2,1782350261287252.2,2851265506.6435704,10139000536.999744,367553478794.3801,13441934982405.918
0.5204040160000001,3301584061429365.5,6551748313650810.0,1215180856939241.2,2013917531371708.2,4338812778.025009,15428704423.347662,559382598054.0818,20486713795242.94
0.6308120963200001,3647871663913978.0,7245070714491491.0,1342635453990504.2,2225147857884178.0,6052824442.635066,21523717971.145927,780423970680.1895,28607738189740.242
0.7434283382464002,3969563622082534.5,7890802114677495.0,1461037379416685.5,2421375203927219.0,7983927599.005951,28390710648.96226,1029467719975.6597,37760066892843.86
0.8582969050113283,4272264744895245.0,8500002262435580.0,1572449538945209.2,2606018420524628.0,10126675882.68315,36010314938.89657,1305810864926.5752,47917610214747.414
0.9754628431115548,4559816300962826.0,9080254987194244.0,1678285749716389.2,2781420624961025.5,12478152093.5214,44372157152.49607,1609076851773.7034,59066384392995.92
1.094972099973786,4834983778089799.0,9637024791868354.0,1779563877035399.0,2949268724042138.0,15037193372.02474,53472102105.08037,1939115520117.7263,71200787885427.34
1.2168715419732616,5099834799182920.0,1.0174402090261188e+16,1877044930085871.0,3110823937256046.5,17803924913.346027,63310594977.34441,2295942914879.4067,84321366301582.31
1.3412089728127268,5355962165068632.0,1.0695542929664394e+16,1971315155059461.8,3267057849615004.0,20779461888.23969,73891601332.75856,2679702815415.93,98433386042647.9
1.4680331522689813,5604623063513288.0,1.120294337224024e+16,2062837272421428.0,3418737327110305.0,23965709900.5727,85221897536.75679,3090640984435.6367,113545880603343.45
1.597393815314361,5846829954793636.0,1.1698618591053612e+16,2151983928249389.5,3566479955572401.5,27365226511.92142,97310578333.55804,3529087298915.6177,129670989334423.84
1.729341691620648,6083412147506944.0,1.2184224184814324e+16,2239060357823051.8,3710791601008197.5,30981122370.652245,110168705258.28651,3995442992355.021,146823485656152.12
1.863928525453061,6315058831828243.0,1.2661140945622942e+16,2324320224442728.5,3852092659253826.5,34816989007.757835,123809049877.13284,4490171338389.298,165020432720864.03
2.001207095962122,6542349958271501.0,1.3130535675555514e+16,2407976984664654.0,3990736891563782.5,38876845164.09806,138245902925.8606,5013790725764.068,184280927581711.6
2.1412312378813647,6765778904150419.0,1.3593405823869694e+16,2490212230917432.0,4127025250817855.0,43165096348.34824,153494930497.15,5566869440573.918,204625908516553.5
2.284055862638992,6985769444073590.0,1.4050612904765618e+16,2571181937661596.0,4261216233272861.5,47686504065.49726,169573064616.71844,6150021696326.967,226078008492557.8
2.4297369798917723,7202688678382923.0,1.4502907955156536e+16,2651021219830001.5,4393533764719378.5,52446162261.23724,186498419479.3696,6763904595076.19,248661443047435.8
2.578331719489608,7416857034827424.0,1.495095123004955e+16,2729848014043411.0,4524173301355212.0,57449479250.645325,204290227187.3368,7409215796172.996,272401924320892.38
2.7298983538794,7628556112779618.0,1.5395327651146776e+16,2807765965752337.0,4653306614641705.0,62702163884.77646,222968788558.76688,8086691731817.524,297326595288837.1
2.884496320956988,7838034911450264.0,1.5836559075212846e+16,2884866721593454.5,4781085590422767.0,68210215041.883026,242555435758.65933,8797106251562.904,323463979844004.8
3.0421862473761276,8045514830132865.0,1.6275114146419178e+16,2961231769779336.0,4907645279000223.0,73979913763.29106,263072504334.28976,9541269608039.545,350843945480632.56
3.2030299723236504,8251193723119604.0,1.6711416289226122e+16,3036933932550589.0,5033106368572778.0,80017817520.38393,284543312828.9117,10320027717638.812,379497676135153.44
3.3670905717701234,8455249218221522.0,1.7145850253156734e+16,3112038587590241.5,5157577209484238.0,86330756219.79082,306992148576.56213,11134261645462.969,409457653310482.44
3.5344323832055258,8657841455424729.0,1.7578767517600068e+16,3186604676013414.5,5281155484763470.0,92925829642.63701,330444258596.45276,11984887275302.12,440757644034899.7
3.7051210308696363,8859115364403666.0,1.801049079031302e+16,3260685540628667.0,5403929599373785.0,99810406079.9136,354925844740.7913,12872855133938.865,473432694522150.7
3.879223451487029,9059202571953104.0,1.8441317778826452e+16,3334329627987413.5,5525979843718386.0,106992121975.9799,380464062427.576,13799150345528.42,507519128637645.4
4.0568079205167695,9258223009914792.0,1.8871524373622868e+16,3407581080197253.5,5647379374451826.0,114478882430.36649,407087022425.5344,14764792696724.324,543054550457419.2
4.237944078927105,9456286278822492.0,1.9301367351732504e+16,3480480236825123.0,5768195046283394.0,122278862437.46216,434823795263.02216,15770836797014.742,580077850346781.8
4.422702960505647,9653492810863414.0,1.9731086686509692e+16,3553064062936798.0,5888488121366352.0,130400508766.58711,463704417914.1699,16818372321691.852,618629214094748.5
4.61115701971576,9849934866860372.0,2.0160907531847132e+16,3625366516046128.0,6008314877442441.0,138852542402.9506,493759902479.57117,17908524327198.51,658750134726100.9
4.803380160110075,1.0045697395113394e+16,2.0591041935575476e+16,3697418862220198.5,6127727131722470.0,147643961484.2502,525022246629.5095,19042453630436.31,700483426680860.9
4.9994477633122765,1.0240858774593164e+16,2.1021690326276252e+16,3769249949619104.5,6246772694223433.0,156784044679.0529,557524445618.1958,20221357245086.105,743873242105159.0
5.199436718578522,1.0435491460782324e+16,2.1453042809479476e+16,3840886446204223.5,6365495761722077.0,166282354962.2306,591300505709.969,21446468869174.086,788965089041009.0
5.403425452950093,1.06296625491407e+16,2.1885280302687924e+16,3912353047127237.0,6483937261460500.0,176148743750.13422,626385458884.7703,22719059419067.527,835805851337783.8
5.611493962009095,1.0823434268527616e+16,2.2318575533469804e+16,3983672656339108.0,6602135152126340.0,186393355364.20142,662815378711.5536,24040437605864.55,884443810136783.2
5.823723841249277,1.1016864414793314e+16,2.2753093920691924e+16,4054866546177709.0,6720124688337211.0,197026631796.61835,700627397295.8613,25411950550774.7,934928666803811.9
6.040198318074262,1.1210006733041594e+16,2.318899435560176e+16,4125954498063390.0,6837938653815267.0,208059317755.72162,739859723222.1691,26834984436612.973,987311567203947.1
6.261002284435747,1.1402911255676638e+16,2.3626429896735936e+16,4196954926920510.5,6955607567590779.0,219502465972.155,780551660423.5469,28310965192959.105,1041645127228659.4
6.486222330124463,1.1595624602213912e+16,2.406554839040415e+16,4267884991525730.0,7073159866882290.0,231367442749.60553,822743627921.0568,29841359212895.734,1097983459498653.6
6.715946776726952,1.1788190245904148e+16,2.4506493026669868e+16,4338760692641739.5,7190622069733425.0,243665933746.22763,866477180383.5586,31427674099535.684,1156382201176878.0
6.950265712261491,1.1980648751453184e+16,2.49494028392395e+16,4409596960512341.5,7308018920018402.0,256409949974.8448,911795029465.4965,33071459440801.234,1216898542835361.5
7.18927102650672,1.217303798748388e+16,2.53944131564241e+16,4480407733061177.0,7425373517040668.0,269611834011.59998,958741065886.0134,34774307611125.7,1279591258327335.0
7.433056447036854,1.2365393316857348e+16,2.5841656009294828e+16,4551206025941350.0,7542707431626057.0,283284266404.1488,1007360382217.6582,36537854598927.305,1344520735622549.0
7.681717575977592,1.2557747767528104e+16,2.6291260502287148e+16,4622003995420390.0,7660040810341899.0,297440272271.59406,1057699296356.9996,38363780858852.38,1411749008569263.8
7.935351927497144,1.275013218623664e+16,2.6743353150774864e+16,4692812994948270.0,7777392469247228.0,312093228089.3806,1109805375653.0117,40253812187912.34,1481339789551076.5
8.194058966047088,1.294257537702881e+16,2.719805818952301e+16,4763643626140949.0,7894779978387575.0,327256868653.1812,1163727461671.984,42209720624746.48,1553358503010616.2
8.45794014536803,1.3135104226327966e+16,2.765549785540607e+16,4834505784814297.0,8012219738087095.0,342945294216.5018,1219515695580.2656,44233325371330.15,1627872319815558.2
8.72709894827539,1.3327743816059228e+16,2.81157926473363e+16,4905408702620714.0,8129727047952675.0,359172977797.35034,1277221544128.241,46326493736531.49,1704950192445226.8
9.0016409272409,1.3520517526134824e+16,2.857906156597153e+16,4976360984769778.0,8247316169388594.0,375954772649.8053,1336897826220.755,48491142100977.85,1784662890978508.5
9.281673745785717,1.371344712744521e+16,2.904542233544794e+16,5047370644254644.0,8365000382319606.0,393305919896.7654,1398598740060.7644,50729236902754.1,1867083039865787.5
9.567307220701432,1.3906552866360228e+16,2.9514991609109304e+16,5118445132953477.0,8482792036735453.0,411242056320.50995,1462379890854.2354,53042795643501.13,1952285155469481.2
9.85865336511546,1.4099853541623506e+16,2.9987885160965016e+16,5189591369931230.0,8600702599595306.0,429779222308.04675,1528298319065.5125,55433887914521.84,2040345684359044.0
10.155826432417769,1.4293366574419954e+16,3.046421806440603e+16,5260815767228640.0,8718742697567886.0,448933869948.4364,1596412529213.2263,57904636442536.984,2131343042347821.5
10.458942961066125,1.4487108072304792e+16,3.0944104859529336e+16,5332124253392026.0,8836922156027288.0,468722871279.5667,1666782519197.6824,60457218154763.07,2225357654259972.0
10.768121820287448,1.4681092887605798e+16,3.1427659710268456e+16,5403522294968729.0,8955250034677423.0,489163526681.9848,1739469810151.2751,63093865263006.22,2322471994416657.0
11.083484256693197,1.4875334670841472e+16,3.1914996552394276e+16,5475014916168240.0,9073734660136304.0,510273573417.5905,1814537476804.134,65816866366489.91,2422770627831524.5
11.405153941827061,1.506984591963898e+16,3.2406229233333056e+16,5546606716866917.0,9192383655775340.0,532071194311.11285,1892050178357.551,68628567573148.984,2526340252106018.0
11.733257020663602,1.5264638023584012e+16,3.2901471644647744e+16,5618301889115488.0,9311203969076980.0,554575026572.4093,1972074189858.264,71531373639137.34,2633269740015670.0
12.067922161076874,1.5459721305389494e+16,3.3400837847938004e+16,5690104232291462.0,9430201896747088.0,577804170757.7101,2054677434066.955,74527749126310.55,2743650182778824.0
12.409280604298411,1.5655105058729644e+16,3.3904442194838496e+16,5762017167024534.0,9549383107793298.0,601778199868.0243,2139929513814.5417,77620219577451.86,2857574933999853.5
12.75746621638438,1.5850797583052528e+16,3.441239944172326e+16,5834043748009476.0,9668752664759774.0,626517168582.974,2227901744840.1914,80811372709019.34,2975139654279020.5
13.112615540712067,1.6046806215650758e+16,3.492482485966547e+16,5906186675810212.0,9788315043290236.0,652041622628.3849,2318667189104.991,84103859621202.14,3096442356481312.5
13.474867851526309,1.624313736124581e+16,3.544183434014715e+16,5978448307748630.0,9908074150173792.0,678372608275.9885,2412300688575.6177,87500396025069.75,3221583451657007.5
13.844365208556836,1.6439796519315122e+16,3.5963544496966468e+16,6050830667962472.0,1.0028033340014036e+16,705531681973.6656,2508878899472.2344,91003763486617.8,3350665795606813.0
14.221252512727972,1.6636788309370504e+16,3.649007276474749e+16,6123335456709438.0,1.0148195430648596e+16,733540920104.6243,2608480326975.032,94616810687500.81,3483794736084301.5
14.605677562982532,1.683411649437808e+16,3.702153749442041e+16,6195964058987071.0,1.0268562717434946e+16,762422928874.0234,2711185360384.031,98342454702261.1,3621078160628871.5
14.997791114242183,1.7031784002491836e+16,3.755805804600826e+16,6268717552531932.0,1.03891369865074e+16,792200854321.4766,2817076308726.6855,102183682291852.94,3762626545022223.5
15.397746936527026,1.722979294725885e+16,3.809975487902172e+16,6341596715256517.0,1.050991952710222e+16,822898392457.964,2926237436807.959,106143551213274.8,3908553002361575.5
15.805701875257567,1.742814464644054e+16,3.864674964074424e+16,6414602032176400.0,1.0630911143038104e+16,854539799525.674,3038755001697.719,110225191545115.34,4058973332742910.0
16.221815912762718,1.7626839639581866e+16,3.919916525266052e+16,6487733701876926.0,1.075211216343331e+16,887149902379.3094,3154717289650.0933,114431807028829.66,4214006073547483.0
16.64625223101797,1.7825877704450572e+16,3.975712599526057e+16,6560991642563695.0,1.0873522452733152e+16,920754108987.4237,3274214653449.892,118766676425557.97,4373772550325204.5
17.079177275638333,1.802525787245753e+16,4.032075759143792e+16,6634375497738299.0,1.0995141420116368e+16,955378419052.3969,3397339550180.9536,123233154888306.89,4538396928268069.0
17.5207608211511,1.8224978443162388e+16,4.089018728867387e+16,6707884641537111.0,1.1116968028343204e+16,991049434747.6111,3524186579411.5005,127834675349317.14,4708006264267631.0
17.97117603757412,1.842503699795828e+16,4.146554394019518e+16,6781518183768327.0,1.123900080210306e+16,1027794371570.5544,3654852521791.7485,132574749922437.0,4882730559549798.0
18.430599558325603,1.862543041302622e+16,4.204695808527092e+16,6855274974679656.0,1.136123783591623e+16,1065641069310.4539,3789436378059.066,137456971320341.36,5062702812881123.0
18.899211549492115,1.8826154871638224e+16,4.263456202880235e+16,6929153609486872.0,1.1483676801638804e+16,1104618003129.2246,3928039408446.159,142485014286422.9,5248059074340458.0
19.37719578048196,1.902720587588763e+16,4.3228489920355256e+16,7003152432691056.0,1.1606314955617938e+16,1144754294754.4565,4070765172487.8545,147662637041203.72,5438938499650126.0
19.864739696091597,1.9228578257915772e+16,4.382887783276397e+16,7077269542210892.0,1.172914914554001e+16,1186079723783.3184,4217719569222.4326,152993682743111.72,5635483405061165.0
20.36203449001343,1.943026619070209e+16,4.443586384043587e+16,7151502793353918.0,1.1852175817012356e+16,1228624739096.2183,4369010877783.4785,158482080963483.34,5837839322787142.0
20.869275179813698,1.963226319847872e+16,4.50495880974703e+16,7225849802649744.0,1.1975391019915856e+16,1272420470379.2144,4524749798378.655,164131849175654.9,6046155056981609.0
21.38666068340997,1.9834562166826884e+16,4.567019291570298e+16,7300307951566227.0,1.2098790414563998e+16,1317498739754.241,4685049493651.876,169947094258018.78,6260582740254541.0
21.91439389707817,2.003715535250985e+16,4.629782284277717e+16,7374874390128479.0,1.222236927770048e+16,1363892073516.189,4850025630425.888,175932014010939.78,6481277890723447.0
22.452681775019734,2.024003439309244e+16,4.693262474033718e+16,7449546040459457.0,1.2346122508366968e+16,1411633713976.2163,5019796421822.636,182090898687416.56,6708399469595127.0
23.00173541052013,2.04431903163943e+16,4.757474786243692e+16,7524319600259351.0,1.2470044633669784e+16,1460757631410.524,5194482669758.891,188428132537429.72,6942109939274867.0
23.561770118730532,2.0646613549821876e+16,4.8224343934243944e+16,7599191546240289.0,1.2594129814471812e+16,1511298536114.1338,5374207807815.499,194948195365875.6,7182575322000185.0
24.133005521105144,2.085029392962066e+16,4.888156723112496e+16,7674158137531747.0,1.2718371851036634e+16,1563291890559.2336,5559097944478.705,201655664104065.53,7429965258996812.0
24.715665631527248,2.105422071008713e+16,4.954657465818393e+16,7749215419071051.0,1.2842764188647304e+16,1616773921657.8894,5749281906752.775,208555214394739.44,7684453070155290.0
25.309978944157795,2.1258382572776824e+16,5.021952583032825e+16,7824359224992532.0,1.2967299923223534e+16,1671781633129.033,5944891284143.695,215651622190586.88,7946215814227539.0
25.91617852304095,2.1462767635744236e+16,5.090058315292998e+16,7899585182028309.0,1.309197180695741e+16,1728352817969.8086,6146060473014.131,222949765366291.25,8215434349542750.0
26.53450209350177,2.1667363462845628e+16,5.158991190314719e+16,7974888712932434.0,1.321677225398856e+16,1786526071031.5852,6352926721310.984,230454625344133.44,8492293395244099.0
27.165192135371807,2.187215707313733e+16,5.228768031196924e+16,8050265039939783.0,1.3341693346136338e+16,1846340801701.1243,6565630173666.954,238171288733208.34,8776981593047184.0
27.808495978079243,2.2077134950395956e+16,5.2994059647043e+16,8125709188270322.0,1.346672683870753e+16,1907837246687.6045,6784313916878.916,246104948982357.8,9069691569523336.0
28.464665897640828,2.228228305278973e+16,5.370922429634048e+16,8201215989688519.0,1.35918641663954e+16,1971056482916.5005,7009124025766.34,254260908046929.22,9370619998911246.0
29.133959215593645,2.2487586822724056e+16,5.443335185271791e+16,8276780086127216.0,1.3717096449285414e+16,2036040440531.4111,7240209609414.242,262644578069523.88,9679967666461790.0
29.816638399905518,2.269303119688615e+16,5.516662319942398e+16,8352395933384697.0,1.3842414498982476e+16,2102831916005.4343,7477722857805.52,271261483074909.1,9997939532321934.0
30.51297116790363,2.2898600616510084e+16,5.5909222596603944e+16,8428057804902751.0,1.3967808824872198e+16,2171474585363.711,7721819088849.219,280117260679330.75,1.0324744795965382e+16
31.223230591261704,2.3104279037882156e+16,5.666133776885066e+16,8503759795633304.0,1.4093269640529228e+16,2242013017519.278,7972656795811.8545,289217663814478.9,1.066059696117806e+16
31.947695203086937,2.3310049943106268e+16,5.7423159993848504e+16,8579495826000629.0,1.4218786870283634e+16,2314492687724.4995,8230397695160.21,298568562466403.3,1.100571390160877e+16
32.686649107148675,2.3515896351144444e+16,5.819488419215817e+16,8655259645965186.0,1.434435015595602e+16,2388959991140.8584,8495206774825.127,308175945429754.6,1.1360317926896778e+16
33.44038208929165,2.3721800829151164e+16,5.897670901818298e+16,8731044839195063.0,1.4469948863770748e+16,2465462256529.9985,8767252342896.983,318045922077673.44,1.1724635849388932e+16
34.20918973107749,2.392774550411284e+16,5.9768836952365256e+16,8806844827350100.0,1.459557209145609e+16,2544047760069.5527,9046706076765.25,328184724147844.3,1.2098899051461498e+16
34.993373525699035,2.4133712074806604e+16,6.05714743946492e+16,8882652874483440.0,1.4721208675538872e+16,2624765739297.4185,9333743072714.943,338598707545126.5,1.2483343553463058e+16
35.793240996213015,2.4339681824089544e+16,6.1384831759256344e+16,8958462091564740.0,1.4846847198840788e+16,2707666407188.606,9628541895995.31,349294354161338.0,1.2878210082296732e+16
36.60910581613728,2.4545635631527896e+16,6.2209123570810664e+16,9034265441128440.0,1.497247599818196e+16,2792800966369.3887,9931284631376.586,360278273712754.06,1.328374414066184e+16
37.44128793246003,2.4751553986375104e+16,6.3044568561853416e+16,9110055742050396.0,1.5098083172297154e+16,2880221623473.423,10242156934212.45,371557205595969.2,1.3700196076977192e+16
38.29011369110923,2.4957417000904836e+16,6.38913897717879e+16,9185825674455340.0,1.5223656589969182e+16,2969981603645.5693,10561348082028.002,383138020762814.7,1.412782115600994e+16
39.15591596493141,2.5163204424105984e+16,6.474981464728846e+16,9261567784757418.0,1.5349183898382152e+16,3062135165199.001,10889051026652.941,395027723615072.7,1.4566879630235958e+16
40.03903428423004,2.5368895655741816e+16,6.562007514421626e+16,9337274490834752.0,1.5474652531697784e+16,3156737614431.996,11225462446923.645,407233453919817.2,1.5017636811960738e+16
40.93981496991464,2.55744697607785e+16,6.650240783107363e+16,9412938087340124.0,1.5600049719856142e+16,3253845320611.2803,11570782801977.2,419762488746228.9,1.5480363146230034e+16
41.85861126931294,2.5779905484181856e+16,6.739705399403561e+16,9488550751146902.0,1.572536249760176e+16,3353515731128.903,11925216385163.71,432622244424826.94,1.5955334284563918e+16
