t(s),Total solute volume 1,Total retention volume 1,Total 1 volume 1,Total 2 volume 1,Total 3 volume 1,Total 4 volume 1,Total 5 volume 1,Total 6 volume 1
0.1,1198922522623410.5,1797285705327306.5,247551059597552.8,350812123106343.5,0.0,0.0,0.0,0.0
0.202,1804110095462588.0,2705437744169206.5,372508950635626.44,527893766124697.06,404825050.7809204,1131549870.8940327,28768164448.035957,894627406924.6089
0.30604000000000003,2265224609408718.0,3398110017686278.5,467718929822446.06,662818726659552.4,1026743017.8249427,2869914868.416867,72969459390.32925,2270885678286.938
0.41216080000000005,2655102713358537.0,3984392814876545.5,548220160970788.2,776899471494465.4,1823279496.4282885,5096369274.555615,129582579728.29652,4033966824254.546
0.5204040160000001,3001158625639899.5,4505338948377480.0,619673075819738.6,878157571616641.9,2775516715.2493587,7758034372.611387,197262602680.01242,6141879147432.629
0.6308120963200001,3317065712337256.5,4981422587099097.0,684900922989457.4,970593938775561.9,3873265718.8429413,10826430204.705364,275285229409.39795,8572028071488.088
0.7434283382464002,3610774466676301.5,5424548750408936.0,745545304024504.9,1056534936546591.8,5110662490.838635,14285165819.403614,363233618772.5358,11311413714452.701
0.8582969050113283,3887378946778917.5,5842346183885644.0,802658029600885.4,1137471117874667.2,6484357430.440951,18124878512.11916,460869667230.12946,14352610727991.824
0.9754628431115548,4150369941224460.5,6240043913345770.0,856959870585541.2,1214423909101875.2,7992622899.251395,22340739253.70747,568070565043.9946,17691788506702.715
1.094972099973786,4402260755242407.5,6621408217584429.0,908969769087391.9,1288128718888908.2,9634858749.67808,26931070552.82659,684793646271.7908,21327614790146.285
1.2168715419732616,4644930871352968.0,6989257123315348.0,959075796802039.4,1359135495448208.2,11411295026.482376,31896515453.585228,811055255583.2605,25260596646070.848
1.3412089728127268,4879828687816908.0,7345763892243913.0,1007577016031285.6,1427868049070122.8,13322802139.648249,37239506935.06763,946917254815.9982,29492659761711.887
1.4680331522689813,5108098012609248.0,7692646355521843.0,1054709597899447.4,1494661065042753.0,15370763988.472502,42963913270.84851,1092478004393.851,34026867288746.03
1.597393815314361,5330660625266562.0,8031290479642853.0,1100663869554290.2,1559784261759519.0,17556990099.929886,49074792440.379616,1247866118012.927,38867225161934.31
1.729341691620648,5548272200620907.0,8362834057543395.0,1145595861184897.5,1623458754349770.2,19883653073.498177,55578217276.432915,1413236016174.7148,44018543501296.23
1.863928525453061,5761561384489387.0,8688225182115199.0,1189635374289932.5,1685868488467364.8,22353243071.272644,62481148257.15112,1588764691329.9702,49486335785858.49
2.001207095962122,5971057828034263.0,9008264194984526.0,1232891770154798.5,1747168443317861.5,24968534159.95309,69791339426.17635,1774649315469.379,55276744288540.71
2.1412312378813647,6177212763384885.0,9323634473413494.0,1275458218263849.5,1807490652212775.0,27732559121.777657,77517267984.98616,1971105449694.6162,61396484275176.336
2.284055862638992,6380414406848906.0,9634925477517632.0,1317414876723856.2,1866948709644481.8,30648590463.01685,85668081208.50215,2178365694315.4546,67852801934382.83
2.4297369798917723,6580999692173805.0,9942650306528692.0,1358831314923766.5,1925641204511095.8,33720126054.54972,94253556308.19135,2396678668196.5786,74653442569483.39
2.578331719489608,6779263346858463.0,1.0247259280146894e+16,1399768387592906.0,1983654375901389.8,36950878300.703224,103284070157.28822,2626308238893.5884,81806626606772.42
2.7298983538794,6975465010160097.0,1.0549150590490892e+16,1440279704512445.8,2041064195867643.8,40344766042.32286,112770576658.68028,2867532947137.776,89321031660883.1
2.884496320956988,7169834884451605.0,1.084867876034771e+16,1480412797396072.5,2097938023047737.8,43905908612.68839,122724590130.38402,3120645584344.724,97205779369209.23
3.0421862473761276,7362578272227199.0,1.114616143485479e+16,1520210056681612.0,2154335930221094.8,47638621613.846085,133158173499.89243,3385952892409.3823,105470426037372.52
3.2030299723236504,7553879255339045.0,1.1441884890507542e+16,1559709491212250.5,2210311780876039.0,51547414087.16549,144083930395.63843,3663775362602.264,114124956373121.48
3.3670905717701234,7743903706113271.0,1.1736108545219702e+16,1598945349965603.5,2265914110280985.5,55636986828.96742,155515000439.1393,3954447115856.6025,123179779756708.81
3.5344323832055258,7932801772414404.0,1.2029068681969754e+16,1637948635164699.0,2321186852629650.5,59912231658.74163,167465057199.81628,4258315850765.5806,132645728621381.64
3.7051210308696363,8120709944398130.0,1.2320981547200492e+16,1676747529016891.5,2376169945785700.0,64378231489.76076,179948308392.65363,4575742848613.32,142534058611262.75
3.879223451487029,8307752785584059.0,1.261204594757231e+16,1715367751142164.8,2430899837805340.5,69040261083.80998,192979497988.10602,4907103027032.933,152856450254641.72
4.0568079205167695,8494044392283282.0,1.2902445440849554e+16,1753832859912770.2,2485409913974825.0,73903788396.14183,206573909971.79248,5252785035617.693,163625011944693.12
4.237944078927105,8679689631482228.0,1.3192350195853618e+16,1792164508048945.8,2539730859022978.5,78974476435.57895,220747373544.14395,5613191388149.09,174852284061336.8
4.422702960505647,8864785196732555.0,1.3481918580633232e+16,1830382660636877.0,2593890966081046.0,84258185579.35588,235516269591.13483,5988738627147.8955,186551244100436.44
4.61115701971576,9049420513525664.0,1.377129852592913e+16,1868505782068585.8,2647916401600925.5,89760976293.81976,250897538289.48343,6379857517274.12,198735312702077.56
4.803380160110075,9233678519400734.0,1.4060628701691966e+16,1906550997117019.2,2701831433619566.0,95489112221.2606,266908687735.26282,6786993264751.69,211418360489933.28
4.9994477633122765,9417636339183430.0,1.4350039537156972e+16,1944534230357992.2,2755658629338011.5,101449063600.44562,283567803505.2962,7210605760513.61,224614715649909.84
5.199436718578522,9601365871945506.0,1.4639654109283816e+16,1982470327364338.2,2809419026869423.5,107647510994.32216,300893559077.1591,7651169845181.081,238339172189303.97
5.403425452950093,9784934303263190.0,1.4929588919867172e+16,2020373160476033.5,2863132285128984.5,114091349303.12653,318905227046.961,8109175594329.893,252606998828280.9
5.611493962009095,9968404553954316.0,1.5219954578036074e+16,2058255721454483.5,2916816815137270.5,120787692045.02113,337622691094.94904,8585128622773.862,267433948484095.56
5.823723841249277,1.0151835674550638e+16,1.5510856401985094e+16,2096130202932352.0,2970489895445154.5,127743875889.5993,357066458657.92206,9079550406822.559,282836268315577.25
6.040198318074262,1.0335283193209542e+16,1.5802394951458856e+16,2134008070249691.2,3024167773935041.0,134967465432.21178,377257674274.83246,9592978623657.85,298830710301239.5
6.261002284435747,1.051879942351056e+16,1.6094666500629786e+16,2171900125007105.2,3077865757883967.5,142466258199.2874,398218133578.0684,10125967507130.69,315434542329232.0
6.486222330124463,1.0702433737553088e+16,1.6387763459469804e+16,2209816561454404.2,3131598293873709.5,150248289876.63297,419970297908.0362,10679088219408.027,332665559781418.5
6.715946776726952,1.0886232808928168e+16,1.668177475045749e+16,2247767016658954.0,3185379038885809.0,158321839754.24506,442537309532.9529,11252929238010.756,350542097597253.25
6.950265712261491,1.1070240829442184e+16,1.6976786146420474e+16,2285760615254285.0,3239220923716266.5,166695436382.44916,465943007459.3724,11848096757874.477,369083042806005.75
7.18927102650672,1.1254499702891782e+16,1.7272880574451228e+16,2323806009450413.5,3293136209675323.0,175377863435.29138,490211943822.0447,12465215108142.48,388307847518305.9
7.433056447036854,1.14390492187116e+16,1.7570138390117704e+16,2361911414888191.0,3347136539397812.0,184378165778.02078,515369400844.2891,13104927183467.695,408236542370036.5
7.681717575977592,1.1623927207912914e+16,1.786863762558909e+16,2400084642837246.5,3401232982471768.5,193705655736.31506,541441408362.29016,13767894889655.701,428889750413383.25
7.935351927497144,1.1809169683395646e+16,1.8168454214793868e+16,2438333129167305.0,3455436076494628.0,203369919565.5645,568454761908.6467,14454799603529.715,450288701451332.25
8.194058966047088,1.1994810966431304e+16,1.8469662198303996e+16,2476663960464143.5,3509755864082917.0,213380824119.1238,596437041352.0999,15166342646940.02,472455246813205.7
8.45794014536803,1.2180883800875024e+16,1.8772333910276836e+16,2515083897611819.5,3564201926291335.5,223748523714.93985,625416630091.8005,15903245774875.896,495411874569966.8
8.72709894827539,1.2367419456459468e+16,1.9076540149485984e+16,2553599397120608.0,3618783412837276.0,234483467200.40195,655422734805.6719,16666251677668.95,519181725188944.9
9.0016409272409,1.2554447822350902e+16,1.9382350336207844e+16,2592216630444293.0,3673509069475883.5,245596405215.62753,686485405753.506,17456124497303.908,543788607628494.25
9.281673745785717,1.2741997491998266e+16,1.9689832656512164e+16,2630941501499588.5,3728387262827355.0,257098397655.73932,718635557636.2987,18273650357875.227,569257015873825.8
9.567307220701432,1.2930095840178602e+16,1.9999054195312404e+16,2669779662574327.0,3783426002921024.5,269000821332.9524,751904991014.1282,19119637910249.26,595612145915853.9
9.85865336511546,1.3118769093033146e+16,2.031008105936834e+16,2708736528788398.0,3838632963688232.0,281315377839.55066,786326414285.6488,19994918891007.477,622879913175457.5
10.155826432417769,1.330804239179286e+16,2.062297849129312e+16,2747817291251630.0,3894015501608945.0,294054101613.03424,821933466232.6932,20900348695763.316,651086970376045.9
10.458942961066125,1.349793985081193e+16,2.0937810975492932e+16,2787026929046440.5,3949580672692558.5,307229368204.92035,858760739134.1959,21836806966956.598,680260725867686.8
10.768121820287448,1.3688484610454368e+16,2.1254642336863092e+16,2826370220147779.5,4005335247952987.5,320853902754.8121,896843802453.9436,22805198196242.297,710429362406465.1
11.083484256693197,1.387969888532016e+16,2.157353583297102e+16,2865851751380684.5,4061285727519856.5,334940788671.5205,936219227107.1299,23806452341598.555,741621856392970.2
11.405153941827061,1.4071604008240482e+16,2.1894554240377056e+16,2905475927504464.5,4117438353511784.5,349503476523.12115,976924610310.9635,24841525459289.94,773867997574174.6
11.733257020663602,1.4264220470427458e+16,2.2217759935672564e+16,2945246979502573.0,4173799121784477.0,364555793137.92615,1018998601024.9371,25911400350825.348,807198409213088.9
12.067922161076874,1.4457567958120178e+16,2.2543214971755856e+16,2985168972149348.0,4230373792653538.0,380111950918.4599,1062480925986.4875,27017087225059.875,841644568730838.9
12.409280604298411,1.4651665386034528e+16,2.2870981149808444e+16,3025245810916544.5,4287167900682139.0,396186557370.5741,1107412416348.1265,28159624375592.42,877238828825922.2
12.75746621638438,1.4846530927891146e+16,2.320112008739056e+16,3065481248276782.5,4344186763613649.5,412794624849.8991,1153835034922.1313,29340078873615.02,914014439075582.6
13.112615540712067,1.5042182044269244e+16,2.3533693283031012e+16,3105878889454687.5,4401435490521867.0,429951580527.8906,1201791904039.0984,30559547276376.258,952005568024249.6
13.474867851526309,1.5238635508007664e+16,2.386876217764908e+16,3146442197671658.0,4458918989243517.5,447673276579.74646,1251327334026.7947,31819156351417.77,991247325764228.2
13.844365208556836,1.5435907427354168e+16,2.420638821311507e+16,3187174498925710.0,4516641973151861.0,465976000596.5007,1302486852315.6619,33120063816750.95,1031775787013654.8
14.221252512727972,1.563401326704373e+16,2.454663288822526e+16,3228078986343645.5,4574608967324331.0,484876486223.6255,1355317233177.5625,34463459097137.47,1073628014697012.2
14.605677562982532,1.5832967867469262e+16,2.4889557812342816e+16,3269158724139401.0,4632824314152062.0,504391924028.4467,1409866528104.2278,35850564096639.92,1116842084033318.2
14.997791114242183,1.6032785462093978e+16,2.5235224756932336e+16,3310416651209320.5,4691292178434786.0,524539972598.73126,1466184096831.8914,37282633987607.31,1161457107137190.0
15.397746936527026,1.6233479693239388e+16,2.558369570519509e+16,3351855584392035.5,4750016552000545.0,545338769874.72327,1524320639018.6536,38760958016261.91,1207513258137962.0
15.805701875257567,1.643506362637229e+16,2.5935032899995064e+16,3393478221418373.0,4809001257886102.0,566806944716.9515,1584328226580.9158,40286860325047.52,1255051798821946.2
16.221815912762718,1.663754976300216e+16,2.6289298890247656e+16,3435287143574432.0,4868249954110866.0,588963628712.067,1646260336695.2766,41861700791904.234,1304115104802931.5
16.64625223101797,1.6840950052291368e+16,2.664655657593042e+16,3477284818098802.5,4927766137074050.0,611828468218.9402,1710171885472.1309,43486875886626.92,1354746692225875.0
17.079177275638333,1.7045275901471684e+16,2.7006869251859772e+16,3519473600333360.5,4987553144602624.0,635421636657.2261,1776119262307.1248,45163819544463.87,1406991245008725.0
17.5207608211511,1.7250538185152498e+16,2.7370300650368844e+16,3561855735645217.5,5047614158674988.0,659763847040.5237,1844160364916.4343,46894004057107.82,1460894642627118.8
17.97117603757412,1.7456747253599972e+16,2.773691498300737e+16,3604433361136168.5,5107952207843465.0,684876364756.2598,1914354635061.7861,48678940981230.77,1516503988446712.5
18.430599558325603,1.7663912940059246e+16,2.810677698137853e+16,3647208507154551.5,5168570169376857.0,710781020594.2676,1986763094970.8503,50520182064705.02,1573867638607582.0
18.899211549492115,1.7872044567186616e+16,2.847995193721682e+16,3690183098623389.5,5229470771142483.0,737500224026.1183,2061448384458.5479,52419320190650.96,1633035231465198.5
19.37719578048196,1.8081150952653656e+16,2.8856505741804256e+16,3733358956197490.0,5290656593246071.0,765056976736.988,2138474798754.5564,54377990339447.36,1694057717592139.2
19.864739696091597,1.829124041398035e+16,2.923650492481457e+16,3776737797261409.5,5352130069445896.0,793474886411.9725,2217908327042.075,56397870568833.2,1756987390344638.5
20.36203449001343,1.8502320772650856e+16,2.962001669266969e+16,3820321236779202.5,5413893488357030.0,822778180778.5304,2299816691712.7295,58480683012222.8,1821877916997828.0
20.869275179813698,1.8714399357560372e+16,3.0007108966485612e+16,3864110788006190.5,5475948994460057.0,852991721906.6873,2384269388342.167,60628194895353.84,1888784370453376.8
21.38666068340997,1.8927483007840764e+16,3.0397850419682316e+16,3908107863072362.5,5538298588927739.0,884141020768.5685,2471337726390.6807,62842219571375.26,1957763261522930.8
21.91439389707817,1.9141578075106732e+16,3.079231051532313e+16,3952313773446191.5,5600944130282354.0,916252252058.6844,2561094870632.9053,65124617574479.19,2028872571790662.5
22.452681775019734,1.9356690425164212e+16,3.119055954324966e+16,3996729730287313.5,5663887334895501.0,949352269276.3087,2653615883320.228,67477297692173.66,2102171787057891.8
23.00173541052013,1.957282543921798e+16,3.1592668657071424e+16,4041356844695963.5,5727129777341531.0,983468620071.159,2748977767079.5464,69902218056278.71,2177721931372502.5
23.561770118730532,1.9789988014615652e+16,3.1998709911066136e+16,4086196127866470.0,5790672890615147.0,1018629561853.5048,2847259508551.1787,72401387252729.25,2255585601645725.5
24.133005521105144,2.0008182565160588e+16,3.2408756297044704e+16,4131248491152001.5,5854517966223061.0,1054864077669.642,2948542122768.935,74976865450253.56,2335827002858410.0
24.715665631527248,2.0227413021027056e+16,3.282288178123064e+16,4176514746046965.0,5918666154159163.0,1092201892343.6412,3052908698284.543,77630765547984.17,2418511983858812.5
25.309978944157795,2.0447682828308108e+16,3.3241161341201356e+16,4221995604093673.5,5983118462772120.0,1130673488886.0308,3160444443038.621,80365254342060.86,2503708073753478.0
25.91617852304095,2.066899494822439e+16,3.366367100293737e+16,4267691676718969.5,6047875758534008.0,1170310125170.043,3271236730979.6543,83182553711260.86,2591484518892585.5
26.53450209350177,2.0891351856023256e+16,3.4090487878021136e+16,4313603475006952.0,6112938765718092.0,1211143850875.8745,3385375149432.4976,86084941821689.0,2681912320450845.5
27.165192135371807,2.1114755539593836e+16,3.4521690201027412e+16,4359731409412978.0,6178308065993597.0,1253207524703.1846,3502951547216.8696,89074754350555.4,2775064272604522.5
27.808495978079243,2.1339207497824384e+16,3.495735736714356e+16,4406075789424484.0,6243984097945097.0,1296534831852.0945,3624060083516.697,92154385729043.4,2871015001305152.5
28.464665897640828,2.1564708738726436e+16,3.53975699700573e+16,4452636823173749.5,6309967156523628.0,1341160301772.6016,3748797277500.0166,95326290404275.8,2969841003649886.0
29.133959215593645,2.17912597773504e+16,3.584240984014796e+16,4499414617007415.0,6376257392436762.0,1387119326182.2954,3877262058689.182,98592984120365.58,3071620687848191.5
29.816638399905518,2.201886063351521e+16,3.629196008301548e+16,4546409175017740.0,6442854811484237.0,1434448177352.0679,4009555818080.4106,101957045218528.17,3176434413784322.5
30.51297116790363,2.224751082937523e+16,3.674630511837907e+16,4593620398540247.0,6509759273846087.0,1483184026659.3352,4145782460011.569,105421115956227.86,3284364534174546.5
31.223230591261704,2.247720938684646e+16,3.72055307193795e+16,4641048085622240.0,6576970493329558.0,1533364963408.1484,4286048454776.2485,108987903845308.16,3395495436317774.5
31.947695203086937,2.2707954824913492e+16,3.766972405231417e+16,4688691930466798.0,6644488036581012.0,1585030013915.446,4430462891982.063,112660183009056.58,3509913584437968.5
32.686649107148675,2.2939745156838784e+16,3.813897371683465e+16,4736551522856567.0,6712311322269447.0,1638219160862.4075,4579137534650.542,116440795558132.31,3627707562616166.0
33.44038208929165,2.317257788729523e+16,3.861336978663622e+16,4784626347561572.0,6780439620247368.0,1692973362909.905,4732186874055.432,120332652985280.52,3748968118309801.0
34.20918973107749,2.3406450009441476e+16,3.909300385066723e+16,4832915783735513.0,6848872050695074.0,1749334574576.6868,4889728185296.014,124338737578743.67,3873788206456479.0
34.993373525699035,2.364135800196214e+16,3.957796905488459e+16,4881419104304517.0,6917607583254560.0,1807345766378.9458,5051881583601.308,128462103854265.9,4002263034159106.0
35.793240996213015,2.387729782609071e+16,4.006836014458276e+16,4930135475352466.0,6986645036158482.0,1867050945229.5674,5218770081360.734,132705880005583.61,4134490105948938.5
36.60910581613728,2.411426492263709e+16,4.056427350732136e+16,4979063955507227.0,7055983075360311.0,1928495175095.421,5390519645876.487,137073269373268.95,4270569269622457.5
37.44128793246003,2.435225420903785e+16,4.106580721647657e+16,5028203495331657.0,7125620213671234.0,1991724597910.7007,5567259257832.157,141567551931799.72,4410602762648265.5
38.29011369110923,2.4591260076449164e+16,4.157306107544126e+16,5077552936723301.0,7195554809909615.0,2056786454744.301,5749120970471.826,146192085794707.03,4554695259139186.0
39.15591596493141,2.4831276386902384e+16,4.208613666249705e+16,5127111012327081.0,7265785068068506.0,2123729107219.0051,5936239969483.888,150950308737643.97,4702953917384703.0
40.03903428423004,2.5072296470540144e+16,4.260513737638269e+16,5176876344964637.0,7336309036507169.0,2192602059180.1206,6128754633582.3,155845739739205.6,4855488427938761.0
40.93981496991464,2.5314313122953676e+16,4.313016848258082e+16,5226847447084553.0,7407124607171704.0,2263455978611.107,6326806595779.162,160881980539333.28,5012411062257224.0
41.85861126931294,2.555731860263907e+16,4.366133716034657e+16,5277022720237082.0,7478229514850995.0,2336342719793.5635,6530540805340.74,166062717215107.25,5173836721879283.0
42.7957834946992,2.580130462859267e+16,4.419875255049974e+16,5327400454577684.0,7549621336472810.0,2411315345708.7817,6740105590419.453,171391721773740.0,5339882988146719.0
