t(s),Total solute volume 1,Total retention volume 1,Total 1 volume 1,Total 2 volume 1,Total 3 volume 1,Total 4 volume 1,Total 5 volume 1,Total 6 volume 1
0.1,1038034012882719.0,1307672365282961.0,121693262551923.95,147945089848319.12,0.0,0.0,0.0,0.0
0.202,1563447133278879.2,1969649315142304.0,183289738941465.56,222829240057528.1,81465481.18715444,179873207.50139654,3213641813.922666,79727883931.56198
0.30604000000000003,1963696882323939.8,2473995324241052.5,230212766008755.44,279874563934155.62,206684965.16160113,456354067.82011807,8153379413.5432625,202295555756.99796
0.41216080000000005,2302245309095419.0,2900648529846175.0,269902277412896.03,328125948558611.6,367117707.525195,810584793.8121027,14482251782.510511,359334824964.4187
0.5204040160000001,2602887595339321.5,3279581244572036.5,305147886316956.3,370974786197800.7,558971882.0434887,1234193137.3274517,22050670398.422237,547132882539.4302
0.6308120963200001,2877482245446924.0,3625730244010392.0,337339817014973.75,410111202170318.5,780213250.8465531,1722687560.4326217,30778385093.762997,763698092268.567
0.7434283382464002,3132922239736131.0,3947777831545484.0,367286163711572.0,446517613825348.75,1029678551.2065214,2273499614.5308256,40619505645.3455,1007891588620.7162
0.8582969050113283,3373623519654042.0,4251286356974279.0,395504626519436.7,480823400222607.94,1306711197.8999665,2885179580.82396,51548130069.56885,1279070557339.7144
0.9754628431115548,3602612202066463.5,4540067660764524.0,422349970342079.0,513459856614884.25,1610981791.0223212,3557000156.51303,63551263664.62069,1576912495500.7515
1.094972099973786,3822067283917096.5,4816866649409432.0,448077648512756.06,544737543062436.1,1942388715.088257,4288736980.41026,76624897675.32356,1901317893778.6875
1.2168715419732616,4033618597694351.0,5083736586395215.0,472878733415897.9,574888750334072.0,2300998411.661222,5080536756.6110525,90771653075.7185,2252351762658.5093
1.3412089728127268,4238522551503590.5,5342260443355131.0,496900519263743.9,604092547141818.5,2687007274.617452,5932833120.338476,105999277358.5249,2630206328229.6494
1.4680331522689813,4437771760675174.5,5593688983450678.0,520259374688831.1,632490405311510.8,3100716210.67263,6846290468.329856,122319640963.9582,3035176127520.3794
1.597393815314361,4632166594391034.0,5839030874886331.0,543049130467658.75,660196396917192.6,3542513049.8095317,7821765121.581936,139748043383.1436,3467640788885.439
1.729341691620648,4822363632986769.0,6079113722649992.0,565346760381963.0,687304100625223.0,4012860048.418706,8860277732.661106,158302720166.11734,3928052798086.263
1.863928525453061,5008909523579804.0,6314626709173367.0,587216350261951.2,713891426944691.5,4512284823.750316,9962993269.25063,178004485292.8804,4416928623536.995
2.001207095962122,5192265267582262.0,6546151183914564.0,608711945317554.0,740024079788710.0,5041373675.405465,11131206268.21296,198876467711.5604,4934842178379.978
2.1412312378813647,5372824045320168.0,6774183112998011.0,629879639796424.9,765758096916147.6,5600766613.779144,12366329858.552626,220943915214.60886,5482419953595.803
2.284055862638992,5550924559242311.0,6999149884636437.0,650759141266630.5,791141751663437.4,6191153638.939362,13669887545.306591,244234047643.79276,6060337375230.813
2.4297369798917723,5726861197734506.0,7221423110238622.0,671384962164987.6,816217001535270.1,6813271955.405915,15043507059.874914,268775947015.72415,6669316077820.812
2.578331719489608,5900891897321647.0,7441328526771161.0,691787341517388.2,841020608759628.4,7467903901.14237,16488915787.314217,294600475822.55695,7310121876988.658
2.7298983538794,6073244308601195.0,7659153762797828.0,711992967798109.4,865585019083263.6,8155875431.379299,18007937418.683014,321740217220.3409,7983563285187.736
2.884496320956988,6244120691874745.0,7875154504692649.0,732025552866098.6,889939059518254.1,8878055040.655901,19602489570.96237,350229432504.7505,8690490456432.889
3.0421862473761276,6413701847686131.0,8089559447427398.0,751906292759132.5,914108498539277.6,9635353036.428003,21274582183.224483,380104032455.83307,9431794475190.906
3.2030299723236504,6582150304539720.0,8302574309877821.0,771654241403956.6,938116500410997.8,10428721098.962093,23026316544.91536,411401559976.5198,10208406925524.969
3.3670905717701234,6749612928078999.0,8514385121550935.0,791286616501702.5,961983997059484.4,11259152077.734762,24859884846.333958,444161182061.0786,11021299691760.36
3.5344323832055258,6916223074783690.0,8725160935718118.0,810819052015193.6,985729995026408.1,12127679985.963865,26777570166.58308,478423689579.73193,11871484953106.426
3.7051210308696363,7082102383503699.0,8935056086481943.0,830265808198317.8,1009371830806212.4,13035380163.410852,28781746833.058125,514231503701.43115,12760015343002.361
3.879223451487029,7247362276397184.0,9144212079909970.0,849639947557543.1,1032925384766291.2,13983369584.024305,30874881100.743687,551628688030.518,13687984250251.6
4.0568079205167695,7412105224730620.0,9352759189081054.0,868953483247192.0,1056405261554288.8,14972807289.911213,33059532110.43841,590660965726.9312,14656526243820.445
4.237944078927105,7576425822930262.0,9560817807687934.0,888217504985196.0,1079824943176533.2,16004894936.920187,35338353093.41777,631375741029.4272,15666817606895.217
4.422702960505647,7740411705133908.0,9768499605330974.0,907442286504449.6,1103196919628984.6,17080877440.08467,37714092796.58666,673822124718.1992,16720076968694.293
4.61115701971576,7904144331502523.0,9975908518832614.0,926637377735573.2,1126532800965740.5,18202043709.50894,40189597107.328125,718050963145.4504,17817566024815.562
4.803380160110075,8067699666154701.0,1.018314160710761e+16,945811684284114.5,1149843413921200.2,19369727469.13581,42767810861.35519,764114870535.5709,18960590338717.97
4.9994477633122765,8231148764386055.0,1.039028979183269e+16,964973536272867.2,1173138885603098.0,20585308152.322063,45451779820.152336,812068264315.3513,20150500218390.793
5.199436718578522,8394558283537879.0,1.05974385020062e+16,984130748233211.9,1196428716303713.5,21850211869.350094,48244652807.25344,861967403282.0526,21388691663442.24
5.403425452950093,8557990929271645.0,1.0804668237204024e+16,1003290671423837.0,1219721843104850.0,23165912442.982746,51149683994.75868,913870428455.7561,22676607378796.227
5.611493962009095,8721505846928759.0,1.101205506172273e+16,1022460239711563.1,1243026695656118.2,24533932508.9727,54170235333.27124,967837406494.1522,24015737851973.89
5.823723841249277,8885158965989747.0,1.1219671039703196e+16,1041646009953777.2,1266351245268724.8,25955844679.10137,57309779119.89955,1023930375574.0817,25407622491585.535
6.040198318074262,9049003304302862.0,1.1427584619635188e+16,1060854197664493.8,1289703048275481.8,27433272764.87581,60571900700.19342,1082213393666.0415,26853850825201.234
6.261002284435747,9213089237661978.0,1.1635860975271048e+16,1080090708618154.8,1313089284452184.5,28967893060.476067,63960301300.90621,1142752589146.113,28356063755222.633
6.486222330124463,9377464739423020.0,1.184456230885484e+16,1099361166940893.5,1336516791168796.5,30561435683.938805,67478800991.342354,1205616213705.291,29915954871762.684
6.715946776726952,9542175594117616.0,1.205374812165276e+16,1118670940153416.9,1359992093834596.5,32215685975.895588,71131341771.78883,1270874697529.3477,31535271821865.402
6.950265712261491,9707265588420644.0,1.2263475456013428e+16,1138025161558952.8,1383521433115665.2,33932485955.471878,74921990788.15721,1338600706733.7007,33215817734682.29
7.18927102650672,9872776682328282.0,1.247379911255644e+16,1157428750311192.5,1407110789331957.8,35713735833.20035,78854943672.51418,1408869203047.4614,34959452702458.555
7.433056447036854,1.0038749162988144e+16,1.2684771845565198e+16,1176886429448494.5,1430765904381826.2,37561395581.01564,82934528009.65253,1481757505749.4197,36768095317399.86
7.681717575977592,1.0205221783275524e+16,1.289644453922178e+16,1196402742139758.5,1454492301492483.2,39477486559.59217,87165206930.27405,1557345355866.145,38643724264669.164
7.935351927497144,1.0372231886917438e+16,1.3108866366954638e+16,1215982066353293.5,1478295303053273.2,41464093203.446205,91551582831.7189,1635714982648.9365,40588379971932.66
8.194058966047088,1.053981552172114e+16,1.3322084935859992e+16,1235628628131046.0,1502180046753427.8,43523364764.38028,96098401227.51888,1716951172352.4282,42604166316016.445
8.45794014536803,1.0708007542254514e+16,1.3536146417895946e+16,1255346513626311.8,1526151500216561.0,45657517113.97795,100810554727.33374,1801141339342.6746,44693252387368.74
8.72709894827539,1.087684170315016e+16,1.3751095669325528e+16,1275139680042164.8,1550214474298758.8,47868834605.97951,105693087149.10657,1888375599567.6177,46857874313139.07
9.0016409272409,1.1046350727113168e+16,1.3966976340334554e+16,1295011963611253.5,1574373632814674.0,50159671936.26952,110751197846.40994,1978746950116.2063,49100358975566.984
9.281673745785717,1.1216566450211726e+16,1.4183830972703346e+16,1314967096601024.5,1598633513111392.8,52532456378.89822,115990245769.1161,2072350935265.877,51423039141800.18
9.567307220701432,1.1387519790864364e+16,1.4401701093127418e+16,1335008703719783.2,1622998521849099.5,54989689460.31351,121415754467.06268,2169286342001.9705,53828384908255.47
9.85865336511546,1.1559240882629118e+16,1.462062729630867e+16,1355140317656209.8,1647472953792690.0,57533949319.320335,127033416434.71909,2269654875937.5405,56318919988949.9
10.155826432417769,1.1731759116590464e+16,1.4840649322034632e+16,1375365384055555.2,1672060997886514.8,60167892823.37651,132849097999.30302,2373561348489.715,58897245162773.13
10.458942961066125,1.1905103195919206e+16,1.5061806126206286e+16,1395687267915969.8,1696766745030500.5,62894257813.3787,138868844277.31763,2481113765437.646,61566040473071.164
10.768121820287448,1.2079301186049428e+16,1.528413594641187e+16,1416109259470910.2,1721594195231573.8,65715865416.85999,145098884282.14572,2592423418178.202,64328067492042.2
11.083484256693197,1.225438056089014e+16,1.5507676362576852e+16,1436634579606789.0,1746547264189948.5,68635622431.134,151545636186.09326,2707604977740.9824,67186171653606.51
11.405153941827061,1.2430368245443314e+16,1.5732464353160278e+16,1457266384859240.8,1771629789373264.8,71656523777.99593,158215712740.42917,2826776591626.38,70143284656323.44
11.733257020663602,1.2607290655160702e+16,1.5958536347317046e+16,1478007772027096.5,1796845535625826.8,74781655031.66212,165115926857.14294,2950059983532.951,73202426938003.19
12.067922161076874,1.2785173732334056e+16,1.6185928273399938e+16,1498861782438580.2,1822198200355152.8,78014195021.6952,172253297356.28146,3077580556043.027,76366710223724.52
12.409280604298411,1.2964042979783836e+16,1.641467560413678e+16,1519831405900766.5,1847691418333413.8,81357418512.72754,179635054882.84894,3209467496338.063,79639340149030.1
12.75746621638438,1.314392349208264e+16,1.6644813398782336e+16,1540919584360059.5,1873328766147512.0,84814698962.86093,187268647997.44675,3345853885017.9526,83023618960143.47
13.112615540712067,1.3324839984525684e+16,1.6876376342514328e+16,1562129215298506.0,1899113766328126.5,88389511362.68916,195161749444.91568,3486876808100.833,86522948293104.84
13.474867851526309,1.3506816820039264e+16,1.7109398783316346e+16,1583463154888430.2,1925049891184787.0,92085435156.94382,203322262605.43277,3632677472282.588,90140832033792.05
13.844365208556836,1.3689878034198798e+16,1.7343914766565462e+16,1604924220925343.2,1951140566371547.0,95906157250.83717,211758328132.61862,3783401323537.6895,93880879260853.67
14.221252512727972,1.3874047358510782e+16,1.7579958067522174e+16,1626515195557467.5,1977389174205259.0,99855475103.23503,220478330783.37177,3939198169145.6934,97746807273640.81
14.605677562982532,1.4059348242099078e+16,1.7817562221900394e+16,1648238827828049.5,2003799056756387.5,103937299908.85602,229490906444.28442,4100222303229.7275,101742444707289.56
14.997791114242183,1.4245803871921324e+16,1.805676055467941e+16,1670097836045454.2,2030373518730310.0,108155659871.75552,238804949359.62112,4266632635896.4956,105871734737166.48
15.397746936527026,1.4433437191629862e+16,1.8297586207303816e+16,1692094909994294.5,2057115830155501.0,112514703572.42137,248429619566.00128,4438592826069.259,110138738374950.45
15.805701875257567,1.4622270919180858e+16,1.8540072163404696e+16,1714232712999851.8,2084029228893243.0,117018703430.86441,258374350539.0468,4616271418108.051,114547637858690.66
16.221815912762718,1.4812327563285954e+16,1.8784251273162976e+16,1736513883856742.8,2111116922982384.5,121672059268.16248,268648857057.4239,4799841982313.894,119102740139237.64
16.64625223101797,1.500362943879168e+16,1.9030156276425104e+16,1758941038631936.2,2138382092831270.2,126479301968.966,279263143289.8206,4989483259416.223,123808480465516.73
17.079177275638333,1.5196198681064364e+16,1.9277819824672172e+16,1781516772351147.0,2165827893267955.2,131445097247.5545,290227511110.5732,5185379309145.548,128669426071164.17
17.5207608211511,1.5390057259451742e+16,1.9527274501933852e+16,1804243660577014.0,2193457455458810.5,136574249520.08774,301552568649.7844,5387719662995.573,133690279965125.38
17.97117603757412,1.558522698988571e+16,1.9778552844732104e+16,1827124260886553.2,2221273888704726.8,141871705885.7681,313249239083.92487,5596699481282.182,138875884828866.4
18.430599558325603,1.5781729546685172e+16,2.0031687361130784e+16,1850161114254892.8,2249280282123282.8,147342560219.69293,325328769673.0622,5812519714608.676,144231227022926.88
18.899211549492115,1.5979586473613294e+16,2.0286710548963416e+16,1873356746351517.5,2277479706224699.5,152992057380.24728,337802741051.01196,6035387269850.011,149761440705596.8
19.37719578048196,1.617881919423778e+16,2.054365491330273e+16,1896713668754887.0,2305875214388418.0,158825597533.95657,350683076774.84515,6265515180770.766,155471812066581.56
19.864739696091597,1.6379449021640044e+16,2.0802552983233336e+16,1920234380090669.2,2334469844246916.5,164848740600.77954,363982053140.34906,6503122783395.062,161367783678568.78
20.36203449001343,1.6581497167514444e+16,2.1063437327981524e+16,1943921367098477.8,2363266618982509.5,171067210822.90692,377712309270.2022,6748435896248.701,167454958969699.0
20.869275179813698,1.678498475069515e+16,2.1326340572453904e+16,1967777105631526.8,2392268548542725.0,177486901460.17767,391886857481.7463,7001687005596.987,173739106819991.4
21.38666068340997,1.6989932805146038e+16,2.159129541223253e+16,1991804061593312.8,2421478630778968.5,184113879615.33337,406519093941.4407,7263115455804.62,180226166284864.25
21.91439389707817,1.7196362287445196e+16,2.185833462806829e+16,2016004691815066.8,2450899852513313.5,190954391192.3545,421622809613.19354,7532967644946.178,186922251448939.28
22.452681775019734,1.740429408379371e+16,2.212749109991524e+16,2040381444877398.8,2480535190537401.5,198014865991.2439,437212201507.9856,7811497225799.565,193833656413414.72
23.00173541052013,1.7613749016575376e+16,2.239879782054196e+16,2064936761879358.0,2510387612547351.5,205301922942.65482,453301884242.2884,8098965312356.911,200966860420338.56
23.561770118730532,1.7824747850492758e+16,2.2672287908755412e+16,2089673077157751.2,2540460078018289.5,212822375485.86905,469906901913.02106,8395640691990.701,208328533117203.72
24.133005521105144,1.8037311298301788e+16,2.294799462226912e+16,2114592818959473.0,2570755539021707.5,220583237093.67444,487042740296.89075,8701800043415.685,215925539965349.5
24.715665631527248,1.8251460026166696e+16,2.3225951370247228e+16,2139698410069258.8,2601276940988632.5,228591726947.7961,504725339382.1666,9017728160590.281,223764947795735.28
25.309978944157795,1.8467214658654056e+16,2.350619172555105e+16,2164992268395173.0,2632027223421417.5,236855275768.5836,522971106241.0879,9343718182703.836,231854030515712.8
25.91617852304095,1.8684595783384484e+16,2.3788749436716144e+16,2190476807513943.5,2663009320556729.0,245381531802.753,541796928251.279,9680071830399.656,240200274970515.66
26.53450209350177,1.8903623955357656e+16,2.407365843968283e+16,2216154437177991.5,2694226161981931.0,254178366973.05222,561220186674.716,10027099648386.094,248811386963239.94
27.165192135371807,1.912431970096645e+16,2.436095286930537e+16,2242027563786072.8,2725680673207269.0,263253883193.78937,581258770602.9598,10385121254591.557,257695297437183.62
27.808495978079243,1.934670352171447e+16,2.4650667070659732e+16,2268098590819020.0,2757375776195595.5,272616418856.25723,601931091277.5297,10754465596022.04,266860168824466.8
28.464665897640828,1.957079589764863e+16,2.49428356101713e+16,2294369919242227.0,2789314389851715.0,282274555488.1416,623256096794.492,11135471211483.04,276314401564953.72
29.133959215593645,1.9796617290520056e+16,2.5237493286581756e+16,2320843947876200.5,2821499430472813.0,292237124591.10754,645253287202.4752,11528486501330.75,286066640799542.9
29.816638399905518,2.002418814668348e+16,2.553467514177272e+16,2347523073736447.5,2853933812161740.0,302513214660.80817,667942730003.5262,11933870004420.178,296125783242003.4
30.51297116790363,2.025352889974488e+16,2.5834416471463556e+16,2374409692343880.0,2886620447204294.5,313112178393.6549,691345076066.3715,12351990682421.668,306500984233570.6
31.223230591261704,2.0484659972967596e+16,2.6136752835799096e+16,2401506198006907.5,2919562246412240.0,324043640084.7667,715481575961.8269,12783228211679.365,317201664984622.56
31.947695203086937,2.071760178144384e+16,2.644172006984312e+16,2428814984076001.5,2952762119432733.5,335317503221.58044,740374096730.2859,13227973282789.006,328237520007801.0
32.686649107148675,2.0952374734040664e+16,2.674935429399062e+16,2456338443171808.0,2986222975025683.0,346943958277.6918,766045139091.3638,13686627908075.094,339618524747050.94
33.44038208929165,2.1188999235125524e+16,2.705969192431277e+16,2484078967387507.5,3019947721309714.0,358933490711.5695,792517855105.913,14159605737150.324,351354943407084.6
34.20918973107749,2.142749568607938e+16,2.7372769682847404e+16,2512038948466127.5,3053939265977797.5,371296889174.8519,819816066300.8877,14647332380743.344,363457336987855.8
34.993373525699035,2.1667884486600996e+16,2.768862460784553e+16,2540220777953478.0,3088200516483122.0,384045253935.01385,847964282267.5691,15150245742983.44,375936571528730.75
35.793240996213015,2.1910186035807652e+16,2.8007294063985492e+16,2568626847327231.5,3122734380196023.0,397190005517.2648,876987719743.8903,15668796362333.547,388803826567045.2
36.60910581613728,2.215442073313573e+16,2.8328815752563484e+16,2597259548102452.0,3157543764532323.5,410742893570.58167,906912322191.744,16203447761365.78,402070603815856.9
37.44128793246003,2.2400608979044316e+16,2.8653227721669068e+16,2626121271914084.0,3192631577053557.0,424716005962.8734,937764779880.2194,16754676805575.096,415748736065712.2
38.29011369110923,2.2648771175522236e+16,2.8980568376353304e+16,2655214410576414.5,3228000725539300.0,439121778110.292,969572550485.9454,17322974071430.576,429850396315320.06
39.15591596493141,2.2898927726400332e+16,2.931087648879436e+16,2684541356119705.5,3263654118031656.5,453973002545.78925,1002363880221.7157,17908844223863.453,444388107136063.9
40.03903428423004,2.3151099037467764e+16,2.964419120846629e+16,2714104500803760.0,3299594662851812.0,469282838732.0195,1036167825504.7086,18512806403394.383,459374750275313.9
40.93981496991464,2.340530551638951e+16,2.9980552072311064e+16,2743906237108304.5,3335825268588318.5,485064823123.7451,1071014275175.6849,19135394623102.418,474823576503513.6
41.85861126931294,2.3661567572421668e+16,3.031999901491612e+16,2773948957699596.0,3372348844056445.5,501332879484.89777,1106933973280.5222,19777158175639.12,490748215710047.5
42.7957834946992,2.391990561591797e+16,3.0662572378693724e+16,2804235055372581.5,3409168298227924.0,518101329465.4568,1143958542425.5046,20438662050490.668,507162687252859.1
43.751699164593184,2.418034005761989e+16,3.1008312924056904e+16,2834766922967643.0,3446286540129714.0,535384903443.2631,1182120507717.6838,21120487361690.582,524081410566794.0
