t(s),Total solute volume 1,Total retention volume 1,Total 1 volume 1,Total 2 volume 1,Total 3 volume 1,Total 4 volume 1,Total 5 volume 1,Total 6 volume 1
0.1,898666397951953.1,1036126891881881.2,66325422320955.914,71135071608968.8,0.0,0.0,0.0,0.0
0.202,1348134068105733.5,1565981989893757.8,99498058202059.8,106713252295003.45,22117068964.430794,40270836356.92548,538852749890.5828,11035370635751.604
0.30604000000000003,1685990631150985.0,1973276995290054.2,124433317090635.42,133456714700008.58,55870946590.19919,101730891019.73943,1361236312794.8823,27877494198019.727
0.41216080000000005,1968001001722035.8,2321012618747967.0,145246888192298.56,155779601271864.56,98802451704.58661,179902967473.61646,2407241516398.6465,49299180626191.7
0.5204040160000001,2215107872044752.5,2632731675797445.0,163484431742085.78,175339657253891.75,149764948140.92685,272699686725.88855,3648937828053.753,74728312293789.03
0.6308120963200001,2437773976324178.5,2920149550706261.0,179918142259869.1,192965073573752.78,208097461211.34604,378917938759.659,5070227015480.648,103835116133010.78
0.7434283382464002,2642094496401281.5,3190072180504719.0,194997870226243.84,209138322039155.56,273378802533.96423,497791209470.50964,6660852864909.24,136409468961124.45
0.8582969050113283,2831981402855633.5,3446861135965914.0,209012335795970.12,224169059615742.47,345326123803.2704,628804875828.5199,8413929675428.033,172310277023511.84
0.9754628431115548,3010119149747240.5,3693509075392908.5,222159663156248.06,238269777650492.5,423744695344.3783,771604767815.6237,10324718744885.715,211440416630883.5
1.094972099973786,3178442452372669.0,3932175887794642.0,234582642567948.3,251593620972831.47,508499937592.9331,925946246870.7811,12389947000408.67,253732778696317.34
1.2168715419732616,3338399002587626.0,4164482690641350.0,246388119879695.12,264255183457421.47,599500500637.353,1091663399765.7277,14607394789607.514,299141826026596.1
1.3412089728127268,3491104664699253.5,4391685036729820.0,257658450648278.8,276342792750788.8,696687377628.4095,1268649218431.2913,16975630672484.621,347638161362955.7
1.4680331522689813,3637440441628156.5,4614780847436651.0,268458656655997.22,287926185750191.5,800026558908.4199,1456842226410.594,19493832474234.52,399204862142749.3
1.597393815314361,3778115854058167.0,4834580777839846.0,278841103562894.56,299061525460157.3,909503883916.6685,1656217106824.951,22161661881375.957,453834911886511.9
1.729341691620648,3913711932313816.5,5051755827100486.0,288848673891130.44,309794804068772.8,1025121320400.103,1866777929051.751,24979173810647.996,511529343766662.9
1.863928525453061,4044711299622590.5,5266870571939006.0,298516987298360.06,320164224226245.44,1146894205738.119,2088553127141.6333,27946749217525.766,572295864241406.4
2.001207095962122,4171519786407483.5,5480406987785993.0,307875995804934.25,330201909951498.1,1274849157392.353,2321591696532.818,31065044206491.48,636147810561653.2
2.1412312378813647,4294482317198696.0,5692781917945990.0,316951156315914.3,339935164180695.56,1409022461271.4922,2565960260930.2573,34334950784791.98,703103346743692.5
2.284055862638992,4413894821362526.0,5904360142157472.0,325764309683781.0,349387411576012.25,1549458809378.8635,2821740775152.6577,37757566125949.4,773184833824673.5
2.4297369798917723,4530013319492651.0,6115464325841402.0,334334351322964.7,358578917770397.56,1696210297909.218,3089028702211.944,41334168178888.78,846418330076387.4
2.578331719489608,4643060962776869.0,6326382713224732.0,342677750745212.44,367527346577524.06,1849335623026.093,3367931550345.8433,45066196093541.984,922833189858210.9
2.7298983538794,4753233561924314.0,6537375159189767.0,350808959618042.4,376248197640992.25,2008899429065.445,3658567687612.455,48955234360474.305,1002461738529271.9
2.884496320956988,4860703983606035.0,6748677918138624.0,358740736240875.2,384755154440143.56,2174971775949.826,3961065373574.3745,53002999855371.016,1085339006846677.9
3.0421862473761276,4965625685478952.0,6960507489371803.0,366484406444890.3,393060364109310.3,2347627701041.017,4275561962972.7256,57211331184921.38,1171502512489726.8
3.2030299723236504,5068135587394175.0,7173063736947030.0,374050075500505.75,401174664711968.7,2526946856689.2695,4602203247271.136,61582179877549.555,1260992079358886.2
3.3670905717701234,5168356424975937.0,7386532445007113.0,381446801821543.06,409107771541218.7,2713013209114.303,4941142907918.34,66117603069072.63,1353849687482305.5
3.5344323832055258,5266398695178198.0,7601087429088763.0,388682740555630.4,416868431122778.8,2905914787477.9453,5292542061049.904,70819757411933.4,1450119347971680.5
3.7051210308696363,5362362277016134.0,7816892294741219.0,395765263201116.7,424464549506036.7,3105743474415.828,5656568877732.166,75690893995298.06,1549846998670487.2
3.879223451487029,5456337791337147.0,8034101913451089.0,402701057963987.6,431903299898429.9,3312594831115.197,6033398267165.482,80733354107653.66,1653080417045604.8
4.0568079205167695,5548407749166389.0,8252863670080268.0,409496214510674.94,439191213564195.2,3526567951416.8926,6423211612795.61,85949565707414.84,1759869147567402.0
4.237944078927105,5638647527417955.0,8473318524202070.0,416156295979707.5,446334257058005.2,3747765340493.987,6826196553238.984,91342040493235.95,1870264441359434.5
4.422702960505647,5727126202619440.0,8695601918771931.0,422686400514154.2,453337898219496.3,3976292814497.0093,7242546801451.978,96913371486122.33,1984319206316762.5
4.61115701971576,5813907267064893.0,8919844562730396.0,429091214116773.56,460207162861253.3,4212259418214.9507,7672461996774.871,102666231051499.58,2102087966220991.8
4.803380160110075,5899049246996197.0,9146173108858864.0,435375056274443.75,466946683701745.3,4455777358323.841,8116147585432.84,108603369302125.77,2223626827640574.0
4.9994477633122765,5982606238661102.0,9374710744103062.0,441541919521530.9,473560742797660.9,4706961950212.495,8573814725836.913,114727612832926.39,2348993453613793.0
5.199436718578522,6064628375148280.0,9605577706358220.0,447595503894319.8,480053308496840.44,4965931576711.279,9045680215640.455,121041863747008.97,2478247043279425.0
5.403425452950093,6145162234568607.0,9838891739163666.0,453539247056536.5,486428067748370.25,5232807657322.687,9531966438003.096,127549098938769.45,2611448316756065.0
5.611493962009095,6224251198291541.0,1.0074768493728912e+16,459376350738714.75,492688454459238.25,5507714626774.038,10032901324918.795,134252369605415.86,2748659504682301.0
5.823723841249277,6301935766454378.0,1.0313321886088252e+16,465109804024144.4,498837674468869.0,5790779921895.756,10548718335796.701,141154800962672.06,2889944341920483.0
6.040198318074262,6378253836757728.0,1.0554664415872464e+16,470742403925158.06,504878727617526.8,6082133975978.498,11079656449757.398,148259592144100.2,3035368065002227.0
6.261002284435747,6453240951581975.0,1.0798907452123036e+16,476276773621381.7,510814427307133.5,6381910219887.351,11625960170334.963,155570016266512.97,3184997412955823.0
6.486222330124463,6526930517660652.0,1.1046161490708054e+16,481715378672580.9,516647417889795.9,6690245089314.967,12187879541462.95,163089420646477.12,3338900631207764.0
6.715946776726952,6599354001890565.0,1.1296536387188334e+16,487060541470269.44,522380190167391.0,7007278037642.82,12765670173782.727,170821227155042.22,3497147478293649.5
6.950265712261491,6670541106316738.0,1.155014156839651e+16,492314454152357.3,528015095242730.44,7333151553952.463,13359593280444.795,178768932699602.5,3659809235150681.5
7.18927102650672,6740519924881621.0,1.1807086225505962e+16,497479190171906.8,533554356927240.75,7668011185790.666,13969915721686.354,186936109823299.47,3826958716794423.0
7.433056447036854,6809317084153861.0,1.206747949096427e+16,502556714683523.5,539000082880521.3,8012005566344.84,14596910057564.303,195326407413675.03,3998670286208771.0
7.681717575977592,6876957869938823.0,1.2331430601326724e+16,507548893887747.44,544354274632366.1,8365286445728.659,15240854608303.525,203943551513343.7,4175019870300385.0
7.935351927497144,6943466341410653.0,1.2599049047744076e+16,512457503454490.5,549618836617024.94,8728008726117.693,15902033521790.518,212791346226398.7,4356084977787609.0
8.194058966047088,7008865434183414.0,1.2870444715619268e+16,517284236130129.3,554795584331936.6,9100330500505.21,16580736847800.742,221873674715062.3,4541944718910424.0
8.45794014536803,7073177053551941.0,1.314572801474647e+16,522030708619070.75,559886251718317.75,9482413094878.293,17277260618601.281,231194500281771.9,4732679826861883.0
8.72709894827539,7136422158972715.0,1.3425010001075112e+16,526698467818813.06,564892497848360.9,9874421113637.418,17991906935612.094,240757867532487.66,4928372680853514.0
9.0016409272409,7198620840719954.0,1.3708402491095838e+16,531288996477485.8,569815912993038.0,10276522488103.887,18724984061850.086,250567903617520.53,5129107330737871.0
9.281673745785717,7259792389535480.0,1.3996018169719716e+16,535803718334304.6,574658024135325.4,10688888527978.094,19476806519911.867,260628819546636.84,5334969523120078.0
9.567307220701432,7319955359990945.0,1.4287970692417818e+16,540244002795988.25,579420299985727.5,11111693975626.826,20247695195280.62,270944911575558.88,5546046728898717.0
9.85865336511546,7379127628195869.0,1.4584374782294062e+16,544611169195841.6,584104155550215.8,11545117063091.973,21037977444768.547,281520562661358.6,5762428172182906.0
10.155826432417769,7437326444409917.0,1.4885346322686374e+16,548906490676773.94,588710956294829.5,11989339571725.34,21847987209927.426,292360243984503.9,5984204860538675.0
10.458942961066125,7494568481054313.0,1.519100244582347e+16,553131197734754.4,593242021946082.5,12444546894364.605,22678065135281.887,303468516535612.0,6211469616523051.0
10.768121820287448,7550869876561547.0,1.5501461618004046e+16,557286481455095.4,597698629961925.2,12910928099974.86,23528558691253.96,314850032765184.56,6444317110469087.0
11.083484256693197,7606246275453565.0,1.5816843721714496e+16,561373496470398.4,602082018704214.2,13388676000689.05,24399822301667.285,326509538294797.06,6682843894489165.0
11.405153941827061,7660712864997015.0,1.6137270135056106e+16,565393363665873.8,606393390340172.2,13877987221187.424,25292217475728.473,338451873688418.3,6927148437667704.0
11.733257020663602,7714284408746491.0,1.6462863808814118e+16,569347172654966.0,610633913497562.5,14379062270363.021,26206112944399.883,350681976282711.8,7177331162417623.0
12.067922161076874,7766975277254742.0,1.6793749341465946e+16,573235984045905.9,614804725695597.1,14892105615225.973,27141884801086.176,363204882075257.3,7433494481978127.0
12.409280604298411,7818799476199951.0,1.7130053052396062e+16,577060831517619.9,618906935571374.9,15417325757004.938,28099916646568.188,376025727669862.25,7695742839033675.0
12.75746621638438,7869770672155170.0,1.7471903053559108e+16,580822723721626.5,622941624919710.4,15954935309408.64,29080599738126.348,389149752278161.5,7964182745436913.0
13.112615540712067,7919902216203046.0,1.7819429319808958e+16,584522646024905.5,626909850562365.8,16505151079014.486,30084333142804.66,402582299776876.1,8238922823019936.0
13.474867851526309,7969207165578695.0,1.817276375809091e+16,588161562107229.5,630812646061241.5,17068194147755.877,31111523894773.344,416328820820178.9,8520073845481036.0
13.844365208556836,8017698303506982.0,1.853204027567656e+16,591740415425243.9,634651023288605.8,17644289957482.44,32162587156755.02,430394875006699.5,8807748781334850.0
14.221252512727972,8065388157384222.0,1.8897394847604492e+16,595260130554351.5,638425973866298.1,18233668396571.64,33237946385485.797,444786133100813.6,9102062837916710.0
14.605677562982532,8112289015441071.0,1.9268965583474364e+16,598721614418514.8,642138470484696.0,18836563888572.336,34338033501189.54,459508379307911.75,9403133506432418.0
14.997791114242183,8158412942010788.0,1.964689279373338e+16,602125757417103.8,645789468111302.8,19453215482864.48,35463289061046.32,474567513603436.4,9711080608046852.0
15.397746936527026,8203771791516105.0,2.0031319055576356e+16,605473434457192.4,649379905097879.1,20083866947320.94,36614162436645.06,489969554115532.56,1.0026026341005716e+16
15.805701875257567,8248377221278000.0,2.0422389278577304e+16,608765505898913.0,652910704194360.4,20728766862959.434,37791111995411.516,505720639561236.25,1.034809532878644e+16
16.221815912762718,8292240703241117.0,2.0820250770155936e+16,612002818420821.0,656382773476976.1,21388168720577.453,38994605286009.51,521827031736164.75,1.0677414669274302e+16
16.64625223101797,8335373534702122.0,2.1225053300978696e+16,615186205811707.1,659797007197476.8,22062331019360.29,40225119227717.19,538295118057755.9,1.1014113984962604e+16
17.079177275638333,8377786848120451.0,2.163694917038344e+16,618316489694675.5,663154286559716.8,22751517367459.02,41483140303782.36,555131414162130.6,1.1358325474175214e+16
17.5207608211511,8419491620084414.0,2.2056093271912228e+16,621394480188868.8,666455480429374.0,23455996584534.492,42769164758769.7,572342566554732.2,1.1710183963311536e+16
17.97117603757412,8460498679499472.0,2.248264315903108e+16,624420976513804.9,669701445982103.8,24176042806264.86,44083698799907.03,589935355314932.1,1.2069826960114554e+16
18.430599558325603,8500818715060593.0,2.2916759111108444e+16,627396767540871.4,672893029295025.4,24911935590817.883,45427258802455.586,607916696854825.1,1.2437394707963854e+16
18.899211549492115,8540462282065295.0,2.3358604199722184e+16,630322632296147.6,676031065886012.9,25663960027288.11,46800371519115.91,626293646732523.4,1.2813030241195806e+16
19.37719578048196,8579439808619994.0,2.3808344355357744e+16,633199340418475.6,679116381204970.2,26432406846102.895,48203574293498.49,645073402520261.2,1.319687944145446e+16
19.864739696091597,8617761601287980.0,2.426614843455859e+16,636027652576284.4,682149791080899.5,27217572531400.234,49637415277682.95,664263306727692.0,1.358909109507664e+16
20.36203449001343,8655437850223995.0,2.473218828758549e+16,638808320846561.9,685132102128342.5,28019759435385.496,51102453653897.05,683870849780784.2,1.3989816951516478e+16
20.869275179813698,8692478633836450.0,2.52066388266384e+16,641542089058935.4,688064112116417.8,28839275894671.695,52599259860346.29,703903673056786.6,1.4399211782814824e+16
21.38666068340997,8728893923016193.0,2.5689678094691676e+16,644229693107776.8,690946610303550.5,29676436348613.953,54128415821231.25,724369571975740.0,1.4817433444118584e+16
21.91439389707817,8764693584966796.0,2.618148733499045e+16,646871861234898.5,693780377740676.5,30531561459643.76,55690515180989.98,745276499149081.2,1.524464293525834e+16
22.452681775019734,8799887386669826.0,2.6682251061255096e+16,649469314285293.5,696566187545530.6,31404978235616.38,57286163542806.82,766632567585914.2,1.5681004463390058e+16
23.00173541052013,8834484998015271.0,2.719215712863651e+16,652022765938182.1,699304805150439.2,32297020154180.13,58915978711431.734,788446053957537.6,1.6126685506709436e+16
23.561770118730532,8868495994625707.0,2.7711396805465004e+16,654532922915454.5,701996988525877.6,33208027289180.74,60580590940356.92,810725401920901.5,1.6581856879247532e+16
24.133005521105144,8901929860400588.0,2.824016484583215e+16,657000485169434.8,704643488381857.2,34138346439113.21,62280643183397.586,833479225501646.1,1.7046692796756102e+16
24.715665631527248,8934795989805074.0,2.87786595630445e+16,659426146051813.4,707245048349108.6,35088331257634.89,64016791350731.57,856716312537461.2,1.7521370943692654e+16
25.309978944157795,8967103689925868.0,2.9327082903986028e+16,661810592465383.8,709802405141809.9,36058342386154.59,65789704569449.35,880445628182492.0,1.8006072541314868e+16
25.91617852304095,8998862182315792.0,2.9885640524425504e+16,664154505000168.5,712316288703597.8,37048747588513.1,67600065448671.45,904676318473591.4,1.8500982416895148e+16
26.53450209350177,9030080604646104.0,3.0454541865302332e+16,666458558055371.0,714787422338353.0,38059921887770.12,69448570349293.484,929417713959226.0,1.90062890740662e+16
27.165192135371807,9060768012185126.0,3.1034000230024816e+16,668723419948508.4,717216522827261.4,39092247705116.11,71335929658416.45,954679333391876.5,1.952218476430849e+16
27.808495978079243,9090933379120066.0,3.1624232862813156e+16,670949753012964.4,719604300533418.0,40146115000923.94,73262868068529.31,980470887484826.5,2.0048865559592452e+16
28.464665897640828,9120585599737830.0,3.2225461028118412e+16,673138213685140.0,721951459495311.8,41221921417959.96,75230124861507.5,1006802282734226.0,2.0586531426186444e+16
29.133959215593645,9149733489479158.0,3.2837910091147044e+16,675289452582250.2,724258697510272.8,42320072426772.3,77238454197494.23,1033683625307370.1,2.1135386299643764e+16
29.816638399905518,9178385785880182.0,3.3461809599522476e+16,677404114571818.0,726526706208982.9,43440981473274.32,79288625408736.84,1061125224998205.5,2.169563816098131e+16
30.51297116790363,9206551149413326.0,3.409739336611027e+16,679482838833736.4,728756171122054.8,44585070128542.84,81381423298446.19,1089137599250980.8,2.22674991140632e+16
31.223230591261704,9234238164239878.0,3.474489955303671e+16,681526258915807.1,730947771739599.5,45752768240851.29,83517648444756.97,1117731477253128.9,2.285118546420273e+16
31.947695203086937,9261455338884560.0,3.540457075692744e+16,683535002783531.2,733102181564613.5,46944514089955.9,85698117509862.64,1146917804098412.0,2.3446917797996544e+16
32.686649107148675,9288211106842358.0,3.607665409539304e+16,685509692864897.9,735220068161027.4,48160754543655.98,87923663554401.17,1176707745021393.2,2.4054921064405308e+16
33.44038208929165,9314513827126876.0,3.67614012947878e+16,687450946090848.0,737302093197098.2,49401945216647.914,90195136357173.52,1207112689704381.5,2.467542465709472e+16
34.20918973107749,9340371784768698.0,3.745906877926689e+16,689359373932063.4,739348912484873.4,50668550631693.16,92513402740275.4,1238144256657914.8,2.5308662498051412e+16
34.993373525699035,9365793191271734.0,3.816991776116811e+16,691235582432635.2,741361176016291.6,51961044383119.69,94879346899723.61,1269814297675992.8,2.5954873122488624e+16
35.793240996213015,9390786185034826.0,3.889421433274096e+16,693080172241197.8,743339527996578.1,53279909302679.125,97293870741663.75,1302134902367211.2,2.6614299765056884e+16
36.60910581613728,9415358831745388.0,3.963222955924872e+16,694893738639964.6,745284606875386.4,54625637627776.26,99757894224244.64,1335118402763003.8,2.728719044737302e+16
37.44128793246003,9439519124751078.0,4.038423957346569e+16,696676871572169.4,747197045376230.8,55998731172093.71,102272355705245.62,1368777378004219.8,2.7973798066884644e+16
38.29011369110923,9463274985415646.0,4.115052567159367e+16,698430155668319.9,749077470524643.1,57399701498629.87,104838212295549.48,1403124659107260.5,2.8674380487083612e+16
39.15591596493141,9486634263463430.0,4.193137441061965e+16,700154170271638.8,750926503675457.2,58829070095170.53,107456440218546.98,1438173333811100.5,2.9389200629084308e+16
40.03903428423004,9509604737317986.0,4.272707770713683e+16,701849489463041.2,752744760539595.9,60287368552211.49,110128035175570.17,1473936751506373.2,3.011852656458195e+16
40.93981496991464,9532194114438904.0,4.353793293764983e+16,703516682085992.8,754532851210739.5,61775138743352.19,112854012717442.78,1510428528247961.8,3.08626316102054e+16
41.85861126931294,9554410031660424.0,4.436424304038762e+16,705156311771518.8,756291380192139.4,63292933008177.57,115635408622246.48,1547662551852310.5,3.1621794423280864e+16
42.7957834946992,9576260055536268.0,4.520631661864116e+16,706768936963628.2,758020946423888.8,64841314337646.164,118473279279394.95,1585652987080860.8,3.2396299099019468e+16
43.751699164593184,9597751682692978.0,4.606446804564843e+16,708355110945417.0,759722143310920.5,66420856561999.086,121368702080115.77,1624414280910933.8,3.318643526914602e+16
44.72673314788505,9618892340195598.0,4.693901757104616e+16,709915381866035.8,761395558751931.8,68032144541209.55,124322775814435.39,1663961167895463.2,3.3992498201981496e+16
