t(s),Total solute volume 1,Total retention volume 1,Total 1 volume 1,Total 2 volume 1,Total 3 volume 1,Total 4 volume 1,Total 5 volume 1,Total 6 volume 1
0.1,1405356901042544.8,1.6627283363228424e+16,3932847546865173.5,1.1289078915320706e+16,0.0,0.0,0.0,0.355950925957304
0.202,1947765680192021.5,2.310578266202769e+16,5450777426479095.0,1.5646612477725214e+16,110769616992.19781,870040839497.3942,13257332362228.021,46388934812650.67
0.30604000000000003,2388561609708807.5,2.8428677667979044e+16,6684337301697703.0,1.918764383057728e+16,274436986404.26517,2165693614137.8472,36212754577277.984,129482040817446.38
0.41216080000000005,2767296187628450.5,3.3057187918440348e+16,7744218924520862.0,2.223010315626196e+16,481742962607.9365,3808656274993.553,67092992726395.945,244186258065079.6
0.5204040160000001,3103953734451700.5,3.722405882352696e+16,8686348517395579.0,2.4934541705823276e+16,727741238168.8223,5759155784407.868,104932487467975.92,387795481365849.75
0.6308120963200001,3410056047310255.5,4.106335781567163e+16,9542969755983006.0,2.7393520453065476e+16,1009496882663.6245,7993698459477.308,149136228107152.25,558672135863594.6
0.7434283382464002,3692793956213001.0,4.465861775371269e+16,1.0334206095821392e+16,2.9664806343437344e+16,1325142662301.9568,10497347839178.742,199296595598214.0,755692272141268.2
0.8582969050113283,3956956301168328.5,4.80653903562208e+16,1.1073459038238282e+16,3.1786869792725096e+16,1673442596544.2427,13260211125802.393,255118248031700.97,978053322335032.5
0.9754628431115548,4205904761427665.0,5.1322616552321016e+16,1.177013619025532e+16,3.3786716203885156e+16,2053568359669.8262,16275648361344.922,316380660931864.06,1225149519100003.8
1.094972099973786,4442101669676204.0,5.445877039195254e+16,1.2431128349380154e+16,3.568412619463888e+16,2464973912134.457,19539270797970.137,382915176563071.2,1496494756984112.5
1.2168715419732616,4667412771802934.0,5.7495396882197016e+16,1.306165677378624e+16,3.749408780476005e+16,2907319070917.9795,23048330821849.23,454591515143880.9,1791692366811157.0
1.3412089728127268,4883291557665057.0,6.04492637494916e+16,1.3665789029678954e+16,3.9228277297663544e+16,3380420398813.469,26801330307442.168,531309781563538.44,2110414332214234.5
1.4680331522689813,5090897194085997.0,6.333373115170893e+16,1.4246769025162634e+16,4.0896006558032936e+16,3884218491401.153,30797760044573.113,612994991406705.4,2452381404484693.0
1.597393815314361,5291172284512146.0,6.6159658040671144e+16,1.4807234619467638e+16,4.250484776009512e+16,4418754967273.946,35037916502949.742,699593122247190.1,2817353582878831.0
1.729341691620648,5484895712922734.0,6.893602258348809e+16,1.534936550578146e+16,4.406105787825466e+16,4984155529796.568,39522766922736.69,791068430660491.0,3205128133416223.5
1.863928525453061,5672719982028005.0,7.167035946568514e+16,1.5874987701575096e+16,4.5569878635259144e+16,5580617398993.88,44253849272001.65,887401603764831.0,3615537076387057.5
2.001207095962122,5855198307567022.0,7.436907585678885e+16,1.6385649371532244e+16,4.7035754157920776e+16,6208399846697.71,49233196939549.1,988588276536496.6,4048444146446024.5
2.1412312378813647,6032804441089447.0,7.703768459930896e+16,1.6882676301249732e+16,4.84624902183949e+16,6867816664608.291,54463278731538.875,1094637723217562.8,4503744819961141.0
2.284055862638992,6205947392243248.0,7.968097957161418e+16,1.7367213097286052e+16,4.98533725016569e+16,7559229923258.932,59946949065440.266,1205571746598799.8,4981368654840463.0
2.4297369798917723,6374982732794331.0,8.230316981824182e+16,1.7840254821249104e+16,5.121125741322822e+16,8283044874428.358,65687407273658.31,1321423749263535.5,5481280649558560.0
2.578331719489608,6540221493063571.0,8.490798370593733e+16,1.830267188631008e+16,5.253864354627704e+16,9039705835719.57,71688164749386.5,1442237853944096.8,6003481055757415.0
2.7298983538794,6701937148453261.0,8.749875089063987e+16,1.875522960886488e+16,5.383772780589117e+16,9829692691649.658,77953016960245.36,1568067966980679.5,6548005650797974.0
2.884496320956988,6860371092169585.0,9.00784675958953e+16,1.9198603523839948e+16,5.511044937252875e+16,10653517735699.084,84486018109813.73,1698976822490336.0,7114927249021169.0
3.0421862473761276,7015737055266135.0,9.264984917090606e+16,1.9633391754097e+16,5.635852520910187e+16,11511722885971.178,91291458768015.8,1835035115261630.8,7704356855525452.0
3.2030299723236504,7168224842642793.0,9.521537283686482e+16,2.0060125465556904e+16,5.758348007311067e+16,12404877415074.707,98373847656151.58,1976320748711815.5,8316442981771352.0
3.3670905717701234,7318003518004105.0,9.777731277765528e+16,2.0479277780249212e+16,5.878667210221659e+16,13333576131272.418,105737897070885.81,2122918114197549.5,8951369789785664.0
3.5344323832055258,7465224032020456.0,1.0033776919061224e+17,2.089127113117412e+16,5.996931392689638e+16,14298437753655.455,113388509831783.94,2274917331643254.0,9609355821292566.0
3.7051210308696363,7610021351789398.0,1.0289869252431133e+17,2.1296483221559496e+16,6.113248977686811e+16,15300103325950.156,121330766493212.56,2432413506191486.5,1.0290653798083602e+16
3.879223451487029,7752516272066722.0,1.0546190384829571e+17,2.1695252093557984e+16,6.227717003113649e+16,16339234792905.693,129569913868807.6,2595506135421427.5,1.0995550167451374e+16
4.0568079205167695,7892817081069030.0,1.0802911209038613e+17,2.208788078996938e+16,6.340422459989254e+16,17416513966884.58,138111356754932.67,2764298729112618.0,1.1724363019620752e+16
4.237944078927105,8031021106535905.0,1.106019287182674e+17,2.2474641680874536e+16,6.451443534458582e+16,18532641898205.06,146960652954950.3,2938898548528027.0,1.2477438742889954e+16
4.422702960505647,8167216040177254.0,1.131818803201857e+17,2.2855780170082452e+16,6.560850671766862e+16,19688338371087.016,156123509299889.38,3119416306258338.5,1.3255149238328066e+16
4.61115701971576,8301480964459836.0,1.157704194466154e+17,2.3231517568574876e+16,6.668707401104447e+16,20884341222604.297,165605776177221.97,3305965774377046.0,1.4057891010759398e+16
4.803380160110075,8433887149610133.0,1.1836893400397792e+17,2.3602053324902908e+16,6.7750709758545896e+16,22121405484727.8,175413440591427.16,3498663427301274.0,1.4886085497541542e+16
4.9994477633122765,8564498792858952.0,1.2097875543675242e+17,2.396756709395062e+16,6.879992967448658e+16,23400302678604.938,185552620489072.56,3697628308038090.5,1.574017864425053e+16
5.199436718578522,8693373822471424.0,1.2360116589073906e+17,2.4328220987003868e+16,6.983519911277678e+16,24721820590793.246,196029563063331.0,3902982166985007.5,1.6620638417847832e+16
5.403425452950093,8820564727035330.0,1.2623740451492035e+17,2.4684161892506812e+16,7.085693972900845e+16,26086763490668.12,206850646678201.47,4114849693708190.5,1.7527951062492688e+16
5.611493962009095,8946119247412038.0,1.2888867303101627e+17,2.5035523412478908e+16,7.186553503919712e+16,27495952338301.906,218022382675601.5,4333358560503741.5,1.846261843641058e+16
5.823723841249277,9070080802214536.0,1.3155614067759053e+17,2.5382427053206188e+16,7.28613338377104e+16,28950224488333.066,229551412992457.2,4558639143422894.0,1.9425158203555708e+16
6.040198318074262,9192488684393050.0,1.3424094861825947e+17,2.5724982775376412e+16,7.384465177632422e+16,30450432816290.082,241444503011528.22,4790824085149779.0,2.0416106361188124e+16
6.261002284435747,9313378224019850.0,1.3694421388961434e+17,2.60632894496245e+16,7.481577267178331e+16,31997444756295.574,253708533710164.7,5030048065811927.0,2.143601949990829e+16
6.486222330124463,9432781121870838.0,1.3966703295257368e+17,2.6397435790056628e+16,7.577495118559235e+16,33592141954208.754,266350498919268.75,5276448055934421.0,2.2485474158245976e+16
6.715946776726952,9550726000966544.0,1.4241048490047843e+17,2.6727501897736256e+16,7.672241725491088e+16,35235420866346.09,279377510385840.75,5530163971073501.0,2.356506284453909e+16
6.950265712261491,9667239015937778.0,1.4517563436847504e+17,2.7053560965993052e+16,7.765838098800269e+16,36928193902750.46,292796807286729.9,5791339286868695.0,2.4675389110483252e+16
7.18927102650672,9782344264307620.0,1.4796353418190336e+17,2.737568043139172e+16,7.858303596826109e+16,38671390180660.46,306615762462035.0,6060121103429308.0,2.5817065261870844e+16
7.433056447036854,9896063841103328.0,1.5077522777642266e+17,2.7693922126556176e+16,7.949655969275166e+16,40465955079580.72,320841878717169.56,6336659474572078.0,2.6990714807642724e+16
7.681717575977592,1.0008417608314748e+16,1.5361175141878448e+17,2.800834163499002e+16,8.03991117198665e+16,42312848574051.95,335482775051505.1,6621106352332784.0,2.819697847965478e+16
7.935351927497144,1.011942295372463e+16,1.564741362536501e+17,2.83189876161563e+16,8.12908317316501e+16,44213043262803.58,350546170447340.6,6913614869372997.0,2.943651986903589e+16
8.194058966047088,1.0229094842371292e+16,1.593634101981315e+17,2.8625901949493892e+16,8.217183994718299e+16,46167523437305.62,366039876312996.44,7214339590421417.0,3.0710026468911664e+16
8.45794014536803,1.0337446286094184e+16,1.6228059970194154e+17,2.8929121048443456e+16,8.304224089485781e+16,48177286058361.32,381971804702861.3,7523437800769865.0,3.201820458101503e+16
8.72709894827539,1.0444489078624034e+16,1.6522673138782877e+17,2.9228677917601924e+16,8.39021293180132e+16,50243343344117.82,398349989787366.1,7841071186254296.0,3.3361770554203896e+16
9.0016409272409,1.0550234442212388e+16,1.6820283358491872e+17,2.952460396231679e+16,8.475159536982357e+16,52366725519670.375,415182610543824.7,8167406859005127.0,3.474144361549746e+16
9.281673745785717,1.065469324063503e+16,1.712099377667607e+17,2.9816929584772364e+16,8.559072632439816e+16,54548481905446.59,432477999620476.94,8502616907841548.0,3.615794522758775e+16
9.567307220701432,1.0757875639115066e+16,1.7424907990569062e+17,3.010568323227421e+16,8.641960384443434e+16,56789679269342.086,450244629568954.8,8846876445086846.0,3.761200643594189e+16
9.85865336511546,1.085979040916976e+16,1.7732130175464387e+17,3.0390889451851988e+16,8.723829839623984e+16,59091397905576.76,468491080373572.9,9200361062932536.0,3.910437995617045e+16
10.155826432417769,1.0960444302438042e+16,1.8042765206612246e+17,3.067256713790755e+16,8.804686421902448e+16,61454727385537.92,487226004419700.0,9563245145157084.0,4.063585052979007e+16
10.458942961066125,1.105984191638035e+16,1.835691877556799e+17,3.095072915637569e+16,8.88453382459596e+16,63880764458620.49,506458109365472.75,9935702230507376.0,4.220723733263274e+16
10.768121820287448,1.1157986235246228e+16,1.8674697501477674e+17,3.1225383858629268e+16,8.963374445035803e+16,66370614741896.06,526196172362246.3,1.031790763758793e+16,4.381938604585113e+16
11.083484256693197,1.1254879673101654e+16,1.8996209037623587e+17,3.1496538000401956e+16,9.041210222535915e+16,68925397953588.945,546449083460776.2,1.0710042311748048e+16,4.54731536842107e+16
11.405153941827061,1.1350525159898778e+16,1.9321562173542986e+17,3.1764199781162736e+16,9.118043510933478e+16,71546254458331.31,567225899649667.5,1.111229600993442e+16,4.7169393520991224e+16
11.733257020663602,1.1444926749543964e+16,1.9650866933165597e+17,3.2028380545794424e+16,9.193877567094502e+16,74234349869478.0,588535882612441.6,1.1524868002941062e+16,4.890894812994955e+16
12.067922161076874,1.1538089428892542e+16,1.998423466959112e+17,3.2289094250056004e+16,9.26871639744e+16,76990875020265.11,610388498081987.6,1.1947964504282768e+16,5.069265516517765e+16
12.409280604298411,1.16300181757595e+16,2.032177815721996e+17,3.254635482440931e+16,9.342564001134264e+16,79817040618109.05,632793371296042.1,1.2381793595711718e+16,5.252136455306228e+16
12.75746621638438,1.1720716677909968e+16,2.06636116818649e+17,3.28001725890976e+16,9.415423340913277e+16,82714068460081.6,655760214244676.8,1.282655978098374e+16,5.439596007882014e+16
13.112615540712067,1.1810186311349974e+16,2.1009851129210272e+17,3.3050551394882596e+16,9.487295522246306e+16,85683183012162.02,679298756223314.9,1.328246077635537e+16,5.631737564781618e+16
13.474867851526309,1.1898425893602716e+16,2.136061407164763e+17,3.32974879325903e+16,9.558179595130005e+16,88725607463425.47,703418711621462.9,1.3749688424439834e+16,5.8286598195458536e+16
13.844365208556836,1.1985432406821684e+16,2.171601985325908e+17,3.354097375675568e+16,9.628073135051762e+16,91842566778232.33,728129805626607.4,1.4228433928752858e+16,6.0304654717338104e+16
14.221252512727972,1.207120246660676e+16,2.2076189672674614e+17,3.3780999396122956e+16,9.696973423045477e+16,95035297378424.8,753441854569247.8,1.4718895655900694e+16,6.2372587825713304e+16
14.605677562982532,1.2155733980166816e+16,2.244124666373848e+17,3.4017558994029748e+16,9.764878777856883e+16,98305060125130.14,779364873188622.0,1.5221286414321036e+16,6.4491429536984504e+16
14.997791114242183,1.223902733568326e+16,2.2811315974297485e+17,3.4250653636847532e+16,9.831789511462851e+16,101653151542223.7,805909166944440.1,1.5735837025823106e+16,6.666218431150574e+16
15.397746936527026,1.2321085632891228e+16,2.3186524843798736e+17,3.4480291999256252e+16,9.897708114295806e+16,105080908515161.48,833085370072984.2,1.626279425857486e+16,6.888582912571876e+16
15.805701875257567,1.2401913829378346e+16,2.3567002680561002e+17,3.470648795514283e+16,9.96263856935405e+16,108589703952489.14,860904408849194.1,1.6802413322503254e+16,7.116333189224334e+16
16.221815912762718,1.24815170919678e+16,2.3952881139448842e+17,3.492925596392278e+16,1.0026585027683768e+17,112180934282461.86,889377397551752.4,1.735494732299223e+16,7.34956824069337e+16
16.64625223101797,1.255989895105712e+16,2.4344294200245683e+17,3.514860590543592e+16,1.0089550325569008e+17,115856002915755.69,918515501511281.9,1.7920637478202508e+16,7.588392490764426e+16
17.079177275638333,1.2637059945130706e+16,2.4741378246447274e+17,3.536453928660423e+16,1.015153489554212e+17,119616305697689.16,948329817120437.6,1.849970795028919e+16,7.832918020420928e+16
17.5207608211511,1.2712997279872606e+16,2.514427214371438e+17,3.557704828746325e+16,1.0212536492535656e+17,123463224108980.62,978831316311449.0,1.9092367721093092e+16,8.083264868293773e+16
17.97117603757412,1.27877056702465e+16,2.5553117317049965e+17,3.5786118117740544e+16,1.0272550870433686e+17,127398129533118.67,1010030882666094.6,1.9698819508828436e+16,8.339559215714813e+16
18.430599558325603,1.2861179116642084e+16,2.5968057826008618e+17,3.5991731987426684e+16,1.0331573209046784e+17,131422398118350.69,1041939434915838.9,2.0319273149080588e+16,8.60193000834348e+16
18.899211549492115,1.2933413042420282e+16,2.6389240437846186e+17,3.619387708871987e+16,1.0389599831422066e+17,135537432011233.06,1074568102620735.8,2.0953959120886012e+16,8.870505127758307e+16
19.37719578048196,1.3004406103224632e+16,2.6816814699267728e+17,3.639254965939883e+16,1.0446629657434091e+17,139744680399650.1,1107928399622045.4,2.1603137642726436e+16,9.145408393296478e+16
19.864739696091597,1.3074161096155338e+16,2.7250933008042314e+17,3.658775752714666e+16,1.0502664934191448e+17,144045653666073.7,1142032339926926.2,2.226710006885069e+16,9.426758405276286e+16
20.36203449001343,1.3142684691266042e+16,2.7691750685968672e+17,3.67795193581302e+16,1.0557711020289554e+17,148441925975339.4,1176892457599614.0,2.294616169652957e+16,9.714669652729032e+16
20.869275179813698,1.3209986071217424e+16,2.8139426054371882e+17,3.69678608500449e+16,1.061177529287759e+17,152935125077786.5,1212521720931130.2,2.3640647754930948e+16,1.000925560927407e+17
21.38666068340997,1.3276074885373578e+16,2.8594120512549098e+17,3.715280900662459e+16,1.0664865503957997e+17,157526911934419.0,1248933362809257.2,2.4350876486978784e+16,1.031063294321903e+17
21.91439389707817,1.3340959116619478e+16,2.905599861859989e+17,3.7334386167906e+16,1.0716988066581376e+17,162218955887919.16,1286140674895046.2,2.5077144259129664e+16,1.0618925634574717e+17
22.452681775019734,1.3404643476690184e+16,2.952522817120486e+17,3.751260551954455e+16,1.076814676566428e+17,167012912637429.06,1324156825723813.2,2.5819717243646716e+16,1.0934267807716309e+17
23.00173541052013,1.3467128787684894e+16,3.0001980290471264e+17,3.76874693619845e+16,1.0818342261121838e+17,171910411734076.5,1362994758166824.2,2.6578832475784576e+16,1.1256804449813931e+17
23.561770118730532,1.3528412520048206e+16,3.0486429496134906e+17,3.785897061601642e+16,1.0867572520113e+17,176913057769950.34,1402667200466786.2,2.735470844788321e+16,1.1586689791803443e+17
24.133005521105144,1.3588490327479384e+16,3.097875378218385e+17,3.802709711824765e+16,1.0915834050216264e+17,182022445603447.38,1443186793285741.0,2.8147562642289776e+16,1.1924083799276987e+17
24.715665631527248,1.3647358149188042e+16,3.1479134688142106e+17,3.8191837504294056e+16,1.0963123588402112e+17,187240186039960.03,1484566302759578.8,2.8957631396122216e+16,1.2269147745899616e+17
25.309978944157795,1.3705014319215262e+16,3.1987757368469075e+17,3.8353187111738936e+16,1.1009439795667226e+17,192567935593228.84,1526818866560078.2,2.9785186858486476e+16,1.2622040063642445e+17
25.91617852304095,1.3761461157442938e+16,3.250481066240786e+17,3.851115243258507e+16,1.1054784535240968e+17,198007423056445.44,1569958212731479.8,3.063054666970249e+16,1.2982913537615037e+17
26.53450209350177,1.381670568601835e+16,3.303048716685897e+17,3.866575311816754e+16,1.1099163448137171e+17,203560466674998.56,1613998800053364.8,3.14940739774103e+16,1.335191451388934e+17
27.165192135371807,1.3870759351717842e+16,3.356498331434966e+17,3.881702120217371e+16,1.1142585730069405e+17,209228978203897.44,1658955849449201.5,3.2376167838867572e+16,1.3729184262239038e+17
27.808495978079243,1.3923636869697954e+16,3.410849945702427e+17,3.89649978648567e+16,1.1185063202488171e+17,215014953264142.06,1704845261958612.2,3.3277246288749196e+16,1.4114862130683429e+17
28.464665897640828,1.3975354486494078e+16,3.466123995609494e+17,3.910972857200962e+16,1.122660891704773e+17,220920450445114.12,1751683443898183.0,3.4197725924570412e+16,1.4509089751305462e+17
29.133959215593645,1.402592806312703e+16,3.522341327477356e+17,3.925125771051387e+16,1.1267235615559155e+17,226947563977250.22,1799487079441464.5,3.513800255029833e+16,1.4912015362478618e+17
29.816638399905518,1.4075371393788844e+16,3.579523207174903e+17,3.9389623883164136e+16,1.1306954379222285e+17,233098396132257.6,1848272901751974.0,3.6098437158583144e+16,1.5323797319184688e+17
30.51297116790363,1.412369510511937e+16,3.637691329205911e+17,3.95248568282879e+16,1.1345773744318837e+17,239375035550141.47,1898057513985250.0,3.707935038017465e+16,1.5744606061428554e+17
31.223230591261704,1.4170906341111078e+16,3.6968678252817875e+17,3.965697653795793e+16,1.1383699449090606e+17,245779546388727.53,1948857300518970.2,3.808102668501243e+16,1.617462416262833e+17
31.947695203086937,1.4217009259387142e+16,3.757075272256634e+17,3.9785994646843416e+16,1.1420734832481205e+17,252313970780716.47,2000688448684209.8,3.910372746111907e+16,1.6614044511403693e+17
32.686649107148675,1.4262006188433884e+16,3.818336699471224e+17,3.9911917670748936e+16,1.1456881763888675e+17,258980344131481.03,2053567076769226.0,4.014771014322379e+16,1.706306708849284e+17
33.44038208929165,1.4305899166041904e+16,3.880675595719614e+17,4.0034751311967496e+16,1.1492141879175251e+17,265780720062200.47,2107509441489536.5,4.121324932351135e+16,1.7521895081713654e+17
34.20918973107749,1.434869152618115e+16,3.94411591617669e+17,4.0154504900172744e+16,1.1526517855578762e+17,272717199993565.88,2162532183218701.0,4.230065555782975e+16,1.7990731169448566e+17
34.993373525699035,1.439038922924039e+16,4.008682089675073e+17,4.027119511510898e+16,1.1560014480430483e+17,279791961842784.6,2218652563072815.0,4.341028835923779e+16,1.846977469346998e+17
35.793240996213015,1.443100171917361e+16,4.074399026683249e+17,4.038484838532112e+16,1.1592639339777883e+17,287007283009896.9,2275888651903445.5,4.454256132584963e+16,1.895922019052883e+17
36.60910581613728,1.4470542207760674e+16,4.141292128220142e+17,4.049550168365391e+16,1.1624403046740925e+17,294365554370493.6,2334259444140385.5,4.569793902368361e+16,1.9459257444099594e+17
