t(s),Total solute volume 1,Total retention volume 1,Total 1 volume 1,Total 2 volume 1,Total 3 volume 1,Total 4 volume 1,Total 5 volume 1,Total 6 volume 1
0.1,1343181032126672.5,2872917611672401.5,563076449980376.4,966660129565354.2,0.0,0.0,0.0,-1.5603494592410886e-89
0.202,1971104968641624.2,4380575445446026.0,826309195931098.5,1418564602403255.0,30172977773.570915,113262237838.0002,4429366421699.663,160023876832738.1
0.30604000000000003,2418080710306960.5,5584514540025236.0,1013686420158644.2,1740244112212900.5,74769991199.83875,280673958535.8918,10986929285009.451,401160924111987.0
0.41216080000000005,2771116566317606.0,6646960709796074.0,1161682994128420.8,1994316956179914.0,129817874818.59033,487318376301.2956,19083927556179.75,700143129362834.5
0.5204040160000001,3064141598634556.0,7629024184450532.0,1284522360690565.5,2205201212215198.2,193318394368.0645,725694132952.668,28425883757859.58,1045814116625038.4
0.6308120963200001,3314560222483602.5,8560934949538810.0,1389500645241015.5,2385422491163734.0,264034239150.8327,991156462649.5084,38830631975603.26,1431365767973064.8
0.7434283382464002,3532755762824372.0,9460126775162998.0,1480970653555805.5,2542453464109676.0,341116907331.386,1280520186404.5657,50173291034333.32,1852151966545072.0
0.8582969050113283,3725538443180233.0,1.0337697936341866e+16,1561787307353063.8,2681195312244764.5,423948991611.0131,1591467642581.5579,62363004003285.05,2304798452926319.0
0.9754628431115548,3897674109060051.0,1.120122343776358e+16,1633948502254001.8,2805077918804424.0,512064004602.9438,1922247712046.1558,75331126154809.1,2786757469773641.0
1.094972099973786,4052658474539857.5,1.2056151572866934e+16,1698919680603463.5,2916617078901325.0,605100558279.1113,2271503810020.2,89024478102416.39,3296055256351570.5
1.2168715419732616,4193148424082012.0,1.2906566239035522e+16,1757814638010242.0,3017724898821400.0,702773942151.7572,2638167192677.833,103401162303212.39,3831136174683825.5
1.3412089728127268,4321220142008747.0,1.3755633828221908e+16,1811503734104584.0,3109895566634200.0,804857396102.7755,3021386657076.9077,118427807208236.44,4390760334212955.5
1.4680331522689813,4438532508752911.0,1.46058802636437e+16,1860682390070438.8,3194322945195942.0,911169187100.9316,3420480028531.4536,134077665823404.12,4973933104585377.0
1.597393815314361,4546435295346709.0,1.5459370648127544e+16,1905916444982628.5,3271978437549661.0,1021563360391.3748,3834899441667.0146,150329255071846.97,5579854752374629.0
1.729341691620648,4646043502730606.0,1.63178301606123e+16,1947673319674653.0,3343664487431242.0,1135922923515.134,4264205754098.607,167165353148659.2,6207883368949529.0
1.863928525453061,4738290039937663.0,1.7182727985827434e+16,1986344100021275.2,3410052490698838.5,1254154701101.9888,4708049232023.081,184572242694947.6,6857506908541574.0
2.001207095962122,4823964040703616.0,1.8055337145533944e+16,2022259599688968.8,3471710371025875.0,1376185372514.099,5166154676104.373,202539127983333.0,7528321666083495.0
2.1412312378813647,4903739364572167.0,1.893677813768671e+16,2055702308117139.2,3529123091572510.5,1501958368649.3003,5638309772545.332,221057678484429.88,8220015426799261.0
2.284055862638992,4978196211454074.0,1.9828051407815356e+16,2086915451582413.2,3582708210548390.0,1631431406585.5334,6124355838539.352,240121666251972.3,8932354080733385.0
2.4297369798917723,5047837793060984.0,2.0730061940191844e+16,2116109982049650.8,3632827879307617.5,1764574506766.367,6624180379122.354,259726674279963.38,9665170856607762.0
2.578331719489608,5113103384347116.0,2.1643638175760724e+16,2143470048481846.0,3679798235208268.5,1901368381271.7874,7137711037033.55,279869859436822.5,1.0418357568868336e+16
2.7298983538794,5174378676488137.0,2.2569546772290628e+16,2169157336924348.8,3723896852442549.5,2041803111593.9878,7664910629342.613,300549757977090.1,1.1191857434717574e+16
2.884496320956988,5232004086315200.0,2.3508504268528492e+16,2193314553912281.8,3765368722168980.0,2185877055160.2776,8205773042766.238,321766124694569.9,1.1985659131339548e+16
3.0421862473761276,5286281496129395.0,2.4461186409811776e+16,2216068251875933.2,3804431103020933.5,2333595934651.669,8760319815178.546,343519798958837.3,1.2799791844076852e+16
3.2030299723236504,5337479772465594.0,2.54282356843498e+16,2237531142668082.8,3841277492849681.0,2484972074884.0273,9328597271055.293,365812592453622.56,1.3634321114566882e+16
3.3670905717701234,5385839323967930.0,2.6410267474298388e+16,2257804008276256.5,3876080908935492.5,2640023759902.774,9910674108187.52,388647194595165.94,1.4489345340655474e+16
3.5344323832055258,5431575895160392.0,2.740787512300572e+16,2276977291213679.5,3908996618287816.0,2798774688825.813,10506639355087.11,412027092473984.1,1.5364992811825938e+16
3.7051210308696363,5474883746776507.0,2.842163414595556e+16,2295132427748888.5,3940164426464410.5,2961253513417.7793,11116600635205.416,435956502817660.06,1.6261419187999492e+16
3.879223451487029,5515938339290113.0,2.9452105759123584e+16,2312342972871835.0,3969710608854391.5,3127493443782.0396,11740682686861.648,460440313972791.75,1.7178805348003758e+16
4.0568079205167695,5554898610876219.0,3.0499839858757864e+16,2328675555240433.5,3997749550080674.0,3297531911188.904,12379026097658.27,485484036291256.25,1.8117355548260464e+16
4.237944078927105,5591908921827256.0,3.1565377556965216e+16,2344190692301574.5,4024385143357219.5,3471410279114.527,13031786219878.207,511093759608271.2,1.9077295843371896e+16
4.422702960505647,5627100722784590.0,3.264925335512643e+16,2358943489632340.0,4049711991081574.0,3649173595184.9536,13699132239440.555,537276116737986.56,2.0058872729055336e+16
4.61115701971576,5660593992833056.0,3.375199702013637e+16,2372984243805307.0,4073816439802565.0,3830870378007.957,14381246375826.373,564038252101711.0,2.1062351974839892e+16
4.803380160110075,5692498484702610.0,3.48741352153662e+16,2386358964390955.5,4096777476366805.0,4016552433906.5503,15078323194257.365,591387794755516.8,2.2088017619522148e+16
4.9994477633122765,5722914807408928.0,3.6016192928089156e+16,2399109827812676.0,4118667507073381.0,4206274699399.9062,15790569014534.137,619332835206337.6,2.31361711068739e+16
5.199436718578522,5751935371196657.0,3.717869472717122e+16,2411275573477556.0,4139553037730446.5,4400095105953.507,16518201403476.494,647881905504994.1,2.4207130542752144e+16
5.403425452950093,5779645215289313.0,3.836216587857207e+16,2422891850778322.5,4159495269370137.0,4598074464071.814,17261448739980.33,677043962185758.0,2.530123005774457e+16
5.611493962009095,5806122735450585.0,3.9567133341240616e+16,2433991524095174.0,4178550621859815.0,4800276364260.765,18020549843409.008,706828371688760.9,2.6418819261938616e+16
5.823723841249277,5831440325535132.0,4.079412666202573e+16,2444604941741077.5,4196771195613287.5,5006767092761.902,18795753657443.074,737244897956668.1,2.7560262780429336e+16
6.040198318074262,5855664944908620.0,4.204367878504078e+16,2454760173830491.5,4214205179951547.0,5217615560271.373,19587318982681.438,768303691942787.9,2.87259398598644e+16
6.261002284435747,5878858621738122.0,4.331632678834392e+16,2464483223264404.0,4230897215310797.0,5432893242116.413,20395514252260.457,800015282805994.0,2.991624403773026e+16
6.486222330124463,5901078900609814.0,4.461261255870518e+16,2473798213376590.5,4246888715383846.0,5652674128579.695,21220617345575.84,832390570599775.6,3.1131582867261004e+16
6.715946776726952,5922379241654745.0,4.59330834135224e+16,2482727555251656.5,4262218154362958.5,5877034684245.04,22062915435877.69,865440820289743.2,3.2372377691843132e+16
6.950265712261491,5942809377304497.0,4.727829267754281e+16,2491292097280945.0,4276921323689709.0,6106053815392.528,22922704868091.582,899177656956582.2,3.363906346362757e+16
7.18927102650672,5962415631914868.0,4.8648800220888984e+16,2499511259152380.0,4291031562081704.5,6339812844602.501,23800291063709.96,933613062060824.8,3.493208860177088e+16
7.433056447036854,5981241208755757.0,5.004517296392771e+16,2507403152159798.0,4304579962073476.5,6578395491839.465,24695988450018.4,968759370662185.9,3.625191488633463e+16
7.681717575977592,5999326448243142.0,5.146798535372023e+16,2514984687456712.0,4317595555860821.0,6821887861382.296,25610120411278.355,1004629269500243.9,3.759901738438666e+16
7.935351927497144,6016709060763309.0,5.291781981612638e+16,2522271673658797.5,4330105482859731.0,7070378434049.172,26543019259795.695,1041235795855323.6,3.897388440529533e+16
8.194058966047088,6033424336994208.0,5.4395267187070424e+16,2529278905012955.5,4342135141070456.5,7323958064235.519,27495026225068.035,1078592337118689.1,4.037701748258479e+16
8.45794014536803,6049505338249749.0,5.590092712601057e+16,2536020241191813.0,4353708324064499.0,7582719981344.003,28466491459430.516,1116712631010146.4,4.180893138005366e+16
8.72709894827539,6064983069049949.0,5.743540851424774e+16,2542508679636955.5,4364847345179818.5,7846759795238.179,29457774058817.61,1155610766388808.2,4.327015412013809e+16
9.0016409272409,6079886633842300.0,5.8999329840377096e+16,2548756421258387.0,4375573150310134.0,8116175505396.412,30469242097427.656,1195301184609476.0,4.476122703275402e+16
9.281673745785717,6094243379562801.0,6.059331957489655e+16,2554774930197639.5,4385905420503195.0,8391067513482.528,31501272675225.656,1235798681382901.8,4.6282704823061336e+16
9.567307220701432,6108079025519660.0,6.221801653573735e+16,2560574988276471.5,4395862665435490.5,8671538639083.826,32554251977349.53,1277118409103243.0,4.7835155656786024e+16
9.85865336511546,6121417781906107.0,6.387407024627743e+16,2566166744678786.5,4405462308703554.0,8957694138397.094,33628575344596.47,1319275879610451.8,4.9419161261895544e+16
10.155826432417769,6134282458095451.0,6.5562141287215096e+16,2571559761349136.0,4414720765761749.0,9249641725669.988,34724647354266.383,1362286967359227.2,5.103531704556955e+16
10.458942961066125,6146694561738521.0,6.728290164352368e+16,2576763054535421.0,4423653515240665.5,9547491597227.57,35842881910725.15,1406167912969550.5,5.2684232225531624e+16
10.768121820287448,6158674389567537.0,6.903703504758025e+16,2581785132854969.5,4432275164296951.5,9851356457934.96,36983702345127.016,1450935327136769.8,5.4366529974920984e+16
11.083484256693197,6170241110709934.0,7.082523731943817e+16,2586634032220537.0,4440599508572481.5,10161351549963.99,38147541523803.32,1496606194881989.5,5.6082847579979464e+16
11.405153941827061,6181412843226509.0,7.264821670512013e+16,2591317347926031.0,4448639587277412.0,10477594683748.76,39334841964883.13,1543197880125587.5,5.783383660991593e+16
11.733257020663602,6192206724511446.0,7.450669421371798e+16,2595842264158915.0,4456407733855644.0,10800206271027.938,40546055962765.45,1590728130569101.5,5.962016309838914e+16
12.067922161076874,6202638976123185.0,7.640140395400952e+16,2600215581178101.5,4463915622642339.0,11129309359884.82,41781645720108.42,1639215082872215.8,6.144250773611366e+16
12.409280604298411,6212724963555597.0,7.833309347123986e+16,2604443740370642.0,4471174311879966.0,11465029671707.027,43042083487042.59,1688677268113445.8,6.330156607416135e+16
12.75746621638438,6222479251405531.0,8.030252408465496e+16,2608532847378611.5,4478194283421351.5,11807495639997.402,44327851707353.89,1739133617524479.5,6.519804873757758e+16
13.112615540712067,6231915654346678.0,8.231047122632533e+16,2612488693467895.5,4484985479414492.5,12156838450976.994,45639443171412.945,1790603468489459.8,6.71326816489844e+16
13.474867851526309,6241047284277773.0,8.435772478175528e+16,2616316775293280.0,4491557336234269.5,12513192085928.379,46977361175657.98,1843106570801643.5,6.910620626188666e+16
13.844365208556836,6249886593977048.0,8.644508943273205e+16,2620022313198841.0,4497918815899559.0,12876693365234.936,48342119688467.31,1896663093170909.5,7.111937980343206e+16
14.221252512727972,6258445417561550.0,8.857338500284106e+16,2623610268178993.0,4504078435191098.0,13247481994078.17,49734243522277.17,1951293629976589.0,7.317297552641651e+16
14.605677562982532,6266735008021638.0,9.074344680603453e+16,2627085357613312.0,4510044292664282.0,13625700609760.59,51154268511825.23,2007019208260845.0,7.526778297035291e+16
14.997791114242183,6274766072074600.0,9.295612599862592e+16,2630452069877620.0,4515824093732589.0,14011494830627.305,52602741698420.53,2063861294958683.5,7.74046082314533e+16
15.397746936527026,6282548802558506.0,9.521228993505171e+16,2633714677923791.0,4521425173980816.0,14405013306563.553,54080221520154.305,2121841804361305.2,7.958427424140056e+16
15.805701875257567,6290092908566493.0,9.751282252772469e+16,2636877251912452.0,4526854520852135.0,14806407771050.418,55587278007986.15,2180983105810174.0,8.18076210548045e+16
16.221815912762718,6297407643503761.0,9.985862461128741e+16,2639943670974700.5,4532118793840161.0,15215833094764.24,57124492987652.73,2241308031619744.0,8.407550614526656e+16
16.64625223101797,6304501831232088.0,1.022506143115537e+17,2642917634172267.0,4537224343304556.0,15633447340709.072,58692460287360.08,2302839885227310.0,8.638880470998938e+16
17.079177275638333,6311383890452706.0,1.0468972741942162e+17,2645802670719016.5,4542177228019006.0,16059411820874.617,60291785951231.04,2365602449568897.5,8.874840998288989e+16
17.5207608211511,6318061857464160.0,1.0717691777001803e+17,2648602149521358.0,4546983231549554.0,16493891154415.137,61923088458494.42,2429619995680586.5,9.115523355618947e+16
17.97117603757412,6324543407420571.0,1.0971315762733434e+17,2651319288089883.5,4551647877553733.0,16937053327347.52,63586998948407.914,2494917291525073.5,9.361020571046933e+16
18.430599558325603,6330835874203822.0,1.1229943807459882e+17,2653957160870074.0,4556176444082210.0,17389069753769.254,65284161450920.33,2561519611043536.0,9.611427575319461e+16
18.899211549492115,6336946269014478.0,1.1493676941062578e+17,2656518707035765.0,4560573976958256.0,17850115338599.125,67015233123084.24,2629452743433412.5,9.866841236572211e+16
19.37719578048196,6342881297776323.0,1.1762618155237102e+17,2659006737785369.5,4564845302303555.0,18320368541845.8,68780884491240.9,2698743002652774.0,1.0127360395881978e+17
19.864739696091597,6348647377442364.0,1.2036872444392286e+17,2661423943177487.0,4568995038273130.0,18800011444411.684,70581799699005.14,2769417237152517.5,1.0393085903673381e+17
20.36203449001343,6354250651281795.0,1.2316546847214942e+17,2663772898539446.0,4573027606057278.0,19289229815440.434,72418676761084.22,2841502839837680.0,1.0664120656985658e+17
20.869275179813698,6359697003222109.0,1.260175048892173e+17,2666056070479579.0,4576947240203120.0,19788213181219.773,74292227822975.42,2915027758259528.0,1.0940569637604878e+17
21.38666068340997,6364992071313126.0,1.2892594624219853e+17,2668275822531589.5,4580757998304528.0,20297154895650.45,76203179426585.84,2990020505040281.5,1.1222539951068674e+17
21.91439389707817,6370141260375565.0,1.3189192680997322e+17,2670434420456893.0,4584463770104927.0,20816252212296.824,78152272781831.89,3066510168532636.0,1.151014086655091e+17
22.452681775019734,6375149753890789.0,1.3491660304763917e+17,2672534037228997.5,4588068286054251.0,21345706358033.305,80140264044275.5,3144526423716375.5,1.1803483857634651e+17
23.00173541052013,6380022525184694.0,1.3800115403863206e+17,2674576757721857.0,4591575125357604.0,21885722608302.91,82167924598861.11,3224099543334478.5,1.2102682643982646e+17
23.561770118730532,6384764347953808.0,1.4114678195476341e+17,2676564583122591.0,4594987723550891.0,22436510364007.574,84236041349823.67,3305260409271671.5,1.2407853233915058e+17
24.133005521105144,6389379806178712.0,1.4435471252437827e+17,2678499435087258.0,4598309379635069.0,22998283230047.008,86345417016840.67,3388040524178068.5,1.271911396790521e+17
24.715665631527248,6393873303465645.0,1.476261955088376e+17,2680383159656952.0,4601543262799324.0,23571259095528.22,88496870437505.58,3472472023341150.0,1.3036585563004149e+17
25.309978944157795,6398249071854709.0,1.509625051875281e+17,2682217530950360.5,4604692418760031.0,24155660215666.03,90691236876207.1,3558587686809219.5,1.3360391158206206e+17
25.91617852304095,6402511180129847.0,1.543649408515994e+17,2684004254647315.0,4607759775741322.0,24751713295397.715,92929368339498.81,3646420951769768.0,1.3690656360767643e+17
26.53450209350177,6406663541663152.0,1.5783482730663683e+17,2685744971277287.0,4610748150120498.0,25359649574734.707,95212133898049.47,3736005925186296.0,1.4027509293491698e+17
27.165192135371807,6410709921823830.0,1.6137351538446915e+17,2687441259325285.0,4613660251760098.0,25979704915875.902,97540420015271.39,3827377396697280.5,1.437108064299316e+17
27.808495978079243,6414653944979845.0,1.6498238246431798e+17,2689094638166996.5,4616498689046833.0,26612119892108.508,99915130882720.5,3920570851781181.5,1.472150370895683e+17
28.464665897640828,6418499101118007.0,1.6866283300349405e+17,2690706570844039.0,4619265973655944.0,27257139878522.266,102337188762372.11,4015622485191364.0,1.507891445440439e+17
29.133959215593645,6422248752106935.0,1.7241629907784666e+17,2692278466689446.5,4621964525058557.0,27915015144563.895,104807534335876.56,4112569214665226.0,1.5443451556984582e+17
29.816638399905518,6425906137625018.0,1.7624424093217293e+17,2693811683812725.5,4624596674787820.0,28586000948461.645,107327127060905.47,4211448694911612.0,1.581525646130267e+17
30.51297116790363,6429474380774243.0,1.8014814754080192e+17,2695307531453271.0,4627164670479226.0,29270357633546.22,109896945534694.48,4312299331881043.5,1.61944734323046e+17
31.223230591261704,6432956493399455.0,1.841295371785569e+17,2696767272210213.5,4629670679698618.0,29968350726500.734,112517987864905.02,4415160297323188.0,1.6581249609733398e+17
31.947695203086937,6436355381130633.0,1.881899580023138e+17,2698192124156250.5,4632116793571131.0,30680251037568.03,115191272047916.02,4520071543636290.0,1.697573506367344e+17
32.686649107148675,6439673848165462.0,1.9233098864337626e+17,2699583262842496.5,4634505030223062.0,31406334762748.426,117917836354675.0,4627073819013244.0,1.7378082851201462e+17
33.44038208929165,6442914601807402.0,1.9655423881086838e+17,2700941823200931.5,4636837338047818.0,32146883588019.105,120698739724223.11,4736208682889310.0,1.7788449074161056e+17
34.20918973107749,6446080256774046.0,2.0086134990638608e+17,2702268901350519.0,4639115598806601.0,32902184795608.97,123535062165031.45,4847518521696314.0,1.82069929380798e+17
34.993373525699035,6449173339289345.0,2.0525399565011155e+17,2703565556312677.0,4641341630573455.0,33672531372361.996,126427905164271.89,4961046564928692.0,1.863387681224709e+17
35.793240996213015,6452196290972343.0,2.0973388271862544e+17,2704832811641488.0,4643517190533954.0,34458222120224.453,129378392105160.48,5076836901526427.0,1.9069266290972608e+17
36.60910581613728,6455151472534251.0,2.1430275139463885e+17,2706071656973591.0,4645643977645871.0,35259561768890.54,132387668692508.34,5194934496580375.0,1.9513330256044336e+17
37.44128793246003,6458041167295094.0,2.189623762288783e+17,2707283049502356.0,4647723635170046.0,36076861090643.266,135456903386620.19,5315385208365401.0,1.9966240940406832e+17
38.29011369110923,6460867584529990.0,2.2371456671435462e+17,2708467915380704.0,4649757753078710.0,36910437017426.97,138587287845680.69,5438235805706911.0,2.042817399307952e+17
39.15591596493141,6463632862655196.0,2.2856116797325117e+17,2709627151056712.5,4651747870348292.0,37760612760189.12,141780037376779.66,5563533985686605.0,2.0899308545336752e+17
40.03903428423004,6466339072262473.0,2.335040614566688e+17,2710761624545699.5,4653695477143313.0,38627717930529.46,145036391395717.44,5691328391693224.0,2.1379827278169776e+17
40.93981496991464,6468988219010811.0,2.3854516565747306e+17,2711872176642408.5,4655602016897428.0,39512088664696.73,148357613895750.0,5821668631824115.0,2.1869916491053795e+17
41.85861126931294,6471582246382997.0,2.4368643683648368e+17,2712959622076632.5,4657468888297274.0,40414067749970.57,151744993925417.78,5954605297643926.0,2.236976617204076e+17
