t(s),Total solute volume 1,Total retention volume 1,Total 1 volume 1,Total 2 volume 1,Total 3 volume 1,Total 4 volume 1,Total 5 volume 1,Total 6 volume 1
0.1,1343181032126672.5,2872917611672401.5,563076449980376.4,966660129565354.2,0.0,0.0,0.0,-1.5603494592410886e-89
0.202,2016482041303458.5,4313828892147060.0,845331768663413.9,1451221545653602.8,145536778.41142482,546309782.6838539,21363767372.14852,771480912654.0403
0.30604000000000003,2530848753547302.5,5415242585169171.0,1060960037362457.0,1821400959319772.5,368971634.88999325,1385052499.3114383,54211488692.45842,1976869426816.375
0.41216080000000005,2966086144067791.0,6347760446191977.0,1243416409311580.2,2134632570744717.0,655139827.3261524,2459292000.727479,96292331879.1103,3525915304176.9585
0.5204040160000001,3352589998280289.0,7176356492264448.0,1405443138431688.2,2412791629983339.0,997276614.2410822,3743632921.3948927,146608463811.31512,5380376195780.466
0.6308120963200001,3705560605260468.5,7933521696982027.0,1553412355887205.0,2666817483038941.5,1391744154.3824804,5224418765.698796,204623840475.68127,7520012792013.394
0.7434283382464002,4033845985775828.0,8638169141215784.0,1691033250842756.0,2903077873796349.0,1836455517.8668642,6893815219.826901,270031044455.54538,9933269485658.988
0.8582969050113283,4343118834076137.0,9302425364736604.0,1820683880080793.5,3125655326776379.5,2330226113.5651,8747375343.057343,342655582437.64636,12613590619408.504
0.9754628431115548,4637268168781394.0,9934605119239792.0,1943994563628655.0,3337348690742058.5,2872453883.418169,10782839005.490133,422408743073.1148,15557632051717.88
1.094972099973786,4919095011789422.0,1.0540698339294396e+16,2062139521135112.5,3540173804972582.0,3462942099.857631,12999467669.155632,509261489346.8818,18764277498159.266
1.2168715419732616,5190694683985690.0,1.1125187226241496e+16,2175997134504030.2,3735638629859740.5,4101792836.5017757,15397644478.94452,603228768233.9526,22234049686485.58
1.3412089728127268,5453682436901610.0,1.1691528464573928e+16,2286244535206074.5,3924905629503018.0,4789338968.423761,17978618993.763214,704359497265.4669,25968735508000.24
1.4680331522689813,5709334275592251.0,1.224245416989218e+16,2393416638801782.0,4108893119116565.5,5526098744.995187,20744336654.849873,812729876002.3274,29971136070174.52
1.597393815314361,5958678894991819.0,1.2780168353255282e+16,2497944685688367.5,4288341429782727.5,6312744354.532674,23697320778.96193,928438758083.0685,34244893969148.13
1.729341691620648,6202559965147795.0,1.330648001639262e+16,2600182351765301.5,4463857733886666.5,7150079566.41843,26840588628.083004,1051604359921.4227,38794370564732.38
1.863928525453061,6441679658388785.0,1.382289616002158e+16,2700423995508967.5,4635947370746113.0,8039023488.878868,30177590437.051594,1182361869830.2214,43624556893947.44
2.001207095962122,6676629881178510.0,1.4330688517844152e+16,2798917750714518.5,4805036323550152.0,8980598580.441517,33712164409.294033,1320861683372.4714,48741007954604.58
2.1412312378813647,6907915198905177.0,1.4830942539789846e+16,2895875136823484.0,4971487717870042.0,9975921702.229046,37448503127.69958,1467268086353.3574,54149793679969.33
2.284055862638992,7135969999281124.0,1.5324594064823838e+16,2991478254012456.5,5135614173813432.0,11026197396.805029,41391128323.84511,1621758265563.3096,59857462125536.914
2.4297369798917723,7361171567495555.0,1.5812457258821472e+16,3085885264443065.5,5297687215949248.0,12132712832.412725,45544871899.00602,1784521564656.7854,65871011784209.99
2.578331719489608,7583850201340665.0,1.629524622841756e+16,3179234632635733.5,5457944552960855.0,13296834016.998394,49914861711.85804,1955758926927.777,72197870857639.03
2.7298983538794,7804297144503564.0,1.6773591973694394e+16,3271648451194201.0,5616595787076921.0,14520002997.504105,54506511064.81895,2135682483099.7397,78845881922546.44
2.884496320956988,8022770885708228.0,1.7248055849972154e+16,3363235081476141.5,5773826947437361.0,15803735836.179699,59325511107.266365,2324515253475.458,85823290849991.31
3.0421862473761276,8239502216183051.0,1.771914037729155e+16,3454091273739979.5,5929804129851139.0,17149621209.085615,64377825574.41867,2522490941657.1665,93138739128932.7
3.2030299723236504,8454698331317821.0,1.818729800836375e+16,3544303886605306.0,6084676448676400.0,18559319510.068157,69669687423.7253,2729853802657.2607,100801258954625.97
3.3670905717701234,8668546187813288.0,1.8652938306439836e+16,3633951294407382.5,6238578452893520.0,20034562371.122173,75207597034.34335,2946858572287.6284,108820270593967.1
3.5344323832055258,8881215274621743.0,1.9116433871296916e+16,3723104548806414.0,6391632120295403.0,21577152530.392216,80998321711.6281,3173770447709.2705,117205581651427.1
3.7051210308696363,9092859917732166.0,1.957812526982032e+16,3811828344979194.5,6543948516195066.0,23188963994.236935,87048896295.51207,3410865111256.9785,125967387942364.27
3.879223451487029,9303621210878538.0,2.003832516789147e+16,3900181830993544.0,6695629182917580.0,24871942451.238586,93366624714.67032,3658428791340.719,135116275743295.95
4.0568079205167695,9513628643529556.0,2.049732181602129e+16,3988219290279776.0,6846767311431521.0,26628105904.798077,99959082361.2398,3916758355513.9785,144663225236668.03
4.237944078927105,9723001481992582.0,2.09553820080005e+16,4075990720604935.0,6997448735301808.0,28459545497.714676,106834119186.23457,4186161431794.4146,154619615004680.8
4.422702960505647,9931849947707292.0,2.1412753606718436e+16,4163542328026578.0,7147752778683917.0,30368426507.422237,113999863435.59436,4466956555098.268,164997227455588.78
4.61115701971576,1.0140276227810088e+16,2.1869667712089772e+16,4250916950532649.0,7297752983606730.0,32356989494.704567,121464725962.38287,4759473336260.406,175808255088605.2
4.803380160110075,1.0348375346108074e+16,2.232634053119661e+16,4338154423163584.5,7447517736795124.0,34427551592.00382,129237405063.00847,5064052651596.96,187065307521564.25
4.9994477633122765,1.0556235917195742e+16,2.27829749992055e+16,4425291894146311.0,7597110812392461.0,36582507920.07462,137326891795.2458,5381046851355.18,198781419219914.22
5.199436718578522,1.0763940802202832e+16,2.323976219055506e+16,4512364099791177.0,7746591843889233.0,38824333123.86044,145742475743.8119,5710819985708.334,210970057877253.28
5.403425452950093,1.0971567681307234e+16,2.369688255274051e+16,4599403604495701.0,7896016736149103.0,41155583020.19808,154493751205.7346,6053748047207.395,223645133407052.62
5.611493962009095,1.1179189555472414e+16,2.4154506989311932e+16,4686441011078471.0,8045438026499140.0,43578896351.36662,163590623773.0562,6410219228809.303,236821007512956.7
5.823723841249277,1.1386875187725616e+16,2.4612797814124724e+16,4773505145767975.0,8194905202308976.0,46096996639.66432,173043317294.79123,6780634196773.151,250512503811399.12
6.040198318074262,1.1594689492563998e+16,2.507190959518714e+16,4860623221445865.0,8344464981238503.0,48712694139.15767,182862381203.66,7165406377857.015,264734918485568.3
6.261002284435747,1.1802693880671048e+16,2.5531989903451212e+16,4947820982156123.0,8494161559323463.0,51428887881.55623,193058698196.1686,7564962260367.374,279504031454135.47
6.486222330124463,1.2010946564980694e+16,2.5993179979445144e+16,5035122831410337.0,8644036831243471.0,54248567813.8384,203643492257.11136,7979741708711.715,294836118041875.0
6.715946776726952,1.221950283318492e+16,2.6455615328639052e+16,5122551946426080.0,8794130586440385.0,57174817025.825775,214628337021.74304,8410198291189.533,310747961142413.4
6.950265712261491,1.2428415291006006e+16,2.6919426254777164e+16,5210130380109312.0,8944480684196476.0,60210814066.388245,226025164470.65863,8856799620827.568,327256863865997.0
7.18927102650672,1.2637734079911396e+16,2.7384738339039412e+16,5297879152322824.0,9095123210319304.0,63359835347.373634,237846273953.99576,9320027709126.822,344380662667437.94
7.433056447036854,1.2847507072413734e+16,2.78516728717506e+16,5385818331758296.0,9246092617695398.0,66625257634.71561,250104341542.8909,9800379332640.518,362137740951335.8
7.681717575977592,1.305778004765179e+16,2.8320347242401604e+16,5473967109541686.0,9397421852652086.0,70010560626.4753,262812429707.28738,10298366412347.424,380547043153367.7
7.935351927497144,1.326859684957154e+16,2.879087529294436e+16,5562343865544556.0,9549142468797628.0,73519329617.84245,275983997320.18634,10814516405825.207,399628089297885.44
8.194058966047088,1.3479999529710942e+16,2.9263367638645932e+16,5650966228241040.0,9701284729780094.0,77155258253.35704,289632909989.3139,11349372712261.213,419400990033356.94
8.45794014536803,1.3692028476323056e+16,2.9737931960216372e+16,5739851128837651.0,9853877702214952.0,80922151366.80936,303773450717.9382,11903495090369.955,439886462148296.06
8.72709894827539,1.3904722531344892e+16,3.0214673270437576e+16,5829014850308023.0,1.0006949339865206e+16,84823927909.4693,318420330897.2629,12477460089311.574,461105844571331.9
9.0016409272409,1.4118119096526508e+16,3.06936941581083e+16,5918473071883302.0,1.0160526560020226e+16,88864623967.444,333588701633.418,13071861492730.826,483081114859947.3
9.281673745785717,1.4332254229867e+16,3.1175095011765844e+16,6008240909479299.0,1.0314635312898982e+16,93048395869.11754,349294165412.59515,13687310776055.979,505834906183204.2
9.567307220701432,1.4547162733364498e+16,3.1658974225341464e+16,6098332952482093.0,1.0469300644801696e+16,97379523383.74547,365552788108.4048,14324437577216.717,529390524804489.44
9.85865336511546,1.4762878232961994e+16,3.2145428387646324e+16,6188763297262493.0,1.0624546755645576e+16,101862413012.40337,382381111335.8987,14983890180957.117,553771968070954.7
10.155826432417769,1.4979433251468816e+16,3.2634552457359e+16,6279545577745232.0,1.078039705144455e+16,106501601372.58385,399796165157.16785,15666336016934.943,579003942916907.8
10.458942961066125,1.5196859275142626e+16,3.3126439924991704e+16,6370692993321114.0,1.0936874192227424e+16,111301758677.83925,417815481143.734,16372462171813.496,605111884888933.9
10.768121820287448,1.54151868145405e+16,3.3621182963142348e+16,6462218334356311.0,1.1094000135830844e+16,116267692313.95503,436457105801.3041,17102975915564.102,632121977701027.4
11.083484256693197,1.5634445460177192e+16,3.4118872566193336e+16,6554134005525056.0,1.1251796177955508e+16,121404350513.2131,455739614362.77686,17858605242209.863,660061173328469.4
11.405153941827061,1.5854663933469044e+16,3.461959868049033e+16,6646452047165785.0,1.1410282988829642e+16,126716826128.38815,475682124955.618,18640099425252.477,688957212649560.8
11.733257020663602,1.6075870133389662e+16,3.512345032592173e+16,6739184154839780.0,1.1569480646785898e+16,132210360508.17867,496304313150.04926,19448229588033.53,718838646644754.8
12.067922161076874,1.6298091179216958e+16,3.5630515709720744e+16,6832341697251235.0,1.1729408669025754e+16,137890347475.85098,517626426894.67114,20283789289291.05,749734858163086.5
12.409280604298411,1.6521353449711768e+16,3.614088233322793e+16,6925935732671255.0,1.1890086039815452e+16,143762337412.91904,539669301846.40466,21147595124181.89,781676084266053.6
12.75746621638438,1.6745682619031024e+16,3.665463709227539e+16,7019977023993161.0,1.2051531236332098e+16,149832041449.7489,562454377101.8326,22040487341047.305,814693439159572.2
13.112615540712067,1.697110368964911e+16,3.717186637178498e+16,7114476052533531.0,1.2213762252356306e+16,156105335765.03137,586003711337.215,22963330474207.605,848818937724726.5
13.474867851526309,1.719764102253184e+16,3.769265613511815e+16,7209443030681268.0,1.237679661998808e+16,162588265996.09863,610339999364.6305,23917013993079.344,884085519658505.2
13.844365208556836,1.742531836478338e+16,3.821709200865926e+16,7304887913487773.0,1.25406514295435e+16,169287051762.12866,635486589111.883,24902452967913.555,920527074235834.6
14.221252512727972,1.7654158874965238e+16,3.8745259362069656e+16,7400820409280667.0,1.270534334777643e+16,176208091302.30435,661467499033.9663,25920588752462.723,958178465704508.9
14.605677562982532,1.7884185146266012e+16,3.9277243384607336e+16,7497249989377048.0,1.2870888634553274e+16,183357966231.0462,688307435964.0181,26972389683886.08,997075559324897.8
14.997791114242183,1.811541922768471e+16,3.981312915787303e+16,7594185896963631.0,1.3037303158098228e+16,190743446412.47278,716031813411.8354,28058851800213.176,1037255248066441.5
15.397746936527026,1.8347882643374036e+16,4.035300172530809e+16,7691637155205706.0,1.3204602408914194e+16,198371494956.2721,744666770318.2181,29180999575686.402,1078755479973218.1
15.805701875257567,1.858159641027665e+16,4.089694615874125e+16,7789612574640452.0,1.3372801512475248e+16,206249273337.21182,774239190273.4003,30339886674311.465,1121615286211038.2
16.221815912762718,1.8816581054175576e+16,4.144504762225757e+16,7888120759905536.0,1.3541915240777936e+16,214384146640.5357,804776721208.0903,31536596721946.63,1165874809808673.8
16.64625223101797,1.905285662426881e+16,4.199739143363543e+16,7987170115848735.0,1.3711958022830068e+16,222783688935.52246,836307795565.6515,32772244097268.184,1211575335106060.8
17.079177275638333,1.9290442706367016e+16,4.255406312358106e+16,8086768853060789.0,1.3882943954149094e+16,231455688779.52542,868861650964.0651,34047974741951.37,1258759317922415.0
17.5207608211511,1.9529358434807444e+16,4.311514849296748e+16,8186924992869768.0,1.4054886805336192e+16,240408154854.8107,902468351356.4686,35364966990411.414,1307470416457362.5
17.97117603757412,1.9769622503165508e+16,4.368073366827023e+16,8287646371831391.0,1.422780002978509e+16,249649321740.55087,937158808699.0505,36724432419450.33,1357753522938349.8
18.430599558325603,2.0011253173841276e+16,4.425090515537742e+16,8388940645747934.0,1.440169677058146e+16,259187655822.3487,972964805135.2396,38127616718161.26,1409654796027652.8
18.899211549492115,2.025426828659001e+16,4.4825749891934376e+16,8490815293244236.0,1.4576589866642102e+16,269031861341.67352,1009919015705.1447,39575800578440.81,1463221694002555.5
19.37719578048196,2.0498685266061164e+16,4.540535529837666e+16,8593277618928140.0,1.475249185814055e+16,279190886587.6223,1048055031589.2715,41070300606465.914,1518503008722119.8
19.864739696091597,2.0744521128403596e+16,4.598980932778778e+16,8696334756159552.0,1.4929414991260788e+16,289673930233.4168,1087407383895.5869,42612470255490.86,1575548900394399.0
20.36203449001343,2.099179248699192e+16,4.657920051471481e+16,8799993669450868.0,1.510737122231827e+16,300490447820.0598,1128011567999.0618,44203700780322.95,1634410933157629.2
20.869275179813698,2.1240515557322736e+16,4.7173618023056264e+16,8904261156519613.0,1.5286372221283842e+16,311650158389.60583,1169904068442.8154,45845422213836.47,1695142111489415.0
21.38666068340997,2.1490706161126876e+16,4.777315169314132e+16,9009143850012348.0,1.5466429374743116e+16,323163051270.45715,1213122384410.028,47539104365885.53,1757796917457547.8
21.91439389707817,2.174237972973985e+16,4.837789208809964e+16,9114648218917486.0,1.5647553788322142e+16,335039393017.1586,1257705055775.824,49286257844975.78,1822431348826508.8
22.452681775019734,2.199555130676949e+16,4.8987930539621096e+16,9220780569683746.0,1.5829756288607126e+16,347289734507.1159,1303691689748.2576,51088435103056.9,1889102958033460.8
23.00173541052013,2.2250235550096596e+16,4.960335919319765e+16,9327547047058780.0,1.6013047424584488e+16,359924918196.69037,1351122988107.6165,52947231503796.45,1957870892047703.5
23.561770118730532,2.2506446733242836e+16,5.022427105293344e+16,9434953634662562.0,1.6197437468625206e+16,372956085539.1027,1400040775053.1846,54864286414693.49,2028795933127491.5
24.133005521105144,2.2764198746136292e+16,5.085076002600217e+16,9543006155308482.0,1.638293641703575e+16,386394684566.5739,1450488025666.5232,56841284323394.14,2101940540488020.0
24.715665631527248,2.3023505095304348e+16,5.148292096683099e+16,9651710271083988.0,1.656955399019688e+16,400252477639.12994,1502508895000.4775,58879955978562.39,2177368892894582.8
25.309978944157795,2.328437890352051e+16,5.2120849721079944e+16,9761071483202548.0,1.675729963230957e+16,414541549362.4629,1556148747802.7954,60982079555663.664,2255146932194551.5
25.91617852304095,2.3546832908930504e+16,5.276464316948773e+16,9871095131637658.0,1.6946182510765992e+16,429274314677.24603,1611454188883.421,63149481848015.5,2335342407801974.0
26.53450209350177,2.3810879463682264e+16,5.341439927164669e+16,9981786394547936.0,1.7136211515163534e+16,444463527122.26544,1668473094134.3071,65384039483450.66,2418024922148427.5
27.165192135371807,2.4076530532080556e+16,5.407021710977134e+16,1.0093150287504046e+16,1.7327395255976822e+16,460122287273.7207,1727254642210.597,67687680166944.58,2503265977113592.5
27.808495978079243,2.4343797688289056e+16,5.4732196932514664e+16,1.020519166252498e+16,1.7519742062903738e+16,476264051362.9846,1787849346881.7524,70062383949545.68,2591139021449073.0
28.464665897640828,2.4612692113597916e+16,5.540044019889296e+16,1.0317915206933032e+16,1.7713259982899328e+16,492902640075.15344,1850309090061.408,72510184523948.34,2681719499208571.0
29.133959215593645,2.4883224593277692e+16,5.607504962237106e+16,1.0431325442034418e+16,1.790795677791128e+16,510052247530.59784,1914687155524.1875,75033170547042.83,2775084899197703.0
29.816638399905518,2.5155405513035736e+16,5.675612921515919e+16,1.0545426721634088e+16,1.8103839922329732e+16,527727450451.7556,1981038263318.023,77633486989766.7,2871314805456166.5
30.51297116790363,2.542924485509272e+16,5.744378433276974e+16,1.0660223230391016e+16,1.8300916600163836e+16,545943217517.32294,2049418604879.913,80313336514583.89,2970490948785187.0
31.223230591261704,2.5704752193896796e+16,5.8138121718886184e+16,1.0775718982021234e+16,1.8499193701956916e+16,564714918905.9923,2119885878863.3281,83074980880902.19,3072697259332581.5
31.947695203086937,2.5981936691488796e+16,5.883924955058557e+16,1.089191781735505e+16,1.8698677821451492e+16,584058336031.7921,2192499327684.912,85920742378740.22,3178019920247769.5
32.686649107148675,2.626080709253563e+16,5.9547277483961144e+16,1.1008823402255154e+16,1.889937525201435e+16,603989671473.0859,2267319774798.1357,88853005290942.8,3286547422418721.5
33.44038208929165,2.6541371719045736e+16,6.0262316700188856e+16,1.1126439225400864e+16,1.910129198283368e+16,624525559097.1572,2344409662701.3867,91874217384236.25,3398370620302472.0
34.20918973107749,2.6823638464780684e+16,6.098447995207963e+16,1.124476859594575e+16,1.930443369489702e+16,645683074382.3337,2423833091687.421,94986891429408.22,3513582788860688.5
34.993373525699035,2.7107614789376652e+16,6.1713881611157064e+16,1.1363814641053226e+16,1.950880575676082e+16,667479744939.4692,2505655859341.472,98193606750880.4,3632279681611291.0
35.793240996213015,2.7393307712190052e+16,6.245063771530261e+16,1.1483580303316506e+16,1.97144132201212e+16,689933561234.55,2589945500794.253,101497010805948.3,3754559589806803.5
36.60910581613728,2.768072380588042e+16,6.319486601700516e+16,1.1604068338068416e+16,1.9921260815195336e+16,713062987514.1434,2676771329736.585,104899820793925.25,3880523402749834.0
37.44128793246003,2.796986918974214e+16,6.394668603225557e+16,1.1725281310586212e+16,2.0129352945923204e+16,736886972935.2958,2766204480201.5024,108404825295443.48,4010274669255520.0
38.29011369110923,2.826074952280116e+16,6.470621909012165e+16,1.1847221593197336e+16,2.0338693684998492e+16,761424962901.439,2858317949119.769,112014885942138.19,4143919660270465.0
39.15591596493141,2.8553369996686156e+16,6.547358838304092e+16,1.1969891362291252e+16,2.0549286768739052e+16,786696910605.7211,2953186639654.1562,115732939116925.2,4281567432657239.0
40.03903428423004,2.884773532828966e+16,6.624891901786878e+16,1.2093292595242642e+16,2.076113559180444e+16,812723288783.1533,3050887405317.6143,119561997685082.83,4423329894152894.5
40.93981496991464,2.9143849752230224e+16,6.703233806771591e+16,1.2217427067251566e+16,2.0974243201771644e+16,839525101672.8322,3151499094880.202,123505152756322.55,4569321869509685.0
