t(s),Total solute volume 1,Total retention volume 1,Total 1 volume 1,Total 2 volume 1,Total 3 volume 1,Total 4 volume 1,Total 5 volume 1,Total 6 volume 1
0.1,821307387244814.4,914309965951331.9,46537842289353.97,46464736417161.86,0.0,0.0,0.0,0.0
0.202,1237565646288736.5,1377744077685159.5,70124335693357.28,70014178179850.39,110713531.0983574,180564192.89292264,2048240549.995961,37578004941.81677
0.30604000000000003,1554535523772993.0,1730668114125759.5,88084839179576.08,87946467737727.16,280913866.07817477,458146273.4521323,5197013775.124966,95347361549.64621
0.41216080000000005,1822625498481664.0,2029194481720546.2,103275654668025.05,103113420157877.84,498982439.82590973,813797373.9697179,9231369804.206038,169364263361.14774
0.5204040160000001,2060695352544327.5,2294316733224674.5,116765436335860.42,116582010888590.73,759763354.5099285,1239108685.2929544,14055922385.846306,257878661474.02338
0.6308120963200001,2278139798800393.5,2536492415552135.5,129086517962643.2,128883737474307.67,1060490740.817384,1729569328.7221868,19619501926.955635,359951752794.0509
0.7434283382464002,2480418661889049.5,2761799038520256.5,140548270269309.67,140327484649728.95,1399582930.7624195,2282599755.954638,25892847083.242447,475046682403.6736
0.8582969050113283,2671029385209133.0,2974129764442928.0,151348869325039.8,151111117171822.66,1776147100.1149282,2896743863.8389025,32859440419.94026,602860405547.6254
0.9754628431115548,2852368519605848.0,3176152361423741.0,161624111187653.6,161370217778093.03,2189735223.1337686,3571270977.777311,40510993469.13297,743240852470.736
1.094972099973786,3026161670418102.0,3369787787692306.0,171471774046509.88,171202411059351.3,2640208929.1093097,4305955444.548364,48844946519.280334,896141057447.5931
1.2168715419732616,3193699517946061.0,3556472909099651.5,180964991879545.97,180680716108261.6,3127658300.4375987,5100944199.090789,57862966346.488396,1061591596933.1139
1.3412089728127268,3355977015160502.0,3737315440513264.5,190160141830349.97,189861421506240.28,3652350068.4052434,5956672276.403608,67569987815.952194,1239683006013.938
1.4680331522689813,3513780217688808.0,3913190595720969.0,199101764266431.6,198788997652867.66,4214693027.9282913,6873806406.067043,77973574041.30362,1430554039383.3022
1.597393815314361,3667742947141581.0,4084804158533990.5,207825773500322.53,207499302443313.5,4815214124.330029,7853206011.933672,89083473981.14624,1634383554655.955
1.729341691620648,3818385166737042.0,4252735197835376.0,216361632272346.47,216021752335234.38,5454541463.604653,8895895503.426134,100911308122.9716,1851384745674.3994
1.863928525453061,3966139792336638.5,4417465910179385.0,224733870947654.72,224380839159321.5,6133391987.438063,10003044174.65136,113470340467.03975,2081800959140.7139
2.001207095962122,4111371925782543.0,4579403027785091.0,232963177337211.16,232597218228301.94,6852562393.285687,11175951395.92373,126775310545.17798,2325902612694.475
2.1412312378813647,4254392969661167.0,4738893529528514.0,241067196486057.9,240688506872560.8,7612922376.165907,12416035606.535952,140842311380.31357,2583985239355.6426
2.284055862638992,4395471194604760.5,4896236401638548.0,249061129442871.8,248669882253941.16,8415409564.118672,13724825996.21904,155688683860.13574,2856366417557.8594
2.4297369798917723,4534839785800313.0,5051691596092571.0,256958189210601.2,256554536623219.0,9261025738.282171,15103956428.596716,171332964678.82376,3143386511593.257
2.578331719489608,4672703069908147.0,5205486960247850.0,264769953576137.3,264354029579874.1,10150834011.469341,16555160781.14283,187794822241.49298,3445406366659.2515
2.7298983538794,4809241397206733.0,5357823671430954.0,272506641749677.38,272078564280862.53,11085956767.120413,18080269598.550224,205095021507.4658,3762806945818.1445
2.884496320956988,4944615018143659.0,5508880551929866.0,280177334022204.88,279737206753043.12,12067574192.68137,19681207700.913292,223255396858.5563,4095988832204.2505
3.0421862473761276,5078967195675636.0,5658817533410192.0,287790148120403.9,287338061971056.2,13096923290.842522,21359992571.262806,242298833808.02325,4445371893423.883
3.2030299723236504,5212426729413965.0,5807778466671776.0,295352382232621.9,294888416658610.06,14175297279.889193,23118733377.717472,262249257908.335,4811395078029.537
3.3670905717701234,5345110021664917.0,5955893421541516.0,302870632077176.25,302394856172884.4,15304045315.487543,24959630519.8719,283131629605.68335,5194516321096.489
3.5344323832055258,5477122782811164.0,6103280585364094.0,310350887534589.44,309863360984965.6,16484572481.735783,26884975614.34172,304971944076.10657,5595212541194.827
3.7051210308696363,5608561449928847.0,6250047842338706.0,317798613030867.7,317299386936856.7,17718340010.88247,28897151853.251244,327797235292.1323,6013979714976.751
3.879223451487029,5739514375310880.0,6396294096777620.0,325218814882938.1,324707932481123.2,19006865699.858135,30998634683.714016,351635583730.6359,6451333018567.012
4.0568079205167695,5870062828810444.0,6542110389164349.0,332616098094576.25,332093595387589.2,20351724498.446495,33191992767.251087,376516127256.1978,6907807027212.475
4.237944078927105,6000281848361791.0,6687580843251786.0,339994714549553.5,339460620860792.75,21754549249.086594,35479889186.514206,402469074809.7978,7383955966399.09
4.422702960505647,6130240965797537.0,6832783474384765.0,347358604138722.56,346812942602459.44,23217031562.324787,37865082873.250786,429525722607.19055,7880354009012.015
4.61115701971576,6260004829547378.0,6977790883071436.0,354711430044078.0,354154218040132.4,24740922815.109493,40350430236.624435,457718472610.0388,8397595614192.024
4.803380160110075,6389633741529649.0,7122670853071383.0,362056609160693.1,361487858701324.25,26328035261.644474,42938886975.11846,487080853079.5377,8936295904397.49
4.9994477633122765,6519184122220583.0,7267486869566256.0,369397338449013.3,368817056524411.25,27980243248.537285,45633510058.54562,517647541059.6732,9497091077867.145
5.199436718578522,6648708915275464.0,7412298570072418.0,376736617861940.1,376144806749707.7,29699484527.615444,48437459869.35705,549454386667.49744,10080638854234.354
5.403425452950093,6778257941010272.0,7557162138456582.0,384077270374217.5,383473927917376.44,31487761661.11031,51354002494.60553,582538439092.3944,10687618951493.678
5.611493962009095,6907878206408098.0,7702130650585038.0,391421959548362.44,390807079405776.06,33347143515.004364,54386512161.70785,616937974226.5289,11318733592892.938
5.823723841249277,7037614177996258.0,7847254378669352.0,398773204996723.1,398146776869224.6,35279766837.23623,57538473812.61586,652692523865.3746,11974708042629.053
6.040198318074262,7167508022874803.0,7992581060187351.0,406133396038919.75,405495405873988.8,37287837918.21342,60813485812.237495,689842906431.1105,12656291169481.545
6.261002284435747,7297599822315224.0,8138156136296708.0,413504803805009.94,412855233982434.94,39373634331.71105,64215262787.973015,728431259183.375,13364256037731.988
6.486222330124463,7427927761641789.0,8284022963874089.0,420889591994758.94,420228421495396.5,41539506754.76769,67747638598.10563,768501071891.6544,14099400524898.139
6.715946776726952,7558528299530459.0,8430223004669418.0,428289826470645.44,427617031030114.2,43787880865.644844,71414569427.52109,810097221952.1069,14862547965965.314
6.950265712261491,7689436319382693.0,8576795994533127.0,435707483835169.9,435023036084067.8,46121259319.304504,75220137009.86806,853266010938.6414,15654547823930.64
7.18927102650672,7820685265036598.0,8723780095234958.0,443144459120681.6,442448328712719.75,48542223800.19408,79168551975.81978,898055202584.4823,16476276386588.15
7.433056447036854,7952307262748412.0,8871212031026404.0,450602572701220.1,449894726430507.7,51053437152.42363,83264157327.57141,944514062195.69,17328637489584.09
7.681717575977592,8084333231102292.0,9019127211792516.0,458083576520354.6,457363978428893.4,53657645587.67362,87511432040.12839,992693397502.992,18212563265856.94
7.935351927497144,8216792980275460.0,9167559844381880.0,465589159715854.3,464857771192198.1,56357680971.40131,91914994790.3136,1042645600962.3817,19129014921655.004
8.194058966047088,8349715301890851.0,9316543033486722.0,473120953711022.2,472377733580940.44,59156463188.113594,96479607814.74591,1094424693518.7574,20078983539393.168
8.45794014536803,8483128050524777.0,9466108873262030.0,480680536833167.7,479925441443057.94,62057002586.6588,101210180898.344,1148086369850.1912,21063490907670.504
8.72709894827539,8617058217797130.0,9616288530716348.0,488269438511798.4,487502421805490.6,65062402506.65149,106111775495.17392,1203688045113.4758,22083590378828.55
9.0016409272409,8751531999852493.0,9767112321775242.0,495889143102302.3,495110156691872.9,68175861887.297386,111189608983.70874,1261288903214.3916,23140367754479.566
9.281673745785717,8886574858938767.0,9918609780803364.0,503541093375190.6,502750086606285.9,71400677960.02145,116449059058.78967,1320949946628.7004,24234942199481.73
9.567307220701432,9022211579702146.0,1.0070809724276162e+16,511226693705945.06,510423613718092.6,74740249026.4342,121895668262.79115,1382734047802.1968,25368467184880.94
9.85865336511546,9158466320742430.0,1.0223740309205904e+16,518947312996303.44,518132104778638.6,78198077323.28418,127535148658.68541,1446706002160.489,26542131460381.637
10.155826432417769,9295362661907706.0,1.0377429086857066e+16,526704287354120.0,525876893796903.75,81777771976.17102,133373386647.88997,1512932582761.0754,27757160056944.277
10.458942961066125,9432923647751108.0,1.0531903052221636e+16,534498922555766.94,533659284498032.3,85483052043.88097,139416447935.95026,1581482596622.508,29014815320147.69
10.768121820287448,9571171827523926.0,1.0687188689672162e+16,542332496312270.2,541480552585906.25,89317749655.32959,145670582649.28644,1652426942767.1392,30316397974983.71
11.083484256693197,9710129292037064.0,1.0843312015162268e+16,550206260357984.56,549341947828550.3,93285813241.18045,152142230606.38034,1725838672015.8337,31663248222791.31
11.405153941827061,9849817707685198.0,1.1000298615303992e+16,558121442378519.3,557244695983012.06,97391310862.30846,158838026746.9495,1801793048574.7832,33056746871064.098
11.733257020663602,9990258347896744.0,1.1158173683614906e+16,566079247792787.5,565190000574630.1,101638433637.37143,165764806722.78738,1880367613456.3333,34498316496899.54
12.067922161076874,1.013147212224369e+16,1.1316962054196614e+16,574080861402460.6,573179044543884.5,106031499271.83836,172929612654.1189,1961642249777.242,35989422644887.73
12.409280604298411,1.0273479603420592e+16,1.1476688233078962e+16,582127448920681.9,581212991772710.1,110574955690.91191,180339699055.43323,2045699249979.5835,37531575060267.98
12.75746621638438,1.0416301052280638e+16,1.1637376427439182e+16,590220158390690.1,589292988500900.2,115273384778.87692,188002538934.93536,2132623385021.0344,39126328958210.32
13.112615540712067,1.055995644109664e+16,1.1799050572884582e+16,598360121503853.5,597420164642067.1,120131506227.48004,195925830071.8627,2222501975582.875,40775286330108.31
13.474867851526309,1.0704465475198464e+16,1.1961734358968052e+16,606548454825722.4,605595635007753.1,125154181496.04088,204117501476.0746,2315424965345.626,42480097287798.95
13.844365208556836,1.084984761312252e+16,1.2125451253088662e+16,614786260937760.1,613820500447397.0,130346417886.07463,212585720034.4491,2411484996383.8276,44242461446653.62
14.221252512727972,1.0996122085396826e+16,1.2290224522914972e+16,623074629501759.9,622095848911051.2,135713372733.2908,221338897348.7637,2510777486732.9175,46064129348511.33
14.605677562982532,1.1143307912071082e+16,1.2456077257455512e+16,631414638253156.6,630422756441149.9,141260357719.91263,230385696769.8702,2613400710182.823,47946903925456.65
14.997791114242183,1.1291423919092842e+16,1.2623032386888552e+16,639807353928953.8,638802288098970.2,146992843310.35675,239735040633.1035,2719455878354.318,49892642005468.42
15.397746936527026,1.1440488753619816e+16,1.279111270125321e+16,648253833135357.9,647235498830910.4,152916463313.37204,249396117700.0114,2829047225115.8965,51903255860998.11
15.805701875257567,1.1590520898349824e+16,1.2960340868094124e+16,656755123159771.9,655723434279199.9,159037019573.8484,259378390811.6211,2942282093400.111,53980714801561.55
16.221815912762718,1.1741538684943254e+16,1.3130739449143334e+16,665312262731335.6,664267131541253.8,165360486797.5573,269691604758.57117,3059271024480.1094,56127046811454.89
16.64625223101797,1.1893560306604388e+16,1.3302330916115046e+16,673926282733845.2,672867619881460.6,171893017512.1916,280345794373.6134,3180127849768.6924,58344340233733.44
17.079177275638333,1.204660382988279e+16,1.3475137665682902e+16,682598206874435.4,681525921398828.5,178640947168.1268,291351292852.0607,3304969785202.956,60634745501622.32
17.5207608211511,1.2200687205749238e+16,1.3649182033700546e+16,691329052311191.1,690243051653595.0,185610799382.42963,302718740305.9308,3433917528280.1025,63000476918544.26
17.97117603757412,1.2355828279995686e+16,1.3824486308723424e+16,700119830242436.1,699020020255604.0,192809291329.68198,314459092557.6242,3567095357810.3364,65443814487986.29
18.430599558325603,1.2512044803003422e+16,1.4001072744880928e+16,708971546460219.5,707857831416923.0,200243339283.28284,326583630179.1001,3704631236454.6636,67967105794441.25
18.899211549492115,1.2669354438918678e+16,1.4178963574144774e+16,717885201870254.2,716757484470943.6,207920064310.9412,339103967782.6129,3846656916116.325,70572767936686.27
19.37719578048196,1.2827774774270414e+16,1.4358181018033194e+16,726861792980211.5,725719974359933.1,215846798128.13556,352032063569.1761,3993308046255.7197,73263289514678.69
19.864739696091597,1.2987323326060342e+16,1.4538747298786004e+16,735902312358128.5,734746292092714.4,224031089113.35968,365380229140.9834,4144724285199.648,76041232671366.3
20.36203449001343,1.3148017549350416e+16,1.4720684650040014e+16,745007749062342.6,743837425173919.1,232480708489.01306,379161139584.08765,4301049414516.2144,78909235190719.34
20.869275179813698,1.330987484436892e+16,1.49040153270294e+16,754179089044146.5,752994358006017.8,241203656671.82068,393387843827.67865,4462431456527.357,81870012653304.64
21.38666068340997,1.3472912563150864e+16,1.5088761616330748e+16,763417315524049.8,762218072264983.4,250208169796.67004,408073775286.2935,4629022795030.879,84926360650717.0
21.91439389707817,1.3637148015724238e+16,1.5274945845165524e+16,772723409342310.6,771509547250277.2,259502726417.73975,423232762791.3098,4800980299303.931,88081157060187.36
22.452681775019734,1.380259847584725e+16,1.5462590390269056e+16,782098349284030.9,780869760209430.1,269096054390.7587,438879041817.96014,4978465451458.807,91337364380663.6
23.00173541052013,1.3969281186297574e+16,1.5651717686326508e+16,791543112378854.0,790299686637274.6,278997137940.1659,455027266014.04236,5161644477220.982,94698032131649.34
23.561770118730532,1.4137213363707518e+16,1.584235023397216e+16,801058674174951.1,799800300549489.5,289215224914.83575,471692519036.3068,5350688480197.317,98166299316040.52
24.133005521105144,1.430641220293323e+16,1.6034510607338384e+16,810646008986578.5,809372574729784.6,299759834235.9118,488890326700.286,5545773579699.783,101745396948159.31
24.715665631527248,1.4476894880938882e+16,1.6228221461136e+16,820306090114183.6,819017480949644.4,310640763540.0814,506636669449.0392,5747081052186.852,105438650648120.81
25.309978944157795,1.4648678560170028e+16,1.6423505537236864e+16,830039890035538.8,828735990159174.8,321868097021.4027,524947995145.8738,5954797476379.777,109249483303586.11
25.91617852304095,1.4821780391381618e+16,1.662038567072234e+16,839848380565993.4,838529072647088.4,333452213474.51447,543841232195.6626,6169114882106.416,113181417799855.16
26.53450209350177,1.4996217515878848e+16,1.6818884795351378e+16,849732532985438.9,848397698167487.1,345403794541.6545,563333802998.7544,6390230902917.706,117238079819136.17
27.165192135371807,1.5172007067119232e+16,1.7019025948391918e+16,859693318129094.2,858342836030489.4,357733833165.557,583443637740.8129,6618348932514.851,121423200709677.45
27.808495978079243,1.534916617161592e+16,1.722083227474901e+16,869731706438680.6,868365455153340.0,370453642249.7131,604189188521.0493,6853678285014.836,125740620425276.78
28.464665897640828,1.5527711949072258e+16,1.7424327030312254e+16,879848667970066.0,878466524068023.8,383574863526.9418,625589443820.4017,7096434359072.266,130194290535482.55
29.133959215593645,1.5707661511667934e+16,1.7629533584433966e+16,890045172352792.1,888647010880873.5,397109476636.5104,647663943310.0438,7346838805861.674,134788277306573.14
29.816638399905518,1.5889031962406692e+16,1.7836475421437738e+16,900322188696467.9,898907883179099.8,411069808409.2734,670432792999.376,7605119700910.702,139526764853125.94
30.51297116790363,1.6071840392426614e+16,1.804517614104612e+16,910680685438349.6,909250107878610.4,425468542359.4164,693916680721.1957,7871511719757.901,144414058359703.12
31.223230591261704,1.6256103877162292e+16,1.825565945760466e+16,921121630125885.6,919674651006901.0,440318728380.38495,718136891950.1401,8146256317391.211,149454587371830.44
31.947695203086937,1.6441839471240688e+16,1.846794919796757e+16,931645989127501.0,930182477414291.9,455633792641.5196,743115325948.6908,8429601911401.847,154652909155086.75
32.686649107148675,1.6629064201981492e+16,1.8682069297901356e+16,942254727264295.5,940774550406208.0,471427547680.6603,768874512233.0762,8721804068767.222,160013712120698.03
33.44038208929165,1.6817795061365496e+16,1.8898043796851044e+16,952948807354964.4,951451831288802.8,487714202686.7175,795437627349.2423,9023125696150.684,165541819315595.5
34.20918973107749,1.7008048996326652e+16,1.9115896830905944e+16,963729189665695.1,962215278819731.6,504508373964.69946,822828511946.721,9333837233580.86,171242191974400.44
34.993373525699035,1.7199842897216054e+16,1.933565262379344e+16,974596831256517.0,973065848555528.6,521825095574.2265,851071688135.7086,9654216851343.232,177119933130272.03
35.793240996213015,1.739319358428263e+16,1.9557335475722716e+16,985552685215252.2,984004492086740.5,539679830130.8368,880192377109.9805,9984550649887.43,183180291281008.1
36.60910581613728,1.7588117792009704e+16,1.978096974989696e+16,996597699769967.9,995032156151804.6,558088479757.6862,910216517015.4071,10325132862520.307,189428664106183.78
37.44128793246003,1.7784632151146124e+16,2.000657985650671e+16,1007732817270815.0,1006149781620456.2,577067397173.3848,941170781040.8408,10676266060621.836,195870602230484.34
38.29011369110923,1.7982753168269252e+16,2.023419023402021e+16,1018958973031988.1,1017358302337532.4,596633396899.769,973082595704.9835,11038261361083.496,202511813027748.47
39.15591596493141,1.8182497202720104e+16,2.0463825327584076e+16,1030277094024819.9,1028658643818096.9,616803766571.4497,1005980159309.5769,11411438635634.232,209358164459546.06
40.03903428423004,1.8383880440754344e+16,2.069550956435443e+16,1041688097413072.8,1040051721785058.4,637596278326.8599,1039892460525.9484,11796126721678.281,216415688941417.97
40.93981496991464,1.858691886675955e+16,2.0929267325583172e+16,1053192888922038.8,1051538440540800.0,659029200258.4574,1074849297078.4114,12192663634232.459,223690587229196.47
41.85861126931294,1.8791628231397748e+16,2.1165122915294004e+16,1064792361033382.0,1063119691164887.2,681121307897.5927,1110881294484.6206,12601396778509.14,231189232317085.8
42.7957834946992,1.899802401654396e+16,2.140310052539455e+16,1076487390998454.8,1074796349530488.2,703891895707.3654,1148019924809.424,13022683162652.668,238918173338472.56
43.751699164593184,1.920612139690462e+16,2.1643224197084784e+16,1088278838663470.2,1086569274132974.0,727360788554.6908,1186297525385.2222,13456889610095.86,246884139459668.28
44.72673314788505,1.9415935198216056e+16,2.188551777843965e+16,1100167544100908.5,1098439303725028.6,751548353130.6096,1225747317448.4272,13904392970964.977,255094043756111.84
45.721267810842754,1.9627479851941948e+16,2.21300048780638e+16,1112154325042524.2,1110407254753701.4,776475509285.83,1266403424638.1577,14365580331922.127,263554987059803.3
