t(s),Total solute volume 1,Total retention volume 1,Total 1 volume 1,Total 2 volume 1,Total 3 volume 1,Total 4 volume 1,Total 5 volume 1,Total 6 volume 1
0.1,1117071271046687.6,1512117690109863.2,171218609237430.47,223827809825744.56,0.0,0.0,0.0,0.0
0.202,1373777049636305.8,2632873669828688.5,210565077228081.53,275264014668715.7,515854516789.2313,1273723109088.67,26900899793797.04,744577050875911.6
0.30604000000000003,1487363966915480.8,3705024916550685.5,227975062746265.7,298023452830982.1,1128067155851.5059,2785543259436.916,58833063431971.516,1628915760210697.0
0.41216080000000005,1550728102306212.2,4771480054929718.0,237687173114997.47,310719739885699.9,1781700055992.8938,4399840089674.849,92930383914110.4,2573233115563031.5
0.5204040160000001,1590835355452391.8,5845520699260867.0,243834594947329.97,318756039861831.25,2461309068487.816,6078497307794.548,128387598178899.14,3555167304444131.0
0.6308120963200001,1618355620640395.5,6932917103954295.0,248052751662843.6,324270282049060.1,3161122954619.169,7807279839417.664,164903989442790.1,4566366057365172.0
0.7434283382464002,1638333665176482.8,8036757170775464.0,251114877780748.1,328273287677716.94,3878651518206.1177,9580053553855.809,202349983415322.5,5603226651653135.0
0.8582969050113283,1653453977566927.0,9158961597056856.0,253432437111453.12,331302948350013.8,4612753568298.427,11394015449349.879,240666380092215.4,6664099084918615.0
0.9754628431115548,1665271769597562.2,1.0300873241266936e+16,255243804066340.6,333670882222679.75,5362920355176.642,13247924608174.344,279826981199361.75,7748248959217629.0
1.094972099973786,1674747897685440.0,1.1463522010465678e+16,256696253495716.34,335569616325757.8,6128970034814.51,15141347906047.94,319822655195069.56,8855415269822835.0
1.2168715419732616,1682506775628226.5,1.2647757081858314e+16,257885492153479.66,337124264601528.75,6910903359487.234,17074303762048.846,360653811168816.9,9985601531184746.0
1.3412089728127268,1688971078393809.8,1.3854318414988828e+16,258876305361971.72,338419518534835.4,7708829945143.402,19047080132453.72,402326553781156.4,1.1138969048839458e+16
1.4680331522689813,1694436718644947.2,1.5083877973174058e+16,259714049006236.9,339514670217156.2,8522928176740.12,21060135553078.1,444850592682225.44,1.231577887889367e+16
1.597393815314361,1699116805407960.0,1.633706475632771e+16,260431387279876.94,340452420355514.3,9353422276467.871,23114042555889.977,488238047136214.5,1.351635863131579e+16
1.729341691620648,1703168558000384.0,1.7614480683295564e+16,261052417905628.88,341264271022578.94,10200568632863.8,25209453951093.043,532502733711472.1,1.4741082680071552e+16
1.863928525453061,1706710400153247.8,1.8916711055146724e+16,261595292229536.34,341973950810025.44,11064647366715.504,27347082039784.766,577659727151430.0,1.5990359955395984e+16
2.001207095962122,1709833164719048.2,2.024433168027971e+16,262073932617702.66,342599659918556.56,11945956978692.586,29527685436659.562,623725082023694.4,1.7264626198585356e+16
2.1412312378813647,1712607641776234.8,2.1597913872646644e+16,262499189388730.56,343155582573404.1,12844810873956.732,31752060528418.383,670715652310286.1,1.8564338935195596e+16
2.284055862638992,1715089786930935.8,2.2978028054762428e+16,262879639113909.2,343652930612995.0,13761535064816.488,34021035842342.777,718648972484207.4,1.9889974154713188e+16
2.4297369798917723,1717324392193341.8,2.4385246421903956e+16,263222147269198.88,344100679023336.75,14696466632604.822,36335468291056.02,767543178227783.8,2.1242024090266652e+16
2.578331719489608,1719347722630984.5,2.582014496036538e+16,263532272367120.34,344506094244871.4,15649952690554.041,38696240655993.85,817416953324819.0,2.2620995724451052e+16
2.7298983538794,1721189442552342.8,2.728330501246776e+16,263814561191710.03,344875120122344.4,16622349684381.672,41104259906506.39,868289494210760.0,2.4027409784799692e+16
2.884496320956988,1722874044340051.2,2.8775314517985092e+16,264072767802312.97,345212664200463.44,17614022924976.547,43560456093912.09,920180486673444.8,2.54618000759499e+16
3.0421862473761276,1724421923143905.0,3.0296769021007876e+16,264310018256684.6,345522813060395.3,18625346283477.81,46065781648470.15,973110091069889.8,2.6924713047545092e+16
3.2030299723236504,1725850195477160.8,3.1848272504484324e+16,264528936080984.9,345808996342103.8,19656702001885.906,48621210963650.19,1027098933616403.4,2.841670753000215e+16
3.3670905717701234,1727173329985276.5,3.3430438096683844e+16,264731738950585.4,346074113131634.9,20708480587178.06,51227740188700.48,1082168102083005.9,2.993835459175747e+16
3.5344323832055258,1728403638665681.2,3.504388868151493e+16,264920313981563.03,346320630386943.75,21781080766702.363,53886387174723.09,1138339144734691.5,3.149023748580462e+16
3.7051210308696363,1729551663168561.8,3.668925743606558e+16,265096276940788.97,346550660341074.0,22874909489214.934,56598191535738.46,1195634071705784.5,3.307295166288445e+16
3.879223451487029,1730626481345492.0,3.836718831269009e+16,265261019232035.62,346766021925383.3,23990381960421.77,59364214797324.88,1254075358228330.0,3.4687104835201144e+16
4.0568079205167695,1731635952557717.2,4.007833647863859e+16,265415745495497.06,346968289922022.6,25127921704994.855,62185540613104.3,1313685949297768.5,3.6333317079047464e+16
4.237944078927105,1732586915513993.5,4.182336872308977e+16,265561503931300.06,347158834604756.3,26287960649216.633,65063275034732.19,1374489265473068.2,3.80122209678827e+16
4.422702960505647,1733485348987693.2,4.360296383914574e+16,265699210933347.2,347338853941880.8,27470939219950.9,67998546824876.18,1436509209589249.2,3.972446172964871e+16
4.61115701971576,1734336503267890.5,4.541781298664108e+16,265829671237424.1,347509399935115.06,28677306456749.902,70992507805408.17,1499770174218146.8,4.147069742372041e+16
4.803380160110075,1735145008359869.8,4.726862004034099e+16,265953594505589.62,347671400299765.6,29907520134709.8,74046333235027.0,1564297049755457.2,4.325159913405058e+16
4.9994477633122765,1735914963581164.5,4.915610192713456e+16,266071609058965.44,347825676417100.9,31162046896277.37,77161222211985.92,1630115233042750.5,4.506785117592632e+16
5.199436718578522,1736650012170008.5,5.108098895509388e+16,266184273313315.5,347972958283666.7,32441362390642.074,80338398098671.8,1697250636456020.0,4.692015131438156e+16
5.403425452950093,1737353403743269.2,5.304402513669852e+16,266292085352260.66,348113897026001.8,33745951419674.273,83579108965594.56,1765729697409217.8,4.88092109927824e+16
5.611493962009095,1738028046844774.0,5.504596850808621e+16,266395490981598.34,348249075429753.4,35076308089610.73,86884628052940.17,1835579388234065.5,5.073575557045346e+16
5.823723841249277,1738676553365899.5,5.708759144584804e+16,266494890537849.72,348379016840244.2,36432935967872.97,90256254248304.69,1906827226407088.5,5.2700524568480824e+16
6.040198318074262,1739301276264164.2,5.916968098261133e+16,266590644669560.44,348504192720155.0,37816348244542.79,93695312579573.4,1979501285102217.8,5.470427192303117e+16
6.261002284435747,1739904341727514.0,6.129303912244295e+16,266683079267270.34,348625029094294.3,39227067898127.19,97203154722178.38,2053630204052939.0,5.6747766245680664e+16
6.486222330124463,1740487676713289.5,6.3458483156933816e+16,266772489684530.38,348741912067580.75,40665627865325.61,100781159520177.2,2129243200712534.2,5.883179109037037e+16
6.715946776726952,1741053032617792.8,6.566684598268683e+16,266859144365853.25,348855192567727.25,42132571214577.586,104430733520760.0,2206370081704225.8,6.095714522669589e+16
6.950265712261491,1741602005694968.8,6.791897642082212e+16,266943287976371.16,348965190436531.44,43628451323217.61,108153311521914.11,2285041254555903.5,6.312464291931312e+16
7.18927102650672,1742136054732326.8,7.021573953902253e+16,267025144111109.25,349072197971610.6,45153832058101.484,111950357133086.31,2365287739716175.5,6.533511421330018e+16
7.433056447036854,1742656516403874.8,7.25580169765714e+16,267104917648198.38,349176483002666.06,46709287959602.5,115823363348754.19,2447141182850278.0,6.75894052253579e+16
7.681717575977592,1743164618648059.8,7.494670727277086e+16,267182796799372.6,349278291572029.1,48295404428893.42,119773853134892.72,2530633867415708.0,6.9888378440771976e+16
7.935351927497144,1743661492360604.0,7.738272619908685e+16,267258954902185.06,349377850277556.7,49912777918456.04,123803380028365.5,2615798727518613.0,7.223291301608109e+16
8.194058966047088,1744148181644638.8,7.986700709531698e+16,267333551991091.5,349475368326451.75,51562016125768.11,127913528749324.67,2702669361052918.5,7.462390508742686e+16
8.45794014536803,1744625652821603.5,8.240050121005461e+16,267406736178593.1,349571039340781.1,53243738190133.92,132105915826726.31,2791280043124867.0,7.706226808457189e+16
8.72709894827539,1745094802374299.2,8.498417804568474e+16,267478644872702.78,349665042949024.56,54958574892631.59,136382190237113.42,2881665739766428.5,7.954893305059262e+16
9.0016409272409,1745556463967053.8,8.761902570813046e+16,267549405852960.66,349757546192710.7,56707168859156.63,140744034056828.38,2973862121941413.5,8.208484896726038e+16
9.281673745785717,1746011414665953.2,9.030605126154611e+16,267619138223833.88,349848704772763.44,58490174766549.266,145193163127850.78,3067905579848754.5,8.467098308614032e+16
9.567307220701432,1746460380463760.2,9.304628108813498e+16,267687953261550.47,349938664156532.3,60308259551793.79,149731327737468.4,3163833237527763.0,8.730832126543624e+16
9.85865336511546,1746904041198926.0,9.584076125326293e+16,267755955168053.75,350027560563414.25,62162102624284.88,154360313312010.06,3261682967770499.0,8.999786831262566e+16
10.155826432417769,1747343034945094.0,9.869055787601514e+16,267823241743806.0,350115521844385.06,64052396081154.03,159081941124876.47,3361493407346780.0,9.274064833292898e+16
10.458942961066125,1747777961936963.5,1.0159675750534398e+17,267889904989521.22,350202668268617.3,65979844925655.125,163898069019129.28,3463303972547623.5,9.553770508365638e+16
10.768121820287448,1748209388088951.2,1.0456046750194216e+17,267956031645486.44,350289113228522.8,67945167288604.31,168810592144899.3,3567154875053154.0,9.839010233449243e+16
11.083484256693197,1748637848155648.8,1.0758281642596528e+17,268021703675979.84,350374963873010.4,69949094652874.41,173821443711894.12,3673087138131361.5,1.0129892423376464e+17
11.405153941827061,1749063848576292.5,1.1066495443072896e+17,268086998705257.12,350460321677433.94,71992372080939.81,178932595757292.6,3781142613174165.0,1.0426527568075752e+17
11.733257020663602,1749487870040052.5,1.1380805366248917e+17,268151990410741.97,350545282957600.94,74075758445469.58,184146059929320.0,3891363996577633.0,1.0729028270412832e+17
12.067922161076874,1749910369804044.0,1.1701330866642008e+17,268216748878321.03,350629939334230.8,76200026662965.55,189463888286815.75,4003794846973360.0,1.1037509284648037e+17
12.409280604298411,1750331783791958.8,1.2028193679889045e+17,268281340924009.2,350714378153460.3,78365963930440.66,194888174115105.16,4118479602818100.0,1.1352087555515749e+17
12.75746621638438,1750752528497677.8,1.2361517864614027e+17,268345830385725.7,350798682868270.7,80574371965130.48,200421052758501.88,4235463600349240.0,1.1672882257931576e+17
13.112615540712067,1751173002715192.8,1.2701429844945349e+17,268410278388447.22,350882933385110.1,82826067247230.86,206064702469772.66,4354793091913590.5,1.2000014837333419e+17
13.474867851526309,1751593589113606.0,1.3048058453692002e+17,268474743585614.06,350967206379480.25,85121881265652.47,211821345276905.47,4476515264677350.5,1.2333609050662149e+17
13.844365208556836,1752014655673647.2,1.3401534976187747e+17,268539282379313.47,351051575583769.56,87462660766778.88,217693247867535.94,4600678259725290.0,1.2673791007988114e+17
14.221252512727972,1752436557000289.0,1.3761993194811587e+17,268603949121468.9,351136112050261.7,89849268006214.25,223682722491380.06,4727331191557377.0,1.30206892147889e+17
14.605677562982532,1752859635524263.0,1.412956943419334e+17,268668796298001.34,351220884391883.0,92282581003506.75,229792127881050.38,4856524167991210.0,1.3374434614884354e+17
14.997791114242183,1753284222603814.2,1.4504402607111965e+17,268733874697704.12,351305959002969.5,94763493799823.1,236023870191622.78,4988308310478950.0,1.3735160634034486e+17
15.397746936527026,1753710639536856.5,1.4886634261094778e+17,268799233567373.5,351391400262057.06,97292916718556.55,242380403959343.4,5122735774847546.0,1.4103003224205605e+17
15.805701875257567,1754139198492326.2,1.5276408625724653e+17,268864920754568.97,351477270718513.0,99871776628841.5,248864233079862.06,5259859772471374.0,1.4478100908510077e+17
16.221815912762718,1754570203368823.8,1.5673872660662928e+17,268930982839216.25,351563631264571.06,102501017211943.19,255477911806393.4,5399734591886375.0,1.4860594826825206e+17
16.64625223101797,1755003950587540.5,1.6079176104394515e+17,268997465255145.3,351650541294217.56,105181599230495.27,262224045768221.56,5542415620855382.0,1.5250628782095462e+17
17.079177275638333,1755440729825883.2,1.649247152370226e+17,269064412402533.6,351738058850181.94,107914500800545.48,269105293009955.7,5687959368894151.0,1.5648349287323965e+17
17.5207608211511,1755880824697350.0,1.6913914363876605e+17,269131867752117.75,351826240760168.9,110700717666370.42,276124365051971.56,5836423490268100.0,1.6053905613257014e+17
17.97117603757412,1756324513382825.0,1.7343662999666915e+17,269199873941952.53,351915142763348.8,113541263478017.62,283284027972470.6,5987866807469883.0,1.6467449836766086e+17
18.430599558325603,1756772069217804.2,1.778187878698031e+17,269268472867416.44,352004819628018.5,116437170071523.94,290587103511603.25,6142349335188136.0,1.6889136889931875e+17
18.899211549492115,1757223761239592.0,1.8228726115332995e+17,269337705765085.53,352095325261246.25,119389487751758.12,298036470198113.94,6299932304778036.0,1.7319124609833632e+17
19.37719578048196,1757679854698217.8,1.868437246106007e+17,269407613291042.66,352186712811243.8,122399285577834.08,305635064498963.25,6460678189244521.0,1.7757573789047875e+17
19.864739696091597,1758140611534324.8,1.914898844128761e+17,269478235594126.44,352279034763118.06,125467651651026.56,313385881992411.5,6624650728749324.0,1.8204648226859203e+17
20.36203449001343,1758606290827043.8,1.9622747868672714e+17,269549612384578.12,352372343028616.5,128595693405126.94,321291978565039.44,6791914956653014.0,1.866051478118637e+17
20.869275179813698,1759077149214566.0,2.0105827806914157e+17,269621782998503.88,352466689030393.1,131784537899163.02,329356471633204.94,6962537226103794.0,1.9125343421226218e+17
21.38666068340997,1759553441289792.0,2.0598408627038963e+17,269694786458520.72,352562123781285.56,135035332112407.61,337582541389435.2,7136585237184933.0,1.9599307280817322e+17
21.91439389707817,1760035419973368.2,2.1100674064466595e+17,269768661530930.12,352658697959062.6,138349243241588.97,345973432074276.2,7314128064632875.0,2.0082582712525373e+17
22.452681775019734,1760523336866027.2,2.161281127685501e+17,269843446779725.47,352756461977023.5,141727459000214.06,354532453274110.94,7495236186138486.0,2.057534934245144e+17
23.00173541052013,1761017442582129.0,2.2135010902730006e+17,269919180617712.56,352855466050823.7,145171187919908.8,363262981245499.25,7679981511244194.0,2.1077790125763978e+17
23.561770118730532,1761517987065992.8,2.2667467120900525e+17,269995901354998.4,352955760261863.6,148681659653671.88,372168460266574.2,7868437410849874.0,2.159009140295523e+17
24.133005521105144,1762025219892590.0,2.3210377710660486e+17,270073647245079.62,353057394617541.0,152260125280927.22,381252404016055.94,8060678747340915.0,2.21124429568212e+17
24.715665631527248,1762539390553976.8,2.37639441127795e+17,270152456528740.75,353160419108633.9,155907857614270.9,390518396980454.5,8256781905351924.0,2.2645038070165683e+17
25.309978944157795,1763060748732671.5,2.4328371491280976e+17,270232367475960.97,353264883764085.4,159626151507769.12,399970095890042.5,8456824823179973.0,2.318807358422594e+17
25.91617852304095,1763589544563184.0,2.4903868796009232e+17,270313418425998.94,353370838703406.1,163416324166693.0,409611231184185.94,8660887024861735.0,2.3741749957818736e+17
26.53450209350177,1764126028882736.0,2.5490648825983632e+17,270395647825820.28,353478334186906.94,167279715458536.62,419445608506648.9,8869049652928691.0,2.4306271327204685e+17
27.165192135371807,1764670453472141.2,2.6088928293538576e+17,270479094267019.9,353587420663966.94,171217688225178.1,429477110231478.6,9081395501855708.0,2.4881845566666992e+17
27.808495978079243,1765223071287742.8,2.669892788924765e+17,270563796521370.06,353698148819506.6,175231628596019.84,439709697020101.8,9298009052217842.0,2.546868434980138e+17
28.464665897640828,1765784136685186.2,2.7320872347628704e+17,270649793575122.4,353810569618825.1,179322946301946.5,450147409410286.25,9518976505570842.0,2.6067003211512512e+17
29.133959215593645,1766353905635876.5,2.7954990513626432e+17,270737124662181.16,353924734350968.2,183493074989923.2,460794369437610.2,9744385820071742.0,2.6677021610711606e+17
29.816638399905518,1766932635936675.5,2.8601515409867987e+17,270825829296249.06,354040694670755.56,187743472538045.34,471654782290114.9,9974326746855076.0,2.7298962993709328e+17
30.51297116790363,1767520587413642.0,2.926068430468722e+17,270915947302052.03,354158502639590.4,192075621370852.72,482732937996819.9,1.02088908671818e+16,2.793305485829672e+17
31.223230591261704,1768118022120262.5,2.993273878091023e+17,271007518845722.47,354278210765190.2,196491028774691.62,494033213150800.56,1.0448171630377804e+16,2.8579528818506835e+17
31.947695203086937,1768725204530816.5,3.061792480539734e+17,271100584464441.25,354399872040326.56,200991227212918.16,505560072667533.2,1.0692264392579258e+16,2.923862067004776e+17
32.686649107148675,1769342401729368.0,3.131649279933108e+17,271195185095401.12,354523539980692.0,205577774640708.44,517318071579232.44,1.094126645630271e+16,2.9910570456398246e+17
33.44038208929165,1769969883594820.2,3.2028697709244595e+17,271291362104174.53,354649268661985.2,210252254819239.6,529311856865925.5,1.1195277110857792e+16,3.0595622535554285e+17
34.20918973107749,1770607922982546.0,3.2754799078778016e+17,271389157312547.72,354777112756297.56,215016277628990.28,541546169324004.75,1.1454397673621614e+16,3.1294025647415494e+17
34.993373525699035,1771256795902917.8,3.3495061121152966e+17,271488613025891.06,354907127567889.3,219871479381897.9,554025845473032.9,1.1718731532193078e+16,3.200603298179849e+17
35.793240996213015,1771916781697210.2,3.424975279235387e+17,271589772060116.06,355039369068434.25,224819523132093.6,566755819501584.6,1.1988384187447366e+16,3.273190224706317e+17
36.60910581613728,1772588163211169.5,3.5019147865002566e+17,271692677768281.84,355173893931799.1,229862098984930.3,579741125252914.5,1.226346329750964e+16,3.3471895739336666e+17
37.44128793246003,1773271226966636.8,3.580352500291076e+17,271797374066897.28,355310759568426.94,235000924403999.22,592986898251278.1,1.2544078722668726e+16,3.422628041231818e+17
38.29011369110923,1773966263331486.0,3.660316783629716e+17,271903905461972.4,355450024159397.5,240237744515816.66,606498377769717.8,1.2830342571251326e+16,3.4995327947648224e+17
39.15591596493141,1774673566688247.8,3.7418365037650035e+17,272012317074860.53,355591746690200.4,245574332411853.78,620280908940164.6,1.3122369246477926e+16,3.577931482582171e+17
40.03903428423004,1775393435601627.8,3.824941039821849e+17,272122654667935.8,355735986984313.25,251012489447560.97,634339944906723.8,1.3420275494322284e+16,3.657852239762551e+17
40.93981496991464,1776126172985221.8,3.909660290511223e+17,272234964670148.88,355882805736603.8,256554045538026.94,648681049023018.9,1.3724180452396014e+16,3.739323695607733e+17
41.85861126931294,1776872086267707.8,3.99602468189884e+17,272349294202494.84,356032264546621.3,262200859449895.97,663309897094468.1,1.4034205699881798e+16,3.822374980884412e+17
