t(s),Total solute volume 1,Total retention volume 1,Total 1 volume 1,Total 2 volume 1,Total 3 volume 1,Total 4 volume 1,Total 5 volume 1,Total 6 volume 1
0.1,858476762157242.6,970941579421749.6,55300119698977.766,57164697565528.79,0.0,0.0,0.0,0.0
0.202,1293519048195749.8,1462991609038093.5,83324047250713.03,86133520179621.39,34621743.94020312,59564398.83402895,732054722.7665619,14167171144.093473
0.30604000000000003,1624820722387261.2,1837718535749656.5,104665361405033.89,108194408683997.3,87846097.70406903,151133359.7233476,1857452484.6476026,35946841422.770096
0.41216080000000005,1905044781808744.8,2154682903917913.8,122716431320565.62,126854114343959.69,156040872.05021432,268457939.404742,3299391628.425554,63852554202.970505
0.5204040160000001,2153899641917605.5,2436174333607890.5,138746805327320.33,143424991412061.22,237594427.93078104,408765420.73056763,5023794829.59951,97224796226.37479
0.6308120963200001,2381203255939082.0,2693296605486782.5,153388922198605.28,158560802876286.97,331642445.24314725,570568799.4852204,7012386496.443002,135709875069.663
0.7434283382464002,2592661553433724.0,2932502940929641.0,167010338288199.47,172641498148026.12,437690900.74715227,753018142.70255,9254720780.816656,179105629870.48914
0.8582969050113283,2791929689227856.0,3157927217957408.5,179846506096119.34,185910468581529.66,555461184.894181,955634122.4252392,11744906645.609068,227298049954.81656
0.9754628431115548,2981512323832287.0,3372402159919232.0,192058767236291.47,198534495815932.28,684813797.2094984,1178176738.6770952,14479994441.740345,280230049745.898
1.094972099973786,3163212939090417.5,3577967495474405.5,203763295804969.12,210633671039862.62,825706092.6143934,1420572624.8222504,17459082476.03659,337884177964.09424
1.2168715419732616,3338380493798624.5,3776148916357625.5,215046987087298.34,222297819424454.7,978166894.0220679,1682871370.2295558,20682780208.017635,400272228776.50415
1.3412089728127268,3508054894678617.5,3968122598774030.0,225976828296933.0,233596186820266.72,1142280296.9595532,1965217657.2074745,24152865807.345432,467428614455.00574
1.4680331522689813,3673057739938559.0,4154817830145771.0,236605743964078.84,244583482236811.97,1318174858.220041,2267832660.8057027,27872057553.774788,539405941250.2549
1.597393815314361,3834051536676085.0,4336983981058725.0,246976410516887.0,255303821041850.72,1506016121.492837,2591001189.665066,31843855795.72828,616271950798.0582
1.729341691620648,3991579806346181.5,4515235862451061.0,257123839737728.78,265793395525180.8,1706001307.899977,2935062551.445647,36072430684.666725,698107347430.9374
1.863928525453061,4146095104390584.5,4690085414288766.0,267077183691332.16,276082340684316.47,1918355465.2011933,3300403927.7969027,40562540752.217674,785004222393.2355
2.001207095962122,4297979120609126.5,4861964437959551.0,276861029521557.25,286196072678491.3,2143328631.772784,3687455495.1791267,45319472944.15258,877064893312.7527
2.1412312378813647,4447557430545640.5,5031241279251347.0,286496349684928.2,296156271101625.56,2381193726.278492,4096686794.1900196,50348997998.72913,974401040633.2731
2.284055862638992,4595110537955748.0,5198233316755743.0,296001213268425.0,305981614283925.7,2632244968.9887843,4528604013.55719,55657337066.45475,1077133061603.1443
2.4297369798917723,4740882285998337.0,5363216474457024.0,305391327809503.44,315688339380687.06,2896796701.0575457,4983747958.790364,61251136744.44413,1185389587112.078
2.578331719489608,4885086363458416.0,5526432580149535.0,314680458406700.44,325290675619389.0,3175182508.181106,5462692551.726423,67137452252.05106,1299307337702.2556
2.7298983538794,5027911408146662.0,5688095136228337.0,323880756454517.7,334801184097802.25,3467754577.025541,5966043694.499938,73323727020.29384,1419030004058.1953
2.884496320956988,5169525057132326.0,5848393901677681.0,333003020558494.75,344231027528152.25,3774883244.540834,6494438537.29067,79817793340.93178,1544709343585.1997
3.0421862473761276,5310077200266718.0,6007498570791124.0,342056906107219.5,353590186853936.56,4096956690.45602,7048544920.615477,86627859094.56242,1676504202552.781
3.2030299723236504,5449702618025061.0,6165561756729355.0,351051095195246.44,362887636907647.2,4434380754.867305,7629061068.665275,93762505582.73746,1814580654005.039
3.3670905717701234,5588523140799382.0,6322721433655765.0,359993435717322.5,372131490194891.6,4787578855.915937,8236715447.685985,101230685787.4442,1959111964077.5608
3.5344323832055258,5726649431282704.0,6479102952622912.0,368891056183443.06,381329115580718.0,5156991991.897901,8872266769.619164,109041724415.85425,2110278592860.7952
3.7051210308696363,5864182467170194.0,6634820718547070.0,377750461229353.1,390487237020492.5,5543078815.124447,9536504119.186148,117205319462.21318,2268268224624.682
3.879223451487029,6001214783401994.0,6789979595249960.0,386577611637571.75,399612016279012.3,5946315767.587151,10230247187.303228,125731545076.55908,2433275823334.3213
4.0568079205167695,6137831519841511.0,6944676090470265.0,395377991825208.75,408709122693851.56,6367197270.570765,10954346597.310593,134630855574.14706,2605503710241.5547
4.237944078927105,6274111310294457.0,7098999361451535.0,404156667111520.06,417783792373829.3,6806235961.972286,11709684313.278357,143914090453.60452,2785161660998.6226
4.422702960505647,6410127041210940.0,7253032073159344.0,412918332590886.5,426840878719850.75,7263962976.345034,12497174121.817629,153592480318.49017,2972467020255.18
4.61115701971576,6545946502627670.0,7406851134638305.0,421667355064269.06,435884895770195.75,7740928263.679555,13317762180.537508,163677653617.93585,3167644832106.8936
4.803380160110075,6681632949442624.0,7560528333969976.0,430407809194591.3,444920055574960.75,8237700943.722645,14172427627.643133,174181644138.72513,3370927985086.642
4.9994477633122765,6817245587637213.0,7714130888360379.0,439143508827500.75,453950300572876.9,8754869693.26873,15062183248.26167,185116899194.57547,3582557370648.339
5.199436718578522,6952839997332771.0,7867721922800125.0,447878034243214.44,462979331762018.4,9293043164.369793,15988076193.962397,196496288469.17822,3802782054302.9917
5.403425452950093,7088468502409834.0,8021360888299561.0,456614755966119.7,472010633312198.6,9852850431.826704,16951188752.65434,208333113478.39166,4031859458736.967
5.611493962009095,7224180494700101.0,8175103928757272.0,465356855648097.2,481047494152434.0,10434941468.6671,17952639166.634087,220641117624.21255,4270055558382.803
5.823723841249277,7360022719382192.0,8329004203961981.0,474107344452750.4,490093026975032.8,11039987648.59867,18993582497.043865,233434496819.1328,4517645085028.561
6.040198318074262,7496039527101764.0,8483112174970352.0,482869079296097.6,499150185023888.56,11668682274.662611,20075211533.40593,246727910664.50095,4774911744148.568
6.261002284435747,7632273097432191.0,8637475857082535.0,491644777241158.44,508221776974408.2,12321741133.509491,21198757747.241165,260536494170.67618,5042148441719.348
6.486222330124463,7768763637557149.0,8792141044803740.0,500437028296386.06,517310480163482.2,12999903074.889515,22365492289.066357,274875870010.3293,5319657521353.329
6.715946776726952,7905549559450474.0,8947151512497695.0,509248306828995.6,526418852387634.2,13703930616.089825,23576727028.314655,289762161299.26685,5607751011641.443
6.950265712261491,8042667638331208.0,9102549193872358.0,518080981772088.25,535549342454308.94,14434610571.176517,24833815635.930565,305212004901.73926,5906750883645.89
7.18927102650672,8180153154758025.0,9258374342972840.0,526937325777883.7,544704299643722.94,15192754705.003843,26138154709.57783,321242565259.4677,6216989318528.158
7.433056447036854,8318040022383403.0,9414665678965872.0,535819523447209.2,553885982215835.4,15979200412.047028,27491184941.555244,337871548745.56586,6538808985335.109
7.681717575977592,8456360903100496.0,9571460516676466.0,544729678746862.0,563096565077804.4,16794811420.196762,28894392329.659058,355117218546.2748,6872563328999.6
7.935351927497144,8595147311074183.0,9728794884563020.0,553669821710932.7,572338146711254.0,17640478519.724644,30349309431.352833,372998410074.9643,7218616868641.671
8.194058966047088,8734429706944100.0,9886703631588430.0,562641914509038.8,581612755445129.6,18517120317.696217,31857516661.71836,391534546924.21094,7577345506282.875
8.45794014536803,8874237583315603.0,1.0045220524248478e+16,571647856953358.1,590922355148394.2,19425684018.163906,33420643635.76264,410745657363.01465,7949136846110.481
8.72709894827539,9014599542508078.0,1.0204378334854816e+16,580689491506916.0,600268850407197.0,20367146228.528046,35040370555.745415,430652391387.3382,8334390524449.699
9.0016409272409,9155543367405824.0,1.0364208922028464e+16,589768607847538.0,609654091242705.6,21342513792.500717,36718429644.279106,451276038333.19135,8733518550622.468
9.281673745785717,9297096086149776.0,1.0524743304238928e+16,598886947035084.8,619079877418849.6,22352824650.15522,38456606624.02709,472638545062.4219,9146945658889.56
9.567307220701432,9439284031317394.0,1.0686011727121414e+16,608046205323614.1,628547962383018.1,23399148725.581787,40256742244.90239,494762534732.29675,9575109671690.344
9.85865336511546,9582132894159384.0,1.0848043725215336e+16,617248037655111.9,638060056877595.9,24482588842.715572,42120733859.73368,517671326160.7595,10018461874410.434
10.155826432417769,9725667774393940.0,1.1010868178691176e+16,626494060867081.2,647617832255690.6,25604281669.93542,44050537049.43438,541388953800.08167,10477467401922.803
10.458942961066125,9869913226000676.0,1.1174513365565066e+16,635785856642419.0,657222923530488.8,26765398694.070435,46048167298.76711,565940188332.3553,10952605637163.44
10.768121820287448,1.0014893299405672e+16,1.1339007009845634e+16,645124974226837.4,666876932184292.5,27967147224.485615,48115701723.86037,591350557901.0293,11444370622015.344
11.083484256693197,1.0160631580404466e+16,1.1504376326004024e+16,654512932936152.5,676581428760339.4,29210771427.950016,50255280852.68723,617646369993.3506,11953271480789.643
11.405153941827061,1.0307151226131774e+16,1.1670648060117516e+16,663951224473315.5,686337955257981.5,30497553395.02562,52469110459.7758,644854733989.3334,12479832856604.94
11.733257020663602,1.0454474998352042e+16,1.1837848527997424e+16,673441315072890.2,696148027349449.2,31828814238.74276,54759463456.47068,673003584393.4637,13024595360979.322
12.067922161076874,1.060262529431657e+16,1.2006003650578692e+16,682984647488757.9,706013136434576.5,33205915226.3644,57128681838.12355,702121704766.0752,13588116036962.57
12.409280604298411,1.075162417540598e+16,1.2175138986819372e+16,692582642839166.1,715934751548071.0,34630258945.06745,59579178689.63998,732238752371.9303,14170968836147.732
12.75746621638438,1.0901493393754598e+16,1.2345279764333012e+16,702236702321778.1,725914321132382.2,36103290502.402466,62113440250.86349,763385283564.2214,14773745109914.79
13.112615540712067,1.105225441703265e+16,1.2516450907952612e+16,711948208810055.5,735953274687919.8,37626498762.42322,64734028043.33076,795592779922.8304,15397054115270.295
13.474867851526309,1.1203928451544836e+16,1.2688677066406696e+16,721718528341201.1,746053024311149.8,39201417618.40585,67443581059.98123,828893675166.3251,16041523535661.037
13.844365208556836,1.1356536463787942e+16,1.2861982637268148e+16,731549011504806.4,756214966130079.2,40829627303.11095,70244818019.4603,863321382857.7899,16707800017149.613
14.221252512727972,1.1510099200595736e+16,1.3036391790322666e+16,741440994740535.8,766440481645689.0,42512755737.56769,73140539686.70172,898910324925.3077,17396549720354.602
14.605677562982532,1.1664637207987614e+16,1.3211928489487668e+16,751395801552278.6,776730938987017.1,44252479919.39416,76133631261.53441,935695961018.3909,18108458888568.883
14.997791114242183,1.1820170848825998e+16,1.3388616513401912e+16,761414743645577.6,787087694086955.1,46050527351.69526,79227064837.10474,973714818722.5305,18844234432483.04
15.397746936527026,1.1976720319377376e+16,1.3566479474792884e+16,771499121994446.8,797512091785014.2,47908677513.61142,82423901929.96074,1013004524654.4434,19604604531952.36
15.805701875257567,1.2134305664863678e+16,1.374554083872087e+16,781650227843125.4,808005466862882.0,49828763373.62361,85727296083.70174,1053603836461.4756,20390319255259.887
16.221815912762718,1.2292946794082116e+16,1.3925823939788472e+16,791869343647840.4,818569145017911.9,51812672946.7484,89140495548.1424,1095552675749.0758,21202151196339.984
16.64625223101797,1.2452663493164682e+16,1.4107351998396542e+16,802157743963148.0,829204443779364.9,53862350896.79164,92666846036.00557,1138892161961.1018,22040896130439.562
17.079177275638333,1.2613475438542238e+16,1.429014813612064e+16,812516696277034.6,839912673371676.4,55979800184.86035,96309793559.20015,1183664647238.2803,22907373688707.676
17.5207608211511,1.2775402209171996e+16,1.4474235390274818e+16,822947461798576.9,850695137528646.8,58167083765.36014,100072887346.80838,1229913752280.8372,23802428052217.18
17.97117603757412,1.293846329808246e+16,1.4659636727724592e+16,833451296201602.6,861553134262206.4,60426326330.747826,103959782846.95192,1277684403242.029,24726928665934.91
18.430599558325603,1.310267812328394e+16,1.4846375058004184e+16,844029450327545.6,872487956588944.1,62759716106.32669,107974244814.76653,1327022869679.9827,25681770973170.24
18.899211549492115,1.3268066038089884e+16,1.5034473245789344e+16,854683170850273.9,883500893217375.4,65169506696.41902,112120150488.77222,1377976803595.8596,26667877171045.074
19.37719578048196,1.343464634088863e+16,1.5223954122771794e+16,865413700905577.9,894593229198631.8,67658018983.270996,116401492857.9731,1430595279587.168,27686196987541.168
19.864739696091597,1.360243828440242e+16,1.541484049897696e+16,876222280687592.6,905766246543008.5,70227643080.08247,120822384022.08594,1484928836145.5684,28737708480693.8
20.36203449001343,1.3771461084466188e+16,1.560715517356263e+16,887110148014298.5,917021224804528.6,72880840339.58447,125387058647.34001,1541029518129.307,29823418860513.105
20.869275179813698,1.3941733928355466e+16,1.5800920945132526e+16,898078538863978.1,928359441635489.4,75620145419.61316,130099877520.34976,1598950920440.8713,30944365334226.586
21.38666068340997,1.4113275982689202e+16,1.599616062159421e+16,909128687884288.6,939782173312687.9,78448168407.16386,134965331202.60184,1658748232941.312,32101615975448.19
21.91439389707817,1.4286106400929762e+16,1.6192897029587264e+16,920261828875378.6,951290695236846.5,81367597002.42865,139988043788.1535,1720478286632.931,33296270617889.207
22.452681775019734,1.4460244330498792e+16,1.6391153023504436e+16,931479195248286.9,962886282406444.2,84381198764.34727,145172776767.16943,1784199601142.7478,34529461774236.72
23.00173541052013,1.4635708919524934e+16,1.6590951494122348e+16,942782020459583.9,974570209867039.5,87491823419.22249,150524432997.96848,1849972433539.5063,35802355580833.14
23.561770118730532,1.481251932323407e+16,1.6792315376857194e+16,954171538423019.2,986343753136774.5,90702405233.963,156048060790.2687,1917858828517.3384,37116152768796.0
24.133005521105144,1.4990694709989982e+16,1.6995267659653008e+16,965648983898642.2,998208188608631.4,94015965455.53201,161748858102.34534,1987922669979.3396,38472089662222.914
24.715665631527248,1.5170254266988846e+16,1.719983139050794e+16,977215592859626.6,1010164793929608.5,97435614818.17844,167632176854.8182,2060229734054.525,39871439204126.914
25.309978944157795,1.5351217205606084e+16,1.7406029684637356e+16,988872602836675.5,1022214848356758.0,100964556120.02649,173703527363.77948,2134847743581.4043,41315512010744.95
25.91617852304095,1.5533602766388558e+16,1.7613885731266524e+16,1000621253239623.2,1034359633089613.8,104606086870.5848,179968582895.9445,2211846424091.217,42805657454858.555
26.53450209350177,1.5717430223680924e+16,1.7823422800041066e+16,1012462785655443.4,1046600431578258.2,108363602010.7097,186433184348.47104,2291297561323.265,44343264778753.32
27.165192135371807,1.590271888986744e+16,1.8034664247034132e+16,1024398444121479.1,1058938529805755.9,112240596706.51974,193103345056.0237,2373275060304.02,45929764237429.49
27.808495978079243,1.6089488119204582e+16,1.82476335203239e+16,1036429475372349.9,1071375216543396.6,116240669218.70496,199985255727.56113,2457855006020.55,47566628272652.195
28.464665897640828,1.62777573112131e+16,1.8462354165105556e+16,1048557129058428.1,1083911783576523.8,120367523848.60297,207085289515.2173,2545115725717.1597,49255372718403.336
29.133959215593645,1.6467545913588924e+16,1.867884982829293e+16,1060782657933372.1,1096549525898404.9,124624973962.32196,214410007217.46826,2635137852842.4707,50997558038256.734
29.816638399905518,1.6658873424585156e+16,1.8897144262557092e+16,1073107318007561.9,1109289741868828.2,129016945094.07634,221966162618.60318,2728004392671.5405,52794790595153.875
30.51297116790363,1.68517593948089e+16,1.9117261329736204e+16,1085532368663829.0,1122133733333741.2,133547478129.76837,229760707966.2677,2823800789624.758,54648723954000.305
31.223230591261704,1.7046223428364572e+16,1.933922500354298e+16,1098059072731122.0,1135082805701401.5,138220732571.67343,237800799588.56512,2922614996301.902,56561060217435.99
31.947695203086937,1.7242285183268638e+16,1.9563059371482664e+16,1110688696511222.5,1148138267969981.5,143040989884.9033,246093803651.864,3024537544245.312,58533551395048.85
32.686649107148675,1.7439964371048188e+16,1.9788788635883576e+16,1123422509752865.0,1161301432700834.2,148012656926.08008,254647302060.07608,3129661616441.65,60568000806216.61
33.44038208929165,1.7639280755425352e+16,2.001643711392942e+16,1136261785567021.0,1174573615930899.8,153140269454.40878,263469098495.7094,3238083121565.936,62666264516642.41
34.20918973107749,1.7840254149979484e+16,2.0246029236571604e+16,1149207800276281.8,1187956137017023.8,158428495725.01743,272567224602.48477,3349900769965.3545,64830252808539.0
34.993373525699035,1.8042904414667256e+16,2.0477589546184336e+16,1162261833190707.5,1201450318404244.8,163882140164.11115,281949946308.7369,3465216151373.0615,67061931684269.98
35.793240996213015,1.8247251451070372e+16,2.0711142692816196e+16,1175425166301694.0,1215057485309335.8,169506147125.10626,291625770290.14984,3584133814334.397,69363324403106.04
36.60910581613728,1.8453315196230628e+16,2.0946713428878936e+16,1188699083884855.2,1228778965310292.2,175305604724.47617,301603450569.6763,3706761347318.87,71736513050581.97
37.44128793246003,1.8661115614920984e+16,2.118432660210003e+16,1202084872002142.0,1242616087831687.5,181285748755.60623,311891995251.67755,3833209461481.6304,74183640139749.02
38.29011369110923,1.8870672690193516e+16,2.1424007146560268e+16,1215583817892984.2,1256570183515251.0,187451966678.42007,322500673386.4669,3963592075027.418,76706910243413.17
39.15591596493141,1.908200641203566e+16,2.166578007162274e+16,1229197209243554.8,1270642583464514.8,193809801682.01337,333439021960.48047,4098026399118.37,79308591656226.47
40.03903428423004,1.92951367639601e+16,2.1909670448555204e+16,1242926333322947.2,1284834618351855.2,200364956816.9363,344716853006.3098,4236633025254.7266,81991018085252.86
40.93981496991464,1.9510083707347264e+16,2.2155703394639176e+16,1256772475974572.5,1299147617375892.8,207123299193.1312,356344260825.7228,4379536014044.1084,84756590367381.53
41.85861126931294,1.9726867163356416e+16,2.240390405455476e+16,1270736920450910.5,1313582907056946.0,214090864238.8708,368331629317.6727,4526862985260.809,87607778211675.39
42.7957834946992,1.99455069922178e+16,2.265429757882849e+16,1284820946079619.0,1328141809858164.8,221273860015.3368,380689639402.06116,4678745209081.891,90547121964466.48
43.751699164593184,2.016602296971982e+16,2.2906909099129724e+16,1299025826748887.0,1342825642619813.2,228678671580.7374,393429276528.7787,4835317698371.134,93577234394701.39
44.72673314788505,2.038843476070647e+16,2.316176370020352e+16,1313352829200248.2,1357635714794531.8,236311865397.1082,406561838260.2122,4996719301865.71,96700802496729.19
