t(s),Total solute volume 1,Total retention volume 1,Total 1 volume 1,Total 2 volume 1,Total 3 volume 1,Total 4 volume 1,Total 5 volume 1,Total 6 volume 1
0.1,1144268928618327.0,1596229672649425.0,193012778181123.2,258947965849975.12,0.0,0.0,0.0,0.0
0.202,1714981347397364.2,2411111014120403.5,289279302023777.56,388100153320520.25,10915838908.810713,28046606442.762154,628760870512.6995,18082488062878.01
0.30604000000000003,2144008651440239.2,3038211950467391.0,361646689441823.56,485189002576737.3,27565707980.766644,70826090239.24149,1587872007866.5256,45681343202507.34
0.41216080000000005,2501942800984931.0,3573911287543947.5,422022238940950.44,566189475357655.0,48734911624.19535,125217466457.9284,2807334572535.4106,80775485309794.92
0.5204040160000001,2815394465865919.0,4054353297800705.0,474894580197939.6,637123564894749.0,73855657700.912,189761900946.8549,4254437834649.5186,122422631448802.1
0.6308120963200001,3097670543542833.5,4497536536386665.5,522508291591270.9,701002621254059.0,102599862294.01912,263616456678.39737,5910281981442.255,170078581698085.34
0.7434283382464002,3356527137568147.5,4913920035758544.0,566171655709673.5,759581850151681.2,134757835390.41174,346242393011.774,7762788008454.889,223395604092180.62
0.8582969050113283,3596944140592264.5,5310207588378021.0,606724669955126.0,813988200950821.8,170188202493.66498,437276496597.2733,9803812537961.15,282139299642759.5
0.9754628431115548,3822339962661757.5,5690999597370647.0,644743944257963.6,864995259604738.9,208793105621.39166,536467364117.16205,12027719131224.457,346147451245224.4
1.094972099973786,4035179048492265.0,6059616787208476.0,680645175762549.4,913160729777305.8,250504389527.71545,643639909960.8145,14430582486568.236,415307106390301.7
1.2168715419732616,4237306027099757.0,6418551958415266.0,714739512456508.1,958902050882562.5,295275243081.6541,758673890109.1349,17009706912650.502,489540711930596.3
1.3412089728127268,4430143150207898.5,6769736159277957.0,747266856649565.4,1002541078382971.4,343074820530.13385,881490082381.2911,19763316471682.4,568797192662931.8
1.4680331522689813,4614813674007794.0,7114704558399704.0,778416676738971.1,1044332005073162.6,393884611677.8872,1012040960255.9291,22690345875786.74,653045931132061.5
1.597393815314361,4792222516797086.0,7454704585445607.0,808341612363666.8,1084479613898041.0,447695897818.3515,1150304156362.6396,25790293931707.984,742272548400908.5
1.729341691620648,4963110978963553.0,7790769102291040.0,837166704451431.8,1123151661081221.5,504507912893.6399,1296277737950.905,29063117612365.613,836475854531612.5
1.863928525453061,5128095037702132.0,8123767478931776.0,864995854688011.4,1160487542216795.8,564326480105.082,1449976703956.4463,32509153518041.473,935665587622731.5
2.001207095962122,5287692864224179.0,8454442203723724.0,891916467059774.8,1196604519411825.5,627162979236.9517,1611430331784.766,36129058389144.82,1039860701327781.4
2.1412312378813647,5442345051524516.0,8783435731259655.0,918002859829222.8,1231602298828572.2,693033550224.3761,1780680131088.9832,39923763228396.734,1149088044167629.0
2.284055862638992,5592429780970640.0,9111310566957960.0,943318823802078.1,1265566462882542.5,761958469406.4249,1957778241237.1467,43894437370955.65,1263381325221108.0
2.4297369798917723,5738274393499896.0,9438564557611070.0,967919574131522.0,1298571088803600.0,833961654565.7458,2142786159678.6636,48042459973596.24,1382780293388221.8
2.578331719489608,5880164354692892.0,9765642714554814.0,991853262527159.6,1330680777431417.2,909070267733.0991,2335773721504.8706,52369397135876.7,1507330078778218.0
2.7298983538794,6018350296684373.0,1.0092946483710772e+16,1015162165069143.6,1361952246799388.2,987314393388.6389,2536818272732.499,56876983364732.234,1637080659127011.2
2.884496320956988,6153053618008193.0,1.0420841105386768e+16,1037883626777776.0,1392435599379163.2,1068726775640.3752,2746003995122.7666,61567106436618.28,1772086424014267.5
3.0421862473761276,6284470986449685.0,1.074966152414554e+16,1060050821144799.6,1422175341075788.2,1153342602132.7678,2963421351069.4966,66441794951692.91,1912405816570348.8
3.2030299723236504,6412777996473614.0,1.1079717183739444e+16,1081693367060342.4,1451211208903414.0,1241199325418.509,3189166624746.458,71503208046204.47,2058101037305718.8
3.3670905717701234,6538132167351383.0,1.1411295954536008e+16,1102837834530451.1,1479578849461240.8,1332336514689.917,3423341541262.7607,76753626853878.56,2209237798283092.0
3.5344323832055258,6660675421551391.0,1.1744667378647902e+16,1123508162726562.9,1507310379793081.5,1426795732360.3215,3666052949670.2124,82195447398912.42,2365885118495911.5
3.7051210308696363,6780536149335066.0,1.208008537312933e+16,1143726008237046.0,1534434854605312.2,1524620431175.773,3917412558724.3794,87831174671747.78,2528115153290233.0
3.879223451487029,6897830940889587.0,1.2417790498812218e+16,1163511037239554.0,1560978658248351.0,1625855868437.1523,4177536716612.3945,93663417690611.67,2696003052159055.0
4.0568079205167695,7012666049084423.0,1.275801187809049e+16,1182881172235608.5,1586965835738386.8,1730549034600.3267,4446546227627.599,99694885391435.12,2869626840378418.5
4.237944078927105,7125138632258868.0,1.3100968826789322e+16,1201852801681269.5,1612418374000081.8,1838748594053.356,4724566200135.891,105928383219355.34,3049067320835540.5
4.422702960505647,7235337816079085.0,1.3446872251505402e+16,1220440959098864.8,1637356442164758.8,1950504836283.7703,5011725921242.861,112366810318876.67,3234407993086291.5
4.61115701971576,7343345605566168.0,1.3795925853292652e+16,1238659476915895.8,1661798597962283.8,2065869635975.08,5308158754408.458,119013157238533.62,3425734987219378.0
4.803380160110075,7449237672265151.0,1.4148327170457934e+16,1256521119242971.0,1685761965857349.5,2184896420830.108,5614002056919.971,125870504080797.19,3623137010533938.0
4.9994477633122765,7553084036746289.0,1.4504268486922398e+16,1274037696996634.2,1709262391499470.0,2307640146125.39,5929397114665.272,132942019039874.4,3826705305379326.5
5.199436718578522,7654949662877009.0,1.4863937627652818e+16,1291220168139864.5,1732314576206678.2,2434157275167.4053,6254489092075.784,140230957279630.95,4036533616782395.0
5.403425452950093,7754894977331431.0,1.5227518658756496e+16,1308078725311781.8,1754932194530495.8,2564505764956.1255,6589426995455.318,147740660111640.38,4252718168710728.0
5.611493962009095,7852976325437118.0,1.5595192506717568e+16,1324622872718924.2,1777127997414016.5,2698745056471.6387,6934363648193.481,155474554439706.94,4475357648003131.0
5.823723841249277,7949246372557730.0,1.5967137508758216e+16,1340861493839552.0,1798913903024769.2,2836936069089.475,7289455676594.129,163436152442392.78,4704553195148105.0
6.040198318074262,8043754458676469.0,1.6343529904295402e+16,1356802911234019.2,1820301076996934.2,2979141198705.22,7654863505241.409,171629051469397.34,4940408401214601.0
6.261002284435747,8136546912598723.0,1.672454427583117e+16,1372454939543812.0,1841300003535378.8,3125424319210.413,8030751360983.66,180056934131166.56,5183029310341893.0
6.486222330124463,8227667331174090.0,1.7110353946284232e+16,1387824932590074.2,1861920548603556.8,3275850787013.3755,8417287284748.613,188723568564098.3,5432524427280622.0
6.715946776726952,8317156828102169.0,1.7501131338675986e+16,1402919825341639.5,1882172016228280.8,3430487448341.721,8814643150513.885,197632808856187.1,5689004729548844.0
6.950265712261491,8405054256196611.0,1.7897048303187396e+16,1417746171406060.5,1902063198798032.2,3589402649099.7046,9222994690849.834,206788595620043.94,5952583683826698.0
7.18927102650672,8491396406409445.0,1.829827641585448e+16,1432310176600580.2,1921602422102153.0,3752666247083.9634,9642521528530.916,216194956701987.6,6223377266264703.0
7.433056447036854,8576218186441439.0,1.870498725255231e+16,1446617729079718.0,1940797585750382.2,3920349626387.526,10073407213778.447,225856008017415.9,6501503986423197.0
7.681717575977592,8659552781365010.0,1.911735264139811e+16,1460674426428837.8,1959656199521776.2,4092525713843.935,10515839266754.697,235775954503929.22,6787084914597937.0
7.935351927497144,8741431798351665.0,1.95355448962692e+16,1474485600076408.5,1978185416116541.8,4269268997382.382,10970009224976.846,245959091184782.78,7080243712317462.0
8.194058966047088,8821885397312924.0,1.9959737033766612e+16,1488056337330274.0,1996392060720058.2,4450655546181.004,11436112695361.346,256409804336168.38,7381106665825665.0
8.45794014536803,8900942409024681.0,2.039010297564303e+16,1501391501302565.8,2014282657734408.8,4636763032519.442,11914349410644.832,267132572752656.0,7689802722385571.0
8.72709894827539,8978630442101676.0,2.0826817738454284e+16,1514495748953960.2,2031863454986701.5,4827670755244.134,12404923289959.95,278131969105792.97,8006463529260903.0
9.0016409272409,9054975980015130.0,2.127005761196659e+16,1527373547458385.2,2049140445684156.0,5023459664769.823,12908042503370.271,289412661391504.75,8331223475249261.0
9.281673745785717,9130004469198808.0,2.172000032766375e+16,1540029189064558.5,2066119388352506.2,5224212389550.687,13423919540192.432,300979414462422.8,8664219734655734.0
9.567307220701432,9203740399161116.0,2.217682521853198e+16,1552466804609127.0,2082805824965329.5,5430013263961.789,13952771280954.94,312837091641783.4,9005592313609680.0
9.85865336511546,9276207375411408.0,2.2640713371161068e+16,1564690375817689.5,2099205097447287.8,5640948357538.866,14494819072860.06,324990656415880.4,9355484098638354.0
10.155826432417769,9347428185914010.0,2.311184777107911e+16,1576703746514165.2,2115322362712684.8,5857105505530.861,15050288808632.273,337445174202478.8,9714040907421584.0
10.458942961066125,9417424861701962.0,2.3590413442132596e+16,1588510632844961.2,2131162606382335.2,6078574340724.692,15619411008649.28,350205814192853.6,1.0081411541661118e+16
10.768121820287448,9486218732210932.0,2.4076597580632756e+16,1600114632612553.2,2146730655305593.2,6305446326506.65,16202420906265.828,363277851265438.75,1.0457747842005444e+16
11.083484256693197,9553830475831642.0,2.4570589684910652e+16,1611519233802600.0,2162031189000446.2,6537814791129.68,16799558536250.46,376666667969304.9,1.0843204744979266e+16
11.405153941827061,9620280166126174.0,2.5072581680854856e+16,1622727822379578.8,2177068750112167.2,6775774963158.699,17411068826265.326,390377756575885.8,1.1237940341871654e+16
11.733257020663602,9685587314104850.0,2.5582768043944676e+16,1633743689417975.2,2191847753980627.2,7019424008070.359,18037201691329.004,404416721197622.5,1.1642115939544164e+16
12.067922161076874,9749770906919988.0,2.61013459182398e+16,1644570037629038.5,2206372497396660.5,7268861065986.499,18678212131208.957,418789279972324.3,1.2055896123124602e+16
12.409280604298411,9812849443295462.0,2.662851523274185e+16,1655209987337007.8,2220647166619825.0,7524187290523.107,19334360330698.516,433501267312242.94,1.2479448820556084e+16
12.75746621638438,9874840965980242.0,2.7164478815501812e+16,1665666581953244.8,2234675844722566.8,7785505888739.732,20005911762739.688,448558636216970.25,1.2912945368977254e+16
13.112615540712067,9935763091483650.0,2.7709442505812216e+16,1675942792991947.0,2248462518319338.2,8052922162175.942,20693137294358.996,463967460649449.75,1.3356560582911298e+16
13.474867851526309,9995633037326820.0,2.826361526479231e+16,1686041524666869.8,2262011083733612.5,8326543548964.1455,21396313295387.754,479733937974476.5,1.381047282424616e+16
13.844365208556836,1.0054467647021596e+16,2.8827209284644132e+16,1695965618104686.0,2275325352650570.0,8606479667009.478,22115721749947.16,495864391459181.75,1.4274864073991158e+16
14.221252512727972,1.0112283412968222e+16,2.940044009683692e+16,1705717855207349.0,2288409057298911.5,8892842358230.094,22851650370677.914,512365272835129.06,1.4749920005798398e+16
14.605677562982532,1.0169096497446186e+16,2.998352667945144e+16,1715300962192756.0,2301265855201000.0,9185745733851.732,23604392715702.54,529243164921705.25,1.523583006124025e+16
14.997791114242183,1.022492275185588e+16,3.057669156389958e+16,1724717612840397.8,2313899333527304.5,9485306220753.271,24374248308311.36,546504784310616.4,1.573278752683627e+16
15.397746936527026,1.0279777734355482e+16,3.118016094121503e+16,1733970431466317.8,2326313013087620.5,9791642608860.227,25161522759365.836,564156984111370.5,1.624098961282596e+16
15.805701875257567,1.0333676726024052e+16,3.1794164768097696e+16,1743061995649453.2,2338510351988747.0,10104876099585.648,25966527892418.35,582206756757691.5,1.6760637533685758e+16
16.221815912762718,1.0386634745671202e+16,3.2418936872879564e+16,1751994838729722.5,2350494748985946.0,10425130355318.102,26789581871549.652,600661236874925.2,1.7291936590390922e+16
16.64625223101797,1.0438666563402984e+16,3.305471506156707e+16,1760771452096242.5,2362269546552885.0,10752531549958.562,27631009331928.516,619527704208526.6,1.7835096254424588e+16
17.079177275638333,1.0489786713044278e+16,3.3701741224106532e+16,1769394287282771.5,2373838033692825.5,11087208420508.688,28491141513101.707,638813586613809.8,1.8390330253539184e+16
17.5207608211511,1.0540009503510378e+16,3.4360261441006164e+16,1777865757885800.5,2385203448512027.0,11429292319714.033,29370316395024.95,658526463107204.1,1.8957856659275988e+16
17.97117603757412,1.0589349029212126e+16,3.5030526090443616e+16,1786188241319673.5,2396368980574384.0,11778917269767.361,30268878836847.973,678674066979325.4,1.9537897976251544e+16
18.430599558325603,1.0637819179572358e+16,3.5712789955975136e+16,1794364080421812.2,2407337773055070.0,12136220017077.098,31187180718470.223,699264288970217.1,2.0130681233220132e+16
18.899211549492115,1.068543364772579e+16,3.6407312334960264e+16,1802395584920194.5,2418112924709234.0,12501340088108.838,32125581084885.426,720305180507163.4,2.0736438075924904e+16
19.37719578048196,1.0732205938467644e+16,3.7114357147807256e+16,1810285032774091.8,2428697491670849.0,12874419846306.227,33084446293336.754,741804957005611.1,2.135540486174935e+16
19.864739696091597,1.0778149375512326e+16,3.783419304813856e+16,1818034671398480.5,2439094489095313.5,13255604550101.092,34064150163305.34,763772001233651.6,2.1987822756185404e+16
20.36203449001343,1.0823277108118252e+16,3.856709353397249e+16,1825646718781474.2,2449306892658667.0,13645042412021.363,35065074129358.824,786214866740697.2,2.263393783113207e+16
20.869275179813698,1.0867602117130644e+16,3.931333706001048e+16,1833123364503599.0,2459337639925017.0,14042884658907.91,36087607396887.445,809142281350985.2,2.329400116504439e+16
21.38666068340997,1.0911137220489638e+16,4.007320715111673e+16,1840466770666941.8,2469189631593122.0,14449285593250.648,37132147100758.15,832563150722551.6,2.396826894495045e+16
21.91439389707817,1.0953895078249204e+16,4.084699251707419e+16,1847679072741676.8,2478865732632104.5,14864402655656.793,38199098466919.07,856486561972440.8,2.465700257035612e+16
22.452681775019734,1.0995888197146638e+16,4.163498716869399e+16,1854762380336867.8,2488368773315528.0,15288396488463.164,39288874976989.77,880921787368914.9,2.536046875906055e+16
23.00173541052013,1.10371289347613e+16,4.243749053535776e+16,1861718777901938.8,2497701550162544.0,15721431000506.96,40401898535871.805,905878288091496.1,2.6078939654904196e+16
23.561770118730532,1.107762950329731e+16,4.325480758406492e+16,1868550325364751.8,2506866826793914.0,16163673433068.346,41538599642420.305,931365718059681.6,2.6812692937473784e+16
24.133005521105144,1.1117401973023278e+16,4.408724894005689e+16,1875259058711758.2,2515867334710379.0,16615294427000.832,42699417563216.33,957393927831279.0,2.7562011933790036e+16
24.715665631527248,1.115645827539807e+16,4.493513100908895e+16,1881846990515352.5,2524705774000103.0,17076468091064.432,43884800509481.61,983972968571277.5,2.832718573200363e+16
25.309978944157795,1.1194810205912302e+16,4.579877610141634e+16,1888316110413041.8,2533384813981593.0,17547372071478.287,45095205817181.13,1011113096092304.8,2.9108509297128304e+16
25.91617852304095,1.1232469426669542e+16,4.6678512557560536e+16,1894668385542933.5,2541907093787936.5,18028187622710.297,46331100130359.47,1038824774967637.8,2.9906283588839444e+16
26.53450209350177,1.1269447468732416e+16,4.757467487592246e+16,1900905760939424.5,2550275222897650.0,18519099679520.688,47592959587757.93,1067118682717919.6,3.072081568136782e+16
27.165192135371807,1.130575573425551e+16,4.8487603842302184e+16,1907030159892994.5,2558491781617364.0,19020296930278.887,48881270012763.88,1096005714072626.2,3.1552418885520588e+16
27.808495978079243,1.134140549842544e+16,4.941764666139066e+16,1913043484277436.2,2566559321520892.5,19531971891572.184,50196527106742.016,1125496985307528.4,3.2401412872861028e+16
28.464665897640828,1.1376407911227376e+16,5.036515709029314e+16,1918947614847828.5,2574480365848957.0,20054320984126.023,51539236645802.02,1155603838659251.0,3.326812380207979e+16
29.133959215593645,1.1410773999055374e+16,5.1330495574144856e+16,1924744411512208.0,2582257409873662.0,20587544610056.582,52909914681056.85,1186337846818236.2,3.4152884447594276e+16
29.816638399905518,1.1444514666183394e+16,5.231402938387787e+16,1930435713579619.5,2589892921231322.5,21131847231476.266,54309087742428.734,1217710817501360.5,3.5056034330408136e+16
30.51297116790363,1.1477640696111252e+16,5.3316132756198184e+16,1936023339987220.8,2597389340227064.5,21687437450473.656,55737293046060.08,1249734798105499.0,3.5977919851270576e+16
31.223230591261704,1.151016275280018e+16,5.433718703583285e+16,1941509089508654.5,2604749080114489.0,22254528090490.227,57195078705390.055,1282422080443391.0,3.691889442617037e+16
31.947695203086937,1.154209138181054e+16,5.537758082010207e+16,1946894740945956.8,2611974527353069.0,22833336279116.688,58683003945958.63,1315785205563199.0,3.787931862420414e+16
32.686649107148675,1.1573437011353602e+16,5.643771010587512e+16,1952182053306983.2,2619068041846185.5,23424083532331.242,60201639323998.336,1349836968653161.5,3.8859560307858856e+16
33.44038208929165,1.1604209953268356e+16,5.7517978438968536e+16,1957372765970170.0,2626031957162209.5,24026995840205.1,61751566948881.73,1384590424032815.2,3.985999477574585e+16
34.20918973107749,1.1634420403933416e+16,5.8618797066040264e+16,1962468598838346.0,2632868580740824.0,24642303754098.57,63333380709488.22,1420058890232186.5,4.088100490783208e+16
34.993373525699035,1.166407844512338e+16,5.974058508903926e+16,1967471252483196.0,2639580194086854.5,25270242475371.816,64947686504557.59,1456255955160618.5,4.1922981313205336e+16
35.793240996213015,1.169319404481807e+16,6.0883769622264184e+16,1972382408281738.2,2646169052953365.0,25911051945637.832,66595102477100.03,1493195481366619.0,4.298632248042176e+16
36.60910581613728,1.1721777057972602e+16,6.204878595209104e+16,1977203728546237.8,2652637387515940.5,26564976938581.41,68276259252933.11,1530891611390426.8,4.40714349304744e+16
37.44128793246003,1.1749837227255046e+16,6.323607769942211e+16,1981936856648631.0,2658987402539633.0,27232267153371.633,69991800183415.195,1569358773210839.5,4.517873337243132e+16
38.29011369110923,1.1777384183758818e+16,6.4446096984915816e+16,1986583417140691.2,2665221277540178.0,27913177309693.773,71742381592451.1,1608611685788013.5,4.630864086178598e+16
39.15591596493141,1.1804427447695508e+16,6.567930459705105e+16,1991145015870867.0,2671341166940723.0,28607967244428.707,73528673027842.31,1648665364703804.0,4.746158896156791e+16
40.03903428423004,1.1830976429073054e+16,6.693617016308547e+16,1995623240098722.5,2677349200225391.0,29316902010007.164,75351357517058.67,1689535127901496.0,4.8638017906259624e+16
40.93981496991464,1.1857040428365248e+16,6.8217172322960104e+16,2000019658607821.8,2683247482090700.0,30040251974467.15,77211131827506.62,1731236601526473.2,4.983837676856785e+16
41.85861126931294,1.1882628637175984e+16,6.95227989062113e+16,2004335821817810.8,2689038092595945.5,30778292923242.145,79108706731374.27,1773785725869773.5,5.106312362909703e+16
42.7957834946992,1.1907750138903094e+16,7.085354711194313e+16,2008573261896353.8,2694723087313380.5,31531306162710.91,81044807275132.88,1817198761416200.2,5.231272574897615e+16
