t(s),Total solute volume 1,Total retention volume 1,Total 1 volume 1,Total 2 volume 1,Total 3 volume 1,Total 4 volume 1,Total 5 volume 1,Total 6 volume 1
0.1,1323473711248431.8,2617890617675497.5,487117646595586.6,807299259831480.0,0.0,0.0,0.0,-8.892789209081686e-83
0.202,1988315197860345.5,3933400259660378.0,731819184442318.8,1212842885102410.8,88091752.14340612,313246261.71803296,11346530351.963171,411244386934.40186
0.30604000000000003,2495962172917688.5,4938205779481923.0,918663705647369.5,1522500063689567.5,223375729.53023353,794312645.0929519,28788291357.229824,1050031247569.1935
0.41216080000000005,2925517740646843.0,5788729190208825.0,1076765906135194.9,1784522624098426.8,396664956.0687724,1410526606.672066,51133528522.74198,1869978608280.8228
0.5204040160000001,3307011569676658.5,6544350109536735.0,1217178505188934.2,2017228229912551.2,603867200.9555708,2147335688.69852,77853513909.04625,2851200041791.2817
0.6308120963200001,3655449505200841.0,7234739907164494.0,1345424553653257.0,2229770227357540.5,842784420.7451423,2996923484.320114,108664440246.13432,3983116804705.104
0.7434283382464002,3979563727038311.5,7877165021029734.0,1464718017259634.2,2427475117947890.0,1112157965.7660584,3954814158.131582,143403824931.9737,5259687986843.781
0.8582969050113283,4284951817468095.5,8482694210182085.0,1577119141883714.8,2613757344539645.0,1411275794.9067614,5018475648.930831,181979749285.6018,6677496789898.74
0.9754628431115548,4575451026079452.0,9058915952338990.0,1684040265425055.5,2790957572874290.5,1739778838.3077369,6186631077.769754,224345850457.95065,8234815699822.747
1.094972099973786,4853825036637981.0,9611296369955796.0,1786498589194383.0,2960761609320711.0,2097553724.272264,7458877277.461101,270487471799.57758,9931090899934.668
1.2168715419732616,5122141286808599.0,1.0143925268018788e+16,1885255054195235.5,3124430560372210.5,2484668303.042962,8835455511.549028,320413340212.78876,11766633178707.812
1.3412089728127268,5381993630110354.0,1.065995636705258e+16,1980896294073227.0,3282936653167803.0,2901330500.9776344,10317105157.83423,374150255694.3557,13742421009850.969
1.4680331522689813,5634641289889416.0,1.1161882025338374e+16,2073885778508980.8,3437047995372040.5,3347860842.406699,11904965994.981298,431739545204.3191,15859969195900.473
1.597393815314361,5881099567668544.0,1.1651712570811378e+16,2164597199328915.0,3587383905932973.5,3824673443.51254,13600510616.065142,493234610031.3962,18121238086855.785
1.729341691620648,6122201292131253.0,1.2131097783638274e+16,2253337087415421.5,3734452398057538.0,4332262502.8026905,15405496388.249346,558699182547.2051,20528569092645.617
1.863928525453061,6358639759436832.0,1.26014117860044e+16,2340360617317083.5,3878676372170877.0,4871192495.029566,17321930582.067413,628206060892.6552,23084637895634.934
2.001207095962122,6590999542551373.0,1.3063813948913914e+16,2425882946929539.0,4020412409154235.5,5442090941.34641,19352044661.892803,701836176110.7527,25792419967055.605
2.1412312378813647,6819779105037898.0,1.3519293596878288e+16,2510087540725934.5,4159964564423475.5,6045643021.518364,21498275126.817318,779677896973.7361,28655164875858.03
2.284055862638992,7045407731106703.0,1.3968703476527104e+16,2593132401030410.0,4297594695010113.0,6682587535.310448,23763249149.24353,861826508898.1661,31676377034293.83
2.4297369798917723,7268258422710389.0,1.4412785252800466e+16,2675154814922246.0,4433530326599095.0,7353713873.423779,26149773803.459347,948383823120.5593,34859801257942.35
2.578331719489608,7488657876771350.0,1.4852189233285586e+16,2756275026453687.5,4567970739490317.0,8059859758.578286,28660828032.873882,1039457885241.1694,38209411997206.47
2.7298983538794,7706894310261854.0,1.52874898384385e+16,2836599116748543.5,4701091741782087.0,8801909584.597605,31299556743.763863,1135162760923.1375,41729405418750.72
2.884496320956988,7923223673429369.0,1.5719197885795984e+16,2916221290841555.0,4833049459346845.0,9580793227.522665,34069266577.565033,1235618382492.3455,45424193735913.73
3.0421862473761276,8137874638331614.0,1.6147770453548156e+16,2995225713758368.0,4963983378763991.0,10397485235.123882,36973423028.75799,1340950444357.027,49298401341560.61
3.2030299723236504,8351052644667722.0,1.6573618880906858e+16,3073687999623942.5,5094018815217092.0,11253004324.25514,40015648657.44568,1451290338143.407,53356862406974.91
3.3670905717701234,8562943211335834.0,1.6997115317291494e+16,3151676430514242.5,5223268932495261.0,12148413132.223543,43199722205.215706,1566775120602.5325,57604619690217.1
3.5344323832055258,8773714669859721.0,1.7418598128985482e+16,3229252962521138.0,5351836410342918.0,13084818180.66345,46529578466.67337,1687547508932.4907,62046924356123.77
3.7051210308696363,8983520438099252.0,1.7838376397335264e+16,3306474062614144.0,5479814831389777.0,14063370019.592155,50009308801.70328,1813755899345.6467,66689236653938.23
3.879223451487029,9192500925064764.0,1.8256733688013372e+16,3383391409726302.0,5607289843059318.0,15085263526.265121,53643162198.20056,1945554405606.2444,71537227331654.27
4.0568079205167695,9400785137216476.0,1.8673931230464508e+16,3460052485968615.5,5734340137387858.0,16151738338.753098,57435546813.877785,2083102914948.035,76596779691446.17
4.237944078927105,9608492041316278.0,1.909021061638223e+16,3536501078241286.5,5861038282343942.0,17264079408.26207,61391031940.32101,2226567159310.3213,81873992210082.34
4.422702960505647,9815731727301952.0,1.9505796103139256e+16,3612777706241095.5,5987451431164497.0,18423617657.411915,65514350343.83883,2376118800243.2114,87375181663453.84
4.61115701971576,1.0022606405782866e+16,1.9920896590559084e+16,3688919989599608.5,6113641930812476.0,19631730734.208347,69810400946.59749,2531935526157.6104,93106886706341.97
4.803380160110075,1.0229211267908668e+16,2.0335707325883684e+16,3764962964366423.5,6239667846484026.0,20889843853.440376,74284251818.6449,2694201160853.4585,99075871868070.81
4.9994477633122765,1.043563523003044e+16,2.0750411381249324e+16,3840939357089098.0,6365583415840849.0,22199430718.839996,78941143457.12236,2863105782466.455,105289131932327.38
5.199436718578522,1.0641961581388568e+16,2.1165180939714452e+16,3916879823201137.5,6491439444090203.0,23562014520.630547,83786492333.56552,3038845852140.193,111753896675584.45
5.403425452950093,1.084826854975158e+16,2.158017841933801e+16,3992813155210986.5,6617283649016311.0,24979169004.14599,88825894693.93098,3221624351866.5347,118477635943575.39
5.611493962009095,1.1054629797293732e+16,2.1995557459597256e+16,4068766465214682.5,6743160963458250.0,26452519606.06253,94065130599.05537,3411650931048.2104,125468065049375.62
5.823723841249277,1.1261114856885034e+16,2.2411463790256612e+16,4144765345476762.0,6869113801440496.0,27983744655.497932,99510168195.78555,3609142061429.504,132733150480036.14
6.040198318074262,1.1467789517261802e+16,2.2828035999425796e+16,4220834010196130.0,6995182293121325.0,29574576637.82425,105167168211.118,3814321200117.1367,140281115901527.27
6.261002284435747,1.1674716164161202e+16,2.3245406214811764e+16,4296995421063989.0,7121404492879749.0,31226803519.53545,111042488663.45265,4027418960477.462,148120448454114.34
6.486222330124463,1.1881954083373064e+16,2.3663700709933788e+16,4373271398805092.0,7247816564172693.0,32942270132.927967,117142689786.54218,4248673290749.737,156259905332268.47
6.715946776726952,1.208955973073472e+16,2.4083040445238604e+16,4449682722552040.0,7374452944227897.0,34722879619.70749,123474539162.98363,4478329660261.092,164708520644902.53
6.950265712261491,1.2297586973330056e+16,2.450354155254106e+16,4526249218620956.0,7501346491171703.0,36570594932.935234,130045017065.16911,4716641253167.622,173475612553164.03
7.18927102650672,1.2506087305519604e+16,2.4925315769963804e+16,4602989840023546.0,7628528615804293.0,38487440396.98962,136861322002.53758,4963869169679.8125,182570790684246.84
7.433056447036854,1.271511004290113e+16,2.5348470833505348e+16,4679922737856219.0,7756029399912703.0,40475503325.441505,143930876474.77347,5220282634759.013,192003963820768.97
7.681717575977592,1.292470249685863e+16,2.5773110830495464e+16,4757065325544515.0,7883877702743219.0,42536935696.94041,151261332931.289,5486159214297.914,201785347866181.78
7.935351927497144,1.313491013198764e+16,2.619933651946344e+16,4834434336785194.0,8012101257028457.0,44673955889.37779,158860579937.9464,5761785038819.126,211925474087509.28
8.194058966047088,1.3345776708371708e+16,2.6627245620329176e+16,4912045877912378.0,8140726755773869.0,46888850472.74955,166736748552.51172,6047455034746.314,222435197637437.62
8.45794014536803,1.3557344410421594e+16,2.70569330783043e+16,4989915475318144.0,8269779930847833.0,49183976061.27163,174898218910.81967,6343473163319.82,233325706358418.22
8.72709894827539,1.3769653963763416e+16,2.748849130444702e+16,5068058118474402.0,8399285624281654.0,51561761225.42766,183353627026.05475,6650152667243.859,244608529872029.53
9.0016409272409,1.3982744741471704e+16,2.792201039543752e+16,5146488299032953.0,8529267853070106.0,54024708464.73577,192111871803.95367,6967816325167.168,256295548957371.56
9.281673745785717,1.4196654860778864e+16,2.8357578334817652e+16,5225220046420465.0,8659749868162921.0,56575396242.12018,201182122277.0775,7296796714111.548,268399005222735.03
9.567307220701432,1.4411421271253614e+16,2.879528117766047e+16,5304266960293333.0,8790754208252164.0,59216481080.867966,210573825061.63647,7637436479974.559,280931511075228.06
9.85865336511546,1.4627079835318828e+16,2.923520322040049e+16,5383642240173142.0,8922302748887073.0,61950699725.2334,220296712040.6514,7990088616243.584,293906059993452.25
10.155826432417769,1.484366540187648e+16,2.967742715734495e+16,5463358712545003.0,9054416747384076.0,64780871365.83107,230360808277.50122,8355116751068.61,307336037108679.9
10.458942961066125,1.5061211873716714e+16,3.0122034225213516e+16,5543428855668172.0,9187116883945364.0,67709899931.032104,240776440164.18967,8732895442850.469,321235230100344.25
10.768121820287448,1.5279752269309724e+16,3.0569104336896732e+16,5623864822319151.0,9320423299351122.0,70740776445.64832,251554243808.8782,9123810484510.217,335617840411997.44
11.083484256693197,1.5499318779512062e+16,3.101871620549045e+16,5704678460663031.0,9454355629549422.0,73876581458.2513,262705173667.49963,9528259216613.65,350498494794159.4
11.405153941827061,1.5719942819658666e+16,3.147094745954602e+16,5785881333426431.0,9588933037431610.0,77120487538.53802,274240511424.45132,9946650849533.031,365892257180842.5
11.733257020663602,1.594165507746053e+16,3.19258747503749e+16,5867484735526739.0,9724174242049130.0,80475761846.21266,286171875127.6087,10379406794835.93,381814640906745.06
12.067922161076874,1.6164485557082984e+16,3.2383573852155284e+16,5949499710295593.0,9860097545500828.0,83945768772.91113,298511228583.08154,10826961006097.781,398281621272454.56
12.409280604298411,1.6388463619738996e+16,3.284411975551092e+16,6031937064419618.0,9996720857694104.0,87533972658.7502,311270891015.3345,11289760329342.842,415309648465205.4
12.75746621638438,1.6613618021097138e+16,3.3307586755163004e+16,6114807381708798.0,1.0134061719163104e+16,91243940585.13565,324463546998.4914,11768264863324.11,432915660843027.56
13.112615540712067,1.683997694577284e+16,3.377404853219447e+16,6198121035791314.0,1.02721373221082e+16,95079345245.51596,338102256664.8237,12262948329860.01,451117098590349.2
13.474867851526309,1.706756803914419e+16,3.4243578231412704e+16,6281888201823697.0,1.0410964529802904e+16,99043967895.8203,352200466196.58484,12774298454452.24,469931917753383.9
13.844365208556836,1.7296418436709504e+16,3.471624853424843e+16,6366118867296148.0,1.0550559894501528e+16,103141701386.3616,366772018607.5595,13302817357415.16,489378604663836.25
14.221252512727972,1.7526554791181924e+16,3.5192131727587316e+16,6450822842005027.0,1.0690939673966774e+16,107376553277.0471,381831164820.8398,13849021955753.16,509476190759724.6
14.605677562982532,1.7758003297497858e+16,3.5671299768891924e+16,6536009767257359.0,1.0832119846724212e+16,111752649037.77223,397392575049.52844,14413444376029.764,530244267812332.3
14.997791114242183,1.7990789715898388e+16,3.6153824347939144e+16,6621689124366248.0,1.0974116126141698e+16,116274235335.92822,413471350487.2217,14996632378476.748,551703003568520.2
15.397746936527026,1.8224939393227732e+16,3.663977694546826e+16,6707870242490014.0,1.1116943973421232e+16,120945683413.00069,430083035315.30145,15599149792598.268,573873157817874.9
15.805701875257567,1.8460477282580324e+16,3.712922888900752e+16,6794562305863451.0,1.1260618609583194e+16,125771492552.27454,447243629034.2151,16221576964531.191,596776098894367.2
16.221815912762718,1.8697427961413724e+16,3.762225140612485e+16,6881774360464380.0,1.1405155026515076e+16,130756293639.71683,464969599126.08997,16864511216427.812,620433820622426.8
16.64625223101797,1.8935815648236068e+16,3.8118915675325e+16,6969515320155810.0,1.15505679971506e+16,135904852820.14224,483277894056.1871,17528567318133.521,644868959717533.9
17.079177275638333,1.9175664217965332e+16,3.861929287479799e+16,7057793972338986.0,1.169687208483864e+16,141222075250.81735,502185956620.85474,18214377971437.434,670104813651683.6
17.5207608211511,1.941699721605018e+16,3.912345422920523e+16,7146618983150607.0,1.184408165195645e+16,146713008954.70013,521711737649.7792,18922594307179.32,696165358994231.9
17.97117603757412,1.9659837871432096e+16,3.9631471054676264e+16,7235998902233865.0,1.1992210867816996e+16,152382848775.55576,541873710070.53217,19653886395502.957,723075270238902.8
18.430599558325603,1.9904209108425044e+16,4.014341480217177e+16,7325942167110731.0,1.2141273715914712e+16,158236940437.2309,562690883343.5009,20408943769549.312,750859939127876.2
18.899211549492115,2.0150133557578204e+16,4.065935709936008e+16,7416457107180049.0,1.2291284000551858e+16,164280784709.41092,584182818275.4823,21188475962890.766,779545494484171.5
19.37719578048196,2.0397633565584236e+16,4.11793697911401e+16,7507551947364610.0,1.2442255352882742e+16,170520041682.233,606369642220.3718,21993213061011.914,809158822563618.6
19.864739696091597,2.064673120429044e+16,4.1703524978932824e+16,7599234811427518.0,1.2594201236409836e+16,176960535152.1525,629272064675.4904,22823906267147.266,839727587938086.0
20.36203449001343,2.0897448278863216e+16,4.223189505885968e+16,7691513724977350.0,1.274713495196432e+16,183608257121.52176,652911393282.2578,23681328482792.324,871280254921601.4
20.869275179813698,2.1149806335153628e+16,4.2764552758908936e+16,7784396618179113.0,1.2901069642198884e+16,190469372414.36414,677309550240.0988,24566274903209.816,903846109551463.8
21.38666068340997,2.1403826666307964e+16,4.330157117519273e+16,7877891328187322.0,1.3056018295620144e+16,197550223410.87964,702489089142.5288,25479563628257.33,937455282136401.5
21.91439389707817,2.165953031866272e+16,4.384302380738297e+16,7972005601315671.0,1.3211993750184364e+16,204857334903.23648,728473212244.5841,26422036288867.387,972138770384185.2
22.452681775019734,2.1916938096960516e+16,4.4388984593414536e+16,8066747094956842.0,1.3369008696479134e+16,212397419075.2748,755285788170.8463,27394558689517.78,1007928463121202.4
23.00173541052013,2.217607056892081e+16,4.4939527943531624e+16,8162123379264775.0,1.3527075680511578e+16,220177380608.7464,782951370073.4894,28398021467032.363,1044857164616742.9
23.561770118730532,2.2436948069196452e+16,4.549472877375612e+16,8258141938610961.0,1.3686207106121574e+16,228204321918.7853,811495214249.843,29433340766059.164,1082958619524873.0
24.133005521105144,2.269959070274397e+16,4.605466253884295e+16,8354810172824917.0,1.3846415237037736e+16,236485548521.32306,840943299229.1882,30501458931576.582,1122267538457034.8
24.715665631527248,2.2964018347634684e+16,4.661940526479252e+16,8452135398228664.0,1.4007712198592048e+16,245028574535.19913,871322345338.5215,31603345218783.527,1162819624198535.8
25.309978944157795,2.3230250657329596e+16,4.718903358097787e+16,8550124848474344.0,1.4170109979107628e+16,253841128321.74988,902659834757.2334,32739996520732.113,1204651598582502.5
25.91617852304095,2.349830706244163e+16,4.776362475194697e+16,8648785675192527.0,1.4333620430973592e+16,262931158264.71237,934984032070.7126,33912438114068.824,1247801230034754.5
26.53450209350177,2.376820677200488e+16,4.8343256708954424e+16,8748124948459551.0,1.4498255271419302e+16,272306838693.26865,968324005333.032,35121724423251.367,1292307361803426.0
27.165192135371807,2.4039968774269904e+16,4.892800808127401e+16,8848149657090171.0,1.466402608299942e+16,281976575951.1403,1002709647648.9551,36368939803613.98,1338209940887266.5
27.808495978079243,2.4313611837043136e+16,4.951795822734089e+16,8948866708762491.0,1.4830944313801096e+16,291949014614.6261,1038171699285.623,37655199343657.32,1385550047676627.8
28.464665897640828,2.458915450758615e+16,5.011318726577194e+16,9050282929980874.0,1.4999021277382324e+16,302233043862.5386,1074741770324.4056,38981649686942.46,1434369926321377.8
29.133959215593645,2.486661511208964e+16,5.07137761063053e+16,9152405065882438.0,1.5168268152451312e+16,312837804000.99536,1112452363863.4197,40349469873974.18,1484713015840086.2
29.816638399905518,2.5146011754737052e+16,5.131980648070663e+16,9255239779892164.0,1.5338695982295064e+16,323772693146.0639,1151336899781.428,41759872204456.84,1536623981984937.0
30.51297116790363,2.542736231636918e+16,5.193136097367646e+16,9358793653231786.0,1.5510315673965052e+16,335047374067.28253,1191429739073.7793,43214103120315.73,1590148749876960.8
31.223230591261704,2.5710684452763356e+16,5.254852305380298e+16,9463073184286016.0,1.5683137997227272e+16,346671781195.0808,1232766208771.2444,44713444109875.44,1645334537426349.2
31.947695203086937,2.5995995592537356e+16,5.3171377104594e+16,9568084787831332.0,1.5857173583283902e+16,358656127795.1737,1275382627452.5918,46259212633589.39,1702229889552546.2
32.686649107148675,2.6283312934688604e+16,5.380000845562619e+16,9673834794130014.0,1.6032432923272106e+16,371010913312.998,1319316331361.876,47852763071719.2,1760884713219175.5
33.44038208929165,2.6572653445778484e+16,5.443450341384442e+16,9780329447894212.0,1.6208926366546672e+16,383746930891.28,1364605701141.409,49495487694363.266,1821350313298668.8
34.20918973107749,2.6864033856771668e+16,5.507494929504584e+16,9887574907122120.0,1.6386664118751822e+16,396875275063.851,1411290189191.4583,51188817654235.49,1883679429281738.8
34.993373525699035,2.7157470659536796e+16,5.572143445558081e+16,9995577241810436.0,1.6565656239686874e+16,410407349628.81854,1459410347667.7974,52934224002596.984,1947926272846793.8
35.793240996213015,2.7452980103019364e+16,5.637404832430253e+16,1.010434243254551e+16,1.6745912640971546e+16,424354875704.2187,1509007857128.1548,54733218728745.39,2014146566304557.8
36.60910581613728,2.7750578189091684e+16,5.703288143479478e+16,1.0213876368975948e+16,1.6927443083514858e+16,438729899969.2931,1560125555838.7773,56587355823465.88,2082397581932980.5
37.44128793246003,2.8050280668089468e+16,5.769802545790889e+16,1.0324184848169842e+16,1.7110257174792134e+16,453544803094.5079,1612807469752.196,58498232366848.94,2152738182217862.8
38.29011369110923,2.8352103034039588e+16,5.836957323463883e+16,1.0435273572858342e+16,1.7294364365934182e+16,468812308363.465,1667098843167.3967,60467489640880.8,2225228861014334.5
39.15591596493141,2.8656060519587304e+16,5.9047618809360824e+16,1.054714814956827e+16,1.747977394863296e+16,484545490489.834,1723046170083.4583,62496814267211.61,2299931785644541.0
40.03903428423004,2.8962168090627976e+16,5.9732257463469976e+16,1.065981408664683e+16,1.766649505186705e+16,500757784632.4269,1780697226257.9038,64587939370505.31,2376910839946772.5
40.93981496991464,2.9270440440649784e+16,6.042358574943594e+16,1.0773276792178808e+16,1.7854536638450732e+16,517462995611.54596,1840101101980.724,66742645767773.32,2456231668291199.0
41.85861126931294,2.9580891984793052e+16,6.11217015253083e+16,1.0887541571800412e+16,1.8043907501410204e+16,534675307329.69214,1901308235575.2144,68962763184096.445,2537961720577589.5
