t(s),Total solute volume 1,Total retention volume 1,Total 1 volume 1,Total 2 volume 1,Total 3 volume 1,Total 4 volume 1,Total 5 volume 1,Total 6 volume 1
0.1,821307387244814.4,914309965951331.9,46537842289353.97,46464736417161.86,0.0,0.0,0.0,0.0
0.202,1235691589558147.0,1379246026547080.5,70018145784815.59,69908155084704.39,10062791864.338919,16411745272.057076,186167758674.35275,3415493823602.611
0.30604000000000003,1549789867965399.0,1734475279342322.8,87815935496829.1,87677986474513.66,25492786179.08516,41577310140.79016,471635694858.7425,8652783614405.078
0.41216080000000005,1814214128655592.5,2035951750607046.8,102799040177742.52,102637554378771.0,45211015704.00744,73737124911.10179,836443922877.8995,15345635331448.71
0.5204040160000001,2047916871668156.2,2304597989522331.0,116041367691133.78,115859079679224.97,68729095876.39117,112094800866.19649,1271558618454.6934,23328287968621.926
0.6308120963200001,2260344720127879.0,2550832939519788.0,128078193215498.17,127876996698633.67,95776887173.79915,156209886161.48303,1771983569856.9668,32509059134584.473
0.7434283382464002,2456989276727542.5,2780711550108707.0,139220688115560.28,139001987986867.78,126192088770.94911,205817805786.05814,2334717643615.183,42832869740565.05
0.8582969050113283,2641368139919070.5,2998113736243088.5,149668170508770.25,149433058555129.34,159874804094.29282,260755763772.276,2957914249191.7305,54265822443061.39
0.9754628431115548,2815890596595668.0,3205700011498149.0,159557158117213.97,159306511671531.3,196765108102.5449,320926158637.66156,3640466339245.361,66787587507746.95
1.094972099973786,2982289906124790.5,3405388231122621.0,168985862831418.88,168720404946753.62,236830589521.3978,386276266807.9151,4381775947303.0312,80387174416024.97
1.2168715419732616,3141860732340598.0,3598615201105417.5,178027644348800.16,177747982838357.56,280058837036.741,456785989037.72675,5181615188746.442,95060381562849.28
1.3412089728127268,3295599248116829.0,3786490910661315.0,186738948936460.06,186445602942685.47,326452621147.9131,532459993120.48004,6040037131457.927,110808160919610.7
1.4680331522689813,3444290576537965.0,3969894707260620.0,195164264121112.12,194857682901529.4,376026655277.84534,613322432170.7443,6957315882677.115,127635518729880.55
1.597393815314361,3588565882177952.0,4149538037895081.5,203339353659291.56,203019930290567.62,428805335568.25055,699413259023.7743,7933904781534.195,145550748391149.03
1.729341691620648,3728941055888935.0,4326006928346793.0,211293449538337.88,210961531176958.6,484821115238.339,790785575535.7755,8970406331061.535,164564878720729.4
1.863928525453061,3865843755085504.5,4499791653334488.0,219050784163375.38,218706679899430.8,544113305991.8867,887503678356.4835,10067550030697.521,184691267171128.22
2.001207095962122,3999632810875410.5,4671308016056020.0,226631690025965.78,226275677009475.84,606727175931.1827,989641588280.02,11226175694305.125,205945293686656.97
2.1412312378813647,4130612477405027.0,4840912962118358.0,234053407116541.94,233685735415431.5,672713258882.9786,1097281924397.3009,12447220679483.023,228344126318585.06
2.284055862638992,4259043103470915.0,5008916266210038.0,241330687611251.88,240951584119426.47,742126817954.6896,1210515029795.9368,13731709970337.223,251906539190351.62
2.4297369798917723,4385149264956783.5,5175589433456869.0,248476256681248.62,248085928302794.44,815027423873.3004,1329438284475.563,15080748383958.748,276652769423748.84
2.578331719489608,4509126058482317.0,5341172585117449.0,255501169110489.3,255099805383664.03,891478620262.2528,1454155560069.0684,16495514385503.662,302604403575128.5
2.7298983538794,4631144039420097.0,5505879859254896.0,262415089099205.12,262002864380888.88,971547655800.2146,1584776783662.634,17977255140860.098,329784286774376.2
2.884496320956988,4751353144373446.0,5669903699686852.0,269226512523745.53,268803587824747.66,1055305268554.4031,1721417586730.0872,19527282534835.445,358216449574789.8
3.0421862473761276,4869885841870312.0,5833418300618773.0,275942945464739.8,275509470004657.47,1142825511528.8162,1864199021309.5867,21146969952131.137,387926048794090.9
3.2030299723236504,4986859688847881.0,5996582401656780.0,282571049065499.44,282127161600020.7,1234185611142.053,2013247329911.5762,22837749667844.105,418939319534467.44
3.3670905717701234,5102379424212109.0,6159541577062320.0,289116758159644.4,288662588121494.9,1329465852288.8325,2168693758810.3994,24601110730116.113,451283536227861.94
3.5344323832055258,5216538697844864.0,6322430126987951.0,295585379242044.5,295121047728044.6,1428749485067.0508,2330674406699.8696,26438597243960.92,484986981037303.75
3.7051210308696363,5329421509680517.0,6485372652376685.0,301981672011401.8,301507292641417.44,1532122649317.3616,2499330102430.782,28351806985009.09,520078918306594.56
3.879223451487029,5441103416098308.0,6648485376154571.0,308309917728203.06,307825597396718.5,1639674313926.7998,2674806306859.9346,30342390286790.5,556589574023770.4
4.0568079205167695,5551652548004712.0,6811877259238931.0,314573976902452.75,314079816439525.3,1751496228462.71,2857253034843.261,32412049156549.58,594550119472386.8
4.237944078927105,5661130475334401.0,6975650949316149.0,320777338278995.7,320273433034256.1,1867682885177.7405,3046824794179.2246,34562536583366.71,633992658405760.8
4.422702960505647,5769592945391114.0,7139903592343253.0,326923160674217.7,326409601035148.5,1988331489796.6626,3243680538912.272,36795656009203.61,674950217204858.6
4.61115701971576,5877090516859667.0,7304727530608611.0,333014308901147.94,332491180754934.75,2113541939786.762,3447983634880.7017,39113260938875.305,717456737579306.5
4.803380160110075,5983669107004974.0,7470210906466005.0,339053384775465.0,338520769922130.7,2243416809044.48,3659901835769.9604,41517254669224.13,761547071449396.0
4.9994477633122765,6089370466211411.0,7636438187180577.0,345042754004374.25,344500730527683.1,2378061338115.5767,3879607268233.3784,44009590121184.914,807256977709581.1
5.199436718578522,6194232591377560.0,7803490623440626.0,350984569610855.4,350433212212415.0,2517583429214.824,4107276424885.276,46592269761186.48,854623120624513.9
5.403425452950093,6298290087593329.0,7971446651809046.0,356880792427410.8,356320172728578.4,2662093645432.072,4343090164168.099,49267345600566.35,903683069649572.5
5.611493962009095,6401574485863030.0,8140382249571799.0,362733209099247.75,362163395914765.1,2811705213609.892,4587233716256.11,52036919263498.65,954475300501390.9
5.823723841249277,6504114523304301.0,8310371248984931.0,368543447961226.75,367964507547903.8,2966534030459.3135,4839896694290.443,54903142115441.41,1007039197331316.6
6.040198318074262,6605936391175450.0,8481485616747353.0,374312993091869.94,373724989375192.6,3126698671547.0347,5101273110349.839,57868215445342.77,1061415055877601.0
6.261002284435747,6707063955210762.0,8653795703573675.0,380043196798233.44,379446191579372.4,3292320402843.401,5371561395652.374,60934390695885.42,1117644087490942.1
6.486222330124463,6807518952027807.0,8827370467963115.0,385735290744980.0,385129343890294.1,3463523194567.1123,5650964424559.713,64103969736911.6,1175768423943993.5
6.715946776726952,6907321164786877.0,9002277677623060.0,391390395907773.44,390775565522697.7,3640433737101.8657,5939689542019.598,67379305177895.9,1235831122948700.5
6.950265712261491,7006488580797373.0,9178584091479272.0,397009531503756.7,396385874092648.4,3823181458793.571,6237948594136.835,70762800715954.97,1297876174316630.0
7.18927102650672,7105037533366468.0,9356355624768768.0,402593623029142.0,401961193642511.2,4011898545464.7905,6545957961608.885,74256911516402.7,1361948506707195.8
7.433056447036854,7202982829851358.0,9535657499349044.0,408143509515047.06,407502361885379.0,4206719961507.6377,6863938595801.964,77864144623313.27,1428093994916620.5
7.681717575977592,7300337867596601.0,9716554381053172.0,413659950096866.56,413010136764130.56,4407783472436.759,7192116057277.775,81587059397933.22,1496359467667958.5
7.935351927497144,7397114739204307.0,9899110505667248.0,419143629979215.94,418485202407001.8,4615229668802.381,7530720556609.891,85428267983128.47,1566792715868168.5
8.194058966047088,7493324328386801.0,1.0083389794889322e+16,424595165867234.1,423928174550357.94,4829201991378.7,7879986997354.865,89390435792328.38,1639442501303894.2
8.45794014536803,7588976397483806.0,1.0269455963451656e+16,430015110925592.1,429339605489910.1,5049846757556.779,8240155021065.18,93476282021697.72,1714358565752013.5
8.72709894827539,7684079667584339.0,1.0457372618429078e+16,435403959318433.9,434719988613527.94,5277313188882.878,8611469054251.111,97688580184474.53,1791591640485189.8
9.0016409272409,7778641892071591.0,1.0647203351630042e+16,440762150376677.06,440069762561986.25,5511753439693.852,8994178357215.22,102030158666622.22,1871193456156266.5
9.281673745785717,7872669924306075.0,1.0839011825850282e+16,446090072433135.06,445389315058075.7,5753322626810.337,9388537074699.36,106503901303108.34,1953216753048397.5
9.567307220701432,7966169780072385.0,1.103286185567638e+16,451388066360958.9,450678986439469.4,6002178860257.106,9794804288296.99,111112747974280.11,2037715291680734.5
9.85865336511546,8059146695338819.0,1.1228817483441362e+16,456656428846468.25,455939072926430.6,6258483274987.021,10213244070596.62,115859695221951.83,2124743863762093.2
10.155826432417769,8151605179812586.0,1.1426943050864612e+16,461895415423764.5,461169829651641.3,6522400063591.946,10644125541032.113,120747796884934.03,2214358303487039.5
10.458942961066125,8243549066716233.0,1.1627303266846186e+16,467105243295208.94,466371473476263.94,6794096509989.83,11087722923426.924,125780164753853.27,2306615499171205.0
10.768121820287448,8334981559160321.0,1.182996327183153e+16,472286093959054.0,471544185613436.94,7073743024082.8,11544315605226.834,130959969245215.64,2401573405224225.0
11.083484256693197,8425905273445292.0,1.2034988699117482e+16,477438115663056.2,476688114078037.44,7361513177385.644,12014188198425.447,136290440094754.11,2499291054460545.0
11.405153941827061,8516322279586215.0,1.2242445733428114e+16,482561425700735.25,481803375979328.44,7657583739629.154,12497630602192.879,141774867070189.16,2599828570749833.0
11.733257020663602,8606234139321787.0,1.2452401167055464e+16,487656112565085.8,486890059671290.06,7962134716346.367,12994938067225.99,147416600703610.5,2703247182010133.5
12.067922161076874,8695641941839704.0,1.2664922453827536e+16,492722237972883.3,491948226773749.25,8275349387453.749,13506411261843.889,153219053043757.7,2809609233548172.5
12.409280604298411,8784546337424581.0,1.2880077761139572e+16,497759838771287.4,496977914075980.94,8597414346842.888,14032356339859.518,159185698428541.0,2918978201752495.5
12.75746621638438,8872947569212575.0,1.309793602026045e+16,502768928737149.5,501979135333195.0,8928519543001.322,14573085010261.775,165320074278216.9,3031418708146069.5
13.112615540712067,8960845503216501.0,1.3318566975105352e+16,507749500278338.56,506951882965184.6,9268858320684.188,15128914608749.445,171625781909669.3,3146996533806201.5
13.474867851526309,9048239656767870.0,1.3542041229646072e+16,512701526045349.94,511896129665408.0,9618627463660.744,15700168171161.45,178106487372320.25,3265778634160314.5
13.844365208556836,9135129225506494.0,1.3768430294115798e+16,517624960460617.9,516811829927896.75,9978027238562.791,16287174508852.852,184765922306232.62,3387833154167147.0
14.221252512727972,9221513109034416.0,1.3997806630147886e+16,522519741172164.3,521698921498614.3,10347261439864.328,16890268286069.643,191607884823005.22,3513229443893745.0
14.605677562982532,9307389935339060.0,1.42302436949784e+16,527385790437460.7,526557326757163.25,10726537436022.736,17509790099379.945,198636240410121.47,3642038074499177.5
14.997791114242183,9392758084078228.0,1.4465815984827582e+16,532223016442859.4,531386954034118.7,11116066216815.846,18146086559220.742,205854922859435.66,3774330854636910.5
15.397746936527026,9477615708811514.0,1.4704599077567458e+16,537031314563278.3,536187698868752.06,11516062441908.844,18799510373624.625,213267935220520.3,3910180847287877.0
15.805701875257567,9561960758252292.0,1.4946669674772034e+16,541810568566410.94,540959445211341.8,11926744490687.875,19470420434192.43,220879350779633.03,4049662387037480.5
16.221815912762718,9645790996607856.0,1.5192105643239632e+16,546560651765251.9,545702066573894.1,12348334513398.557,20159181904380.863,228693314065096.44,4192851097809748.0
16.64625223101797,9729104023066938.0,1.5440986056068302e+16,551281428122335.5,550415427132639.06,12781058483628.469,20866166310176.367,236714041879899.22,4339823911072651.5
17.079177275638333,9811897290489056.0,1.5693391233359728e+16,555972753308724.56,555099382785364.4,13225146252173.797,21591751633228.996,244945824362361.3,4490659084528823.5
17.5207608211511,9894168123343272.0,1.5949402782621076e+16,560634475720475.4,559753782166273.94,13680831602332.6,22336322406522.027,253393026075735.16,4645436221306468.0
17.97117603757412,9975913734939190.0,1.6209103638927408e+16,565266437455004.6,564378467620831.9,14148352306666.178,23100269812654.29,262060087127616.2,4804236289665458.0
18.430599558325603,1.0057131243988946e+16,1.6472578104905256e+16,569868475249540.8,568973276142730.5,14627950185272.166,23883991784814.887,270951524320071.9,4967141643233877.0
18.899211549492115,1.0137817690534158e+16,1.6739911890590942e+16,574440421383589.6,573538040274944.2,15119871165613.496,24687893110530.008,280071932331410.2,5134236041790706.0
19.37719578048196,1.0217970051268324e+16,1.7011192153215044e+16,578982104547164.5,578072588976590.5,15624365343946.81,25512385538263.723,289425984930510.75,5305604672610247.0
19.864739696091597,1.0297585254282496e+16,1.728650753696032e+16,583493350676299.4,582576748457137.6,16141687048396.111,26357887886955.125,299018436224674.2,5481334172384376.0
20.36203449001343,1.0376660193257798e+16,1.7565948212737182e+16,587973983757268.9,587050342979353.8,16672094903715.64,27224826158575.562,308854121941933.7,5661512649738544.0
20.869275179813698,1.0455191741127236e+16,1.7849605918018156e+16,592423826600680.9,591493195632188.6,17215851897787.982,28113633653789.08,318937960748792.6,5846229708357649.0
21.38666068340997,1.0533176763225388e+16,1.8137573996769788e+16,596842701586600.6,595905129074723.9,17773225449901.93,29024751090801.344,329274955604356.44,6035576470737984.0
21.91439389707817,1.0610612129943632e+16,1.8429947439518852e+16,601230431381621.2,600285966252123.9,18344487480855.47,29958626727480.887,339870195151816.5,6229645602581302.0
22.452681775019734,1.0687494728905832e+16,1.872682292358637e+16,605586839628793.6,604635531084469.0,18929914484928.703,30915716486837.465,350728855148272.8,6428531337847210.0
23.00173541052013,1.076382147667849e+16,1.9028298853522144e+16,609911751611136.0,608953649129236.6,19529787603770.707,31896484085942.395,361856199933841.75,6632329504479695.0
23.561770118730532,1.0839589330026796e+16,1.9334475401769948e+16,614204994889455.6,613240148218115.4,20144392702244.918,32901401168373.992,373257583941026.75,6841137550823959.0
24.133005521105144,1.0914795296727904e+16,1.9645454549592252e+16,618466399915058.6,617494859068741.0,20774020446275.69,33930947440272.816,384938453245311.4,7055054572748729.0
24.715665631527248,1.0989436445950564e+16,1.996134012828119e+16,622695800617887.8,621717615871939.1,21418966382739.195,34985610810088.582,396904347157909.75,7274181341490122.0
25.309978944157795,1.1063509918210078e+16,2.028223786068269e+16,626893034970605.5,625908256854890.4,22079531021439.48,36065887532101.52,409160899861640.2,7498620332231904.0
25.91617852304095,1.1137012934905762e+16,2.060825540305651e+16,631057945529011.5,630066624820718.9,22756019919212.09,37172282353798.73,421713842090826.06,7728475753437165.0
26.53450209350177,1.1209942807448008e+16,2.0939502387297692e+16,635190379949220.2,634192567664848.0,23448743766192.715,38305308667185.02,434569002856164.9,7963853576946056.0
27.165192135371807,1.1282296945981302e+16,2.12760904635394e+16,639290191481924.8,638285938868494.4,24158018474291.41,39465488664107.555,447732311215448.4,8204861568853806.0
27.808495978079243,1.13540728677086e+16,2.1618133343159856e+16,643357239444086.0,642346597969610.9,24884165267908.17,40653353495670.01,461209798091020.4,8451609321182977.0
28.464665897640828,1.1425268204822376e+16,2.196574684221309e+16,647391389668331.6,646374411011581.1,25627510776926.215,41869443435811.516,475007598134861.25,8704208284363223.0
29.133959215593645,1.1495880712047156e+16,2.2319048925302176e+16,651392514930335.1,650369250969929.2,26388387132016.92,43114308049125.6,489131951642105.56,8962771800531544.0
29.816638399905518,1.1565908273798002e+16,2.267815974991445e+16,655360495354443.1,654330998157310.2,27167132062289.59,44388506362986.73,503589206513850.7,9227415137665568.0
30.51297116790363,1.1635348910959394e+16,2.3043201711235492e+16,659295218797787.8,658259540607011.1,27964088995316.188,45692607044057.45,518385820270043.0,9498255524561856.0
31.223230591261704,1.1704200787288612e+16,2.3414299487459188e+16,663196581213110.8,662154774435219.5,28779607159560.832,47027188579241.53,533528362113216.44,9775412186670210.0
31.947695203086937,1.1772462215447384e+16,2.3791580085609944e+16,667064486990558.2,666016604182264.8,29614041689241.008,48392839461146.99,549023515043846.1,1.005900638279553e+16
32.686649107148675,1.1840131662666454e+16,2.4175172887892428e+16,670898849278629.5,669844943133075.0,30467753731645.906,49790158378123.98,564878078028020.8,1.0349161442676502e+16
33.44038208929165,1.190720775604666e+16,2.456520969858387e+16,674699590284568.1,673639713617093.9,31341110556935.33,51219754408934.47,581098968218158.4,1.0646002805451568e+16
34.20918973107749,1.1973689287500718e+16,2.4961824791483532e+16,678466641554373.8,677400847287844.9,32234485670440.477,52682247222112.5,597693223227413.6,1.0949658059020642e+16
34.993373525699035,1.2039575218340218e+16,2.5365154957932184e+16,682199944232709.4,681128285382444.9,33148258927485.473,54178267280071.77,614668003458422.0,1.1260256980310864e+16
35.793240996213015,1.2104864683511956e+16,2.577533955541626e+16,685899449302957.9,684821978961267.4,34082816650747.42,55708456048007.734,632030594486994.2,1.157793157645439e+16
36.60910581613728,1.216955699548835e+16,2.6192520556767956e+16,689565117807659.5,688481889128043.5,35038551750169.023,57273466207649.03,649788409501363.1,1.1902816126884706e+16
37.44128793246003,1.2233651647816998e+16,2.6616842599974536e+16,693196921049626.5,692107987230666.0,36015863845437.41,58873961875902.55,667948991797487.2,1.2235047226358412e+16
38.29011369110923,1.2297148318333914e+16,2.7048453038608796e+16,696794840774045.8,695700255042983.8,37015159391038.445,60510618828436.734,686520017330994.6,1.2574763828907388e+16
39.15591596493141,1.2360046872046366e+16,2.748750199289142e+16,700358869331801.9,699258684927896.1,38036851803896.97,62184124728244.414,705509297326218.5,1.2922107292726972e+16
40.03903428423004,1.2422347363690822e+16,2.793414240139699e+16,703889009824435.6,702783279982059.2,39081361593606.22,63895179359227.23,724924780942832.0,1.3277221426003966e+16
40.93981496991464,1.2484050039971884e+16,2.8388530073414656e+16,707385276230994.0,706274054162561.1,40149116495254.35,65644494864833.14,744774558000485.4,1.3640252533688592e+16
41.85861126931294,1.2545155341488692e+16,2.8850823741973076e+16,710847693517196.2,709731032395893.6,41240551604844.31,67432795991788.445,765066861761890.1,1.4011349465212786e+16
42.7957834946992,1.2605663904355176e+16,2.9321185117541196e+16,714276297727242.6,713154250669629.4,42356109517314.2,69260820338949.17,785810071774733.9,1.4390663663158152e+16
43.751699164593184,1.2665576561521702e+16,2.979977894241295e+16,717671136058702.9,716543756107191.0,43496240467148.766,71129318611307.94,807012716772791.4,1.4778349212874102e+16
44.72673314788505,1.2724894343805062e+16,3.0286773045788204e+16,721032266920873.6,719899607026109.4,44661402471582.06,73039054879179.67,828683477636569.8,1.5174562893048802e+16
