t(s),Total solute volume 1,Total retention volume 1,Total 1 volume 1,Total 2 volume 1,Total 3 volume 1,Total 4 volume 1,Total 5 volume 1,Total 6 volume 1
0.1,1323473711248431.8,2617890617675497.5,487117646595586.6,807299259831480.0,0.0,0.0,0.0,-8.892789209081686e-83
0.202,1988274019176870.0,3933456568322256.0,731804028219864.6,1212817766728040.5,116781818.20223606,415265528.93341494,15041913104.180292,545180237032.93567
0.30604000000000003,2495856929019826.0,4938349258457109.0,918624969587242.2,1522435866496222.2,296119256.138108,1052984900.5345409,38163358558.11318,1391980891108.5427
0.41216080000000005,2925330256290515.5,5788984494448932.0,1076696900658352.4,1784408261458635.8,525829538.51037544,1869831318.901774,67783963229.77784,2478896417350.747
0.5204040160000001,3306725681193572.0,6544739202348338.0,1217073281096820.2,2017053842230389.8,800484401.1867976,2846501234.3617206,103202381109.63057,3779548460813.57
0.6308120963200001,3655050120997351.5,7235283316454327.0,1345277556335033.5,2229526608986695.8,1117166808.0347006,3972621449.1240993,144041970949.39655,5279898376034.929
0.7434283382464002,3979036370918676.5,7877882454812262.0,1464523918607782.0,2427153438625616.0,1474205065.3729565,5242247318.75646,190086930105.0845,6971923277691.846
0.8582969050113283,4284282364927004.5,8483604913073957.0,1576872743233874.5,2613348988529117.0,1870652044.9712887,6652010798.883525,241214993066.0359,8851078728054.107
0.9754628431115548,4574625534766003.0,9060038935230910.0,1683736435156602.2,2790454035550164.5,2306028439.370978,8200207437.670813,297364273114.2918,10915059249149.38
1.094972099973786,4852829628749861.0,9612650569667186.0,1786132219444434.8,2960154425431310.5,2780180520.7808843,9886290556.669134,358514898108.5838,13163114672407.834
1.2168715419732616,5120962062625007.0,1.0145529664955136e+16,1884821029033608.5,3123711251295945.5,3293194641.3340635,11710567208.9867,424677974107.90137,15595640264612.523
1.3412089728127268,5380616601373708.0,1.06618300760982e+16,1980389464982889.2,3282096686276950.0,3845342665.5305424,13674004134.508162,495888542652.68713,18213915575192.68
1.4680331522689813,5633052326438588.0,1.1164044368892406e+16,2073300944743893.2,3436078751479851.0,4437045523.637721,15778098154.308243,572200877233.8654,21019930209150.68
1.597393815314361,5879284353242000.0,1.1654183139481816e+16,2163929091646941.2,3586276652334262.5,5068847997.352509,18024786507.556694,653685229526.6425,24016263394590.793
1.729341691620648,6120145286695917.0,1.2133896488168608e+16,2252580354213079.5,3733198265549780.5,5741400792.686512,20416383102.112587,740425516111.2081,27205998409829.55
1.863928525453061,6356328166263234.0,1.260455890283934e+16,2339509812511242.5,3877266334970630.0,6455447522.554609,22955532224.218372,832517638793.8596,30592660475680.285
2.001207095962122,6588417278799156.0,1.3067330161078204e+16,2424932519131113.0,4018837266954683.5,7211815104.480003,25645174392.47134,930068245626.6383,34180170958134.543
2.1412312378813647,6816910774968760.0,1.3523200031364022e+16,2509031823380648.5,4158214926054746.0,8011406599.93051,28488520894.315777,1033193806989.2635,37972813225390.945
2.284055862638992,7042237601279388.0,1.3973021739065576e+16,2591965603289063.0,4295660963308590.0,8855195841.735498,31489034681.004723,1142019922392.1047,41975207035627.484
2.4297369798917723,7264770398675450.0,1.4417537460673612e+16,2673871013062985.0,4431402684191557.0,9744223399.222141,34650416019.52899,1256680799883.2996,46192289304310.69
2.578331719489608,7484835480898622.0,1.4857398046676654e+16,2754868155721204.5,4565639135269057.0,10679593563.59695,37976591772.5661,1377318867093.2368,50629299735336.69
2.7298983538794,7702720660416388.0,1.5293178490710012e+16,2835062963505513.5,4698545877897523.0,11662472125.273588,41471707494.60979,1504084484457.556,55291770226497.25
2.884496320956988,7918681462272082.0,1.572539021300118e+16,2914549484950069.0,4830278778581239.0,12694084776.06339,45140121750.12585,1637135739059.663,60185517252192.18
3.0421862473761276,8132946113066162.0,1.6154490923421378e+16,2993411721125533.5,4960977052177330.0,13775716012.02797,48986402212.07439,1776638303067.2092,65316636631065.06
3.2030299723236504,8345719587088785.0,1.6580892621532732e+16,3071725114858480.0,5090765729976875.0,14908708443.383434,53015323207.9171,1922765344684.3523,70691500232255.55
3.3670905717701234,8557186918060330.0,1.7004968145617622e+16,3149557769650404.5,5219757679817783.0,16094462440.027729,57231864459.10566,2075697482403.845,76316754279795.1
3.5344323832055258,8767515932642263.0,1.7427056579316788e+16,3226971455773557.0,5348055273486083.0,17334436057.58836,61641210818.1081,2235622775449.5586,82199318992557.34
3.7051210308696363,8976859524148893.0,1.7847467749926828e+16,3304022447133280.0,5475751773646475.0,18630145201.06772,66248752850.33713,2402736744871.514,88346389355254.02
3.879223451487029,9185357557292456.0,1.8266485997862444e+16,3380762222328271.0,5602932495708786.0,19983163992.36466,71060088141.06557,2577242420942.837,94765436859838.86
4.0568079205167695,9393138474352384.0,1.8684373356389216e+16,3457238055817225.5,5729675787567476.0,21395125314.980545,76081023232.41426,2759350413414.9795,101464212090194.39
4.237944078927105,9600320657844040.0,1.910137225046448e+16,3533493519462599.0,5856053860809464.0,22867721514.648983,81317576114.8085,2949279001888.246,108450748048857.11
4.422702960505647,9807013593163236.0,1.95177078006001e+16,3609568910453494.0,5982133499910119.0,24402705238.862976,86775979212.35321,3147254244101.0664,115733364144712.6
4.61115701971576,1.0013318865810564e+16,1.993358980013004e+16,3685501618343997.0,6107976670525392.0,26001890401.607006,92462682813.4465,3353510100371.5103,123320670776487.11
4.803380160110075,1.0219331020951598e+16,2.0349214420729628e+16,3761326441422836.0,6233641043810789.0,27667153262.25057,98384358907.34462,3568288572766.384,131221574459464.2
4.9994477633122765,1.0425138307735264e+16,2.076476569049702e+16,3837075860667223.5,6359180450444726.0,29400433609.677658,104547905394.95772,3791839857846.4927,139445283452964.42
5.199436718578522,1.0630823326608212e+16,2.1180416780635096e+16,3912780277993279.5,6484645275480574.0,31203736044.44024,110960450648.21497,4024422512057.554,148001313854266.72
5.403425452950093,1.0836463594550924e+16,2.1596331130230268e+16,3988468224296845.5,6610082803132455.0,33079131353.111694,117629358397.29774,4266303629015.6357,156899496131278.78
5.611493962009095,1.1042132040525912e+16,2.2012663433415876e+16,4064166541808086.5,6735537518991228.0,35028757970.15824,124562232929.08827,4517759028083.033,166149982071687.03
5.823723841249277,1.1247897441312688e+16,2.2429560509027868e+16,4139900544504973.5,6861051375877570.0,37054823523.58236,131766924583.51567,4779073453751.486,175763252130790.78
6.040198318074262,1.1453824806199682e+16,2.284716206949203e+16,4215694159702840.0,6986664028498131.0,39159606461.37571,139251535537.2596,5050540785450.434,185750123163933.44
6.261002284435747,1.1659975717616758e+16,2.3265601402944588e+16,4291570053427675.5,7112413041226519.0,41345457756.4666,147024425866.58694,5332464257481.887,196121756532556.4
6.486222330124463,1.1866408633663058e+16,2.3685005980355188e+16,4367549741764466.5,7238334072640728.0,43614802688.39882,155094219883.04373,5625156688854.482,206889666575497.4
6.715946776726952,1.2073179157556744e+16,2.410549799758876e+16,4443653690030844.0,7364461039883508.0,45970142700.43849,163469812737.37598,5928940722848.634,218065729439376.34
6.950265712261491,1.2280340278267792e+16,2.4527194860831736e+16,4519901401344427.0,7490826265444918.0,48414057331.20638,172160377288.46188,6244149076196.31,229662192263789.06
7.18927102650672,1.248794258596216e+16,2.495020962255502e+16,4596311495919079.0,7617460608579907.0,50949206220.26418,181175371235.22995,6571124797802.019,241691682718638.56
7.433056447036854,1.2696034465355998e+16,2.537465137414375e+16,4672901782231024.0,7744393583251713.0,53578331187.38421,190524544510.59518,6910221536969.949,254167218892335.03
7.681717575977592,1.2904662269639504e+16,2.580062560045256e+16,4749689321033086.0,7871653464222712.0,56304258385.47756,200217946937.3308,7261803821134.239,267102219530801.3
7.935351927497144,1.3113870477257144e+16,2.6228234500812652e+16,4826690483059301.0,7999267382688118.0,59129900527.383766,210265936146.5933,7626247343118.722,280510514628266.97
8.194058966047088,1.3323701833520648e+16,2.6657577280400044e+16,4903921001146951.0,8127261412657732.0,62058259186.91608,220679185760.503,8003939257976.9,294406356371785.4
8.45794014536803,1.3534197478765288e+16,2.7088750415353332e+16,4981396017405802.0,8255660649129549.0,65092427174.730804,231468693840.80417,8395278489485.745,308804430442209.25
8.72709894827539,1.3745397064537062e+16,2.752184789458494e+16,5059130125981852.0,8384489278961980.0,68235590989.742546,242645791606.16614,8800676046386.4,323719867675109.9
9.0016409272409,1.395733885910528e+16,2.7956961440853052e+16,5137137411892449.0,8513770645235280.0,71491033346.94359,254222152421.18686,9220555348482.883,339168256085767.0
9.281673745785717,1.4170059843434124e+16,2.8394180713338468e+16,5215431486349380.0,8643527305792411.0,74862135782.61389,266209801060.59494,9655352562725.6,355165653262970.25
9.567307220701432,1.4383595798603336e+16,2.8833593493694116e+16,5294025518935153.0,8773781086564725.0,78352381338.01257,278621123252.544,10105516949421.533,371728599136894.56
9.85865336511546,1.459798138555087e+16,2.9275285857295624e+16,5372932266952845.0,8904553130213581.0,81965357322.75941,291468875505.2763,10571511218725.559,388874129126805.44
10.155826432417769,1.4813250217903664e+16,2.97193423312179e+16,5452164102232347.0,9035863940556110.0,85704758159.18929,304766195221.74695,11053811897580.475,406619787674828.06
10.458942961066125,1.5029434928574028e+16,3.0165846040282936e+16,5531733035641780.0,9167733423188066.0,89574388309.07248,318526611107.12946,11552909707283.617,424983642172392.2
10.768121820287448,1.524656723072056e+16,3.0614878842371756e+16,5611650739524748.0,9300180922669024.0,93578165284.1545,332764053874.40106,12069309951869.479,443984297286389.1
11.083484256693197,1.54646779736048e+16,3.1066521454057892e+16,5691928568258966.0,9433225256594156.0,97720122742.06136,347492867253.48206,12603532917506.55,463640909692430.25
11.405153941827061,1.568379719381487e+16,3.152085356750344e+16,5772577577109639.0,9566884746839892.0,102004413669.17609,362727819309.66125,13156114283116.4,483973203222938.06
11.733257020663602,1.5903954162276872e+16,3.197795395945764e+16,5853608539532399.0,9701177248240098.0,106435313652.16614,378484114077.2599,13727605542431.986,505001484438112.9
12.067922161076874,1.6125177427427566e+16,3.2437900593105636e+16,5935031963063496.0,9836120174920916.0,111017224239.90509,394777403514.74585,14318574437719.395,526746658628166.6
12.409280604298411,1.6347494854883926e+16,3.2900770713440172e+16,6016858103920656.0,9971730524498516.0,115754676397.58463,411623799787.68823,14929605405396.215,549230246255444.5
12.75746621638438,1.6570933663908722e+16,3.3366640936756828e+16,6099096980424436.0,1.0108024900322568e+16,120652334054.88538,429039887886.1818,15561300033786.488,572474399845393.9
13.112615540712067,1.6795520460940772e+16,3.383558733481466e+16,6181758385339420.0,1.0245019531929224e+16,125714997750.11546,447042738583.54553,16214277533259.26,596501921335580.2
13.474867851526309,1.702128127043127e+16,3.4307685514147296e+16,6264851897223924.0,1.0382730293850804e+16,130947608372.28673,465649921743.29834,16889175219005.916,621336279892191.1
13.844365208556836,1.7248241563203144e+16,3.4783010690967124e+16,6348386890867866.0,1.0521172722914652e+16,136355251003.15459,484879519981.59985,17586649006715.66,647001630203771.8
14.221252512727972,1.7476426282529424e+16,3.5261637762056096e+16,6432372546891171.0,1.0660362034150412e+16,141943158861.28232,504750142692.512,18307373921417.94,673522831262116.2
14.605677562982532,1.7705859868106512e+16,3.5743641372005452e+16,6516817860567371.0,1.0800313135413514e+16,147716717350.2561,525280940443.6132,19052044619764.05,700925465640506.0
14.997791114242183,1.7936566278082346e+16,3.622909597712931e+16,6601731649931324.0,1.0941040640821998e+16,153681468213.20694,546491619749.66595,19821375926027.965,729235859279698.0
15.397746936527026,1.816856900928366e+16,3.6718075906348904e+16,6687122563224023.0,1.108255888309474e+16,159843113795.85428,568402458232.1835,20616103382111.684,758481101792316.4
15.805701875257567,1.840189111577298e+16,3.721065541931668e+16,6772999085722674.0,1.1224881924871118e+16,166207521420.32388,591034320172.921,21436983811845.246,788689067296433.2
16.221815912762718,1.863655522585429e+16,3.7706908762027864e+16,6859369545999829.0,1.1368023569084052e+16,172780727872.02823,614408672469.424,22284795899878.605,819888435789461.5
16.64625223101797,1.8872583557634908e+16,3.820691022014264e+16,6946242121651106.0,1.1511997368452632e+16,179568944001.95325,638547601000.9862,23160340785466.992,852108715073523.2
17.079177275638333,1.91099979332418e+16,3.871073417022547e+16,7033624844527648.0,1.1656816634153926e+16,186578559446.71985,663473827413.4038,24064442671454.773,885380263243818.1
17.5207608211511,1.9348819791781784e+16,3.921845512909036e+16,7121525605506157.0,1.1802494443728216e+16,193816147468.8402,689210726331.162,24997949448772.656,919734311751552.1
17.97117603757412,1.9589070201126748e+16,3.9730147801424456e+16,7209952158826591.0,1.1949043648268092e+16,201288469919.6134,715782343005.758,25961733336761.758,955202989053298.2
18.430599558325603,1.9830769868597876e+16,4.024588712585039e+16,7298912126024788.0,1.20964768789356e+16,209002482327.1575,743213411408.9712,26956691539647.547,991819344858755.0
18.899211549492115,2.007393915061803e+16,4.076574831957335e+16,7388412999484880.0,1.2244806552850036e+16,216965339112.08374,771529372780.0995,27983746919488.902,1029617374989073.1
19.37719578048196,2.0318598061392776e+16,4.128980692174822e+16,7478462145634546.0,1.2394044878383284e+16,225184398933.3875,800756394636.2279,29043848685932.14,1068632046858087.5
19.864739696091597,2.0564766280678644e+16,4.181813883569355e+16,7569066807804165.0,1.254420385989824e+16,233667230167.12823,830921390254.692,30137973103104.34,1108899325588954.2
20.36203449001343,2.0812463160688908e+16,4.235082037006678e+16,7660234108768531.0,1.2695295301961292e+16,242421616520.52362,862052038637.1461,31267124213984.504,1150456200778829.0
20.869275179813698,2.1061707732186284e+16,4.288792827910926e+16,7751971052989421.0,1.2847330813058808e+16,251455562784.10733,894176804964.5182,32432334582594.137,1193340713924389.8
21.38666068340997,2.1312518709805596e+16,4.3429539802062024e+16,7844284528574672.0,1.3000321808843962e+16,260777300724.61584,927324961552.5005,33634666054352.625,1237591986521153.2
21.91439389707817,2.1564914496647748e+16,4.39757327018442e+16,7937181308968797.0,1.315427951493871e+16,270395295121.32074,961526609317.0756,34875210534947.496,1283250248849618.8
22.452681775019734,2.181891318818081e+16,4.45265853030829e+16,8030668054389092.0,1.3309214969313734e+16,280318249948.5188,996812699759.845,36155090788070.36,1330356869461484.8
23.00173541052013,2.20745325754837e+16,4.50821765295738e+16,8124751313019446.0,1.3465139024266814e+16,290555114706.94116,1033215057482.8989,37475461252374.914,1378954385379210.0
23.561770118730532,2.233179014786409e+16,4.564258594125205e+16,8219437521973714.0,1.3622062348019664e+16,301115090906.83923,1070766403243.0989,38837508878014.66,1429086533022412.8
24.133005521105144,2.2590703094878436e+16,4.6207893770742424e+16,8314733008039489.0,1.3779995425950562e+16,312007638705.5565,1109500377555.6814,40242453983120.79,1480798279874517.8
24.715665631527248,2.2851288307783424e+16,4.677818095955708e+16,8410643988212076.0,1.3938948561479066e+16,323242483702.365,1149451564857.205,41691551130582.234,1534135856903418.5
25.309978944157795,2.3113562380441544e+16,4.7353529194005704e+16,8507176570027903.0,1.4098931876618862e+16,334829623893.42645,1190655518237.7861,43186090025494.43,1589146791749752.2
25.91617852304095,2.3377541609705572e+16,4.793402094087578e+16,8604336751706087.0,1.4259955312212208e+16,346779336789.68176,1233148784752.8784,44727396433641.734,1645879942696603.2
26.53450209350177,2.364324199530315e+16,4.851973948294212e+16,8702130422105794.0,1.4422028627859292e+16,359102186700.525,1276968931324.4849,46316833121382.555,1704385533434507.2
27.165192135371807,2.3910679239240856e+16,4.911076895435961e+16,8800563360507108.0,1.4585161401555244e+16,371809032186.13794,1322154571242.2295,47955800817304.984,1764715188635602.2
27.808495978079243,2.417986874474803e+16,4.97071943759871e+16,8899641236222079.0,1.4749363029045174e+16,384911033681.31287,1368745391274.2183,49645739196024.914,1826921970350875.8
28.464665897640828,2.4450825614775764e+16,5.030910169069713e+16,8999369608042441.0,1.491464272290922e+16,398419661293.65967,1416782179398.057,51388127884494.945,1891060415244522.2
29.133959215593645,2.4723564650069292e+16,5.091657779871221e+16,9099753923530018.0,1.5081009511386388e+16,412346702779.0492,1466306853162.1533,53184487491195.68,1957186572679323.2
29.816638399905518,2.4998100346827944e+16,5.1529710593016776e+16,9200799518155578.0,1.5248472236947264e+16,426704271697.15533,1517362488687.4646,55036380658581.59,2025358043667070.2
30.51297116790363,2.5274446893967572e+16,5.214858899488594e+16,9302511614291048.0,1.5417039554624078e+16,441504815749.96747,1569993350319.922,56945413139146.26,2095634020698048.5
31.223230591261704,2.5552618169998824e+16,5.277330298957127e+16,9404895320060652.0,1.5586719930106612e+16,456761125306.1224,1624244920943.6714,58913234895482.86,2168075328463443.0
31.947695203086937,2.5832627739534144e+16,5.3403943662185256e+16,9507955628055374.0,1.5757521637611386e+16,472486342113.8913,1680163932965.1562,60941541224701.12,2242744465484667.2
32.686649107148675,2.6114488849435668e+16,5.404060323382195e+16,9611697413914922.0,1.592945275753208e+16,488693968205.6503,1737798399978.2537,63032073907569.516,2319705646663437.0
33.44038208929165,2.6398214424615988e+16,5.468337509794925e+16,9716125434782300.0,1.6102521173877752e+16,505397874996.65656,1797197649120.2578,65186622382746.984,2399024846766408.5
34.20918973107749,2.6683817063501336e+16,5.53323538571126e+16,9821244327634064.0,1.6276734571506066e+16,522612312580.90875,1858412354128.8428,67407024946462.88,2480769844857988.0
34.993373525699035,2.6971309033170416e+16,5.5987635359980056e+16,9927058607490900.0,1.645210043315729e+16,540351919226.85095,1921494569109.6597,69695169978002.35,2565010269695133.5
35.793240996213015,2.726070226417614e+16,5.6649316738767064e+16,1.003357266551193e+16,1.662862603629627e+16,558631731075.6754,1986497763024.4094,72052997191355.03,2651817646097292.0
36.60910581613728,2.755200834506201e+16,5.731749644707093e+16,1.0140790766976278e+16,1.6806318449767012e+16,577467192044.9071,2053476854908.9512,74482498913372.3,2741265442305212.5
37.44128793246003,2.784523851658221e+16,5.79922742981493e+16,1.02487170491557e+16,1.6985184530267396e+16,596874163939.9438,2122488249830.9607,76985721388780.64,2833429118341466.5
38.29011369110923,2.814040366563382e+16,5.867375150367365e+16,1.0357355519081436e+16,1.71652309186478e+16,616868936776.1907,2193589875596.466,79564766112391.77,2928386175385856.5
39.15591596493141,2.8437514318911612e+16,5.936203071298786e+16,1.0466710051208716e+16,1.7346464036040556e+16,637468239314.3513,2266841220214.447,82221791188841.72,3026216206178528.5
40.03903428423004,2.873658063629353e+16,6.00572160529041e+16,1.0576784384982048e+16,1.7528890079825122e+16,658689249811.4191,2342303370128.49,84959012720187.0,3127000946463265.5
40.93981496991464,2.9037612403964892e+16,6.0759413168065176e+16,1.0687582122304792e+16,1.7712515019434164e+16,680549606989.8467,2420039049224.3823,87778706221682.44,3230824327483404.5
41.85861126931294,2.9340619027291948e+16,6.146872926190263e+16,1.0799106724915974e+16,1.7897344592006412e+16,703067421227.3156,2500112658622.118,90683208066048.22,3337772529542414.0
