t(s),Total solute volume 1,Total retention volume 1,Total 1 volume 1,Total 2 volume 1,Total 3 volume 1,Total 4 volume 1,Total 5 volume 1,Total 6 volume 1
0.1,1252217186918146.0,2056959543180943.2,321479351742078.75,483263004520719.3,0.0,0.0,0.0,0.0
0.202,1864774399540743.0,3116828080768901.5,478740015571227.6,719664739685247.0,17410082235.42831,53285918362.95911,1550304914722.1638,52027925056358.92
0.30604000000000003,2317874246720031.0,3942422801388544.5,595063486223922.9,894527715141866.6,43713022523.92964,133790277956.09009,3893171295001.7803,130886678707238.72
0.41216080000000005,2689641663412941.5,4655600700966090.0,690506634871610.2,1038002395598001.1,76848799141.15834,235207873909.0875,6844820145178.872,230293130265311.47
0.5204040160000001,3009827584382079.5,5302119922194419.0,772707363259238.1,1161570439981145.5,115815718955.2079,354472875742.0949,10315989216014.47,347228256761243.3
0.6308120963200001,3293424083560749.0,5904730139349896.0,845514558345020.5,1271017678549660.5,160008155230.13547,489731694838.4203,14252722166473.963,479871356877923.1
0.7434283382464002,3549236051088098.0,6476630535276288.0,911188683000157.8,1369742146661676.2,209017774764.4247,639734595045.7283,18618643826682.844,626996258329863.8
0.8582969050113283,3782960905557421.0,7026271748355641.0,971192424767847.6,1459942625794159.0,262550998591.675,803583065412.001,23387603609922.785,787722054562291.6
0.9754628431115548,3998541169850930.5,7559449991428422.0,1026537940117926.9,1543140637669943.0,320387895212.63184,980604005736.2028,28540012435042.098,961389239453632.4
1.094972099973786,4198842901084554.0,8080350028506950.0,1077961026491108.9,1620442267972217.5,382359154435.31366,1170279251205.9766,34060791043146.793,1147490403510285.0
1.2168715419732616,4386029893178533.5,8592116416201067.0,1126017190620806.5,1692682580819203.0,448332076810.36145,1372202690858.33,39938121703549.07,1345628095111310.5
1.3412089728127268,4561785391977710.0,9097189607029458.0,1171138569038553.0,1760511184376234.8,518201507774.74677,1586052520161.4365,46162640512546.695,1555487567096477.5
1.4680331522689813,4727451026954039.0,9597515105425008.0,1213669595748333.5,1824445848200393.2,591883685457.989,1811572411342.7393,52726889296859.93,1776818289128589.8
1.597393815314361,4884117881484636.0,1.0094679634004914e+16,1253890382527501.0,1884907649620648.8,669311904434.6791,2048558241715.1755,59624929309880.92,2009420920916096.2
1.729341691620648,5032688444766120.0,1.0590003138222392e+16,1292032623725010.8,1942244882586763.8,750433363542.6718,2296848446025.5757,66852060419797.805,2253137844915129.0
1.863928525453061,5173920085229037.0,1.1084602920015516e+16,1328290757109170.0,1996749835186208.5,835206814988.5056,2556316821269.3955,74404611685046.64,2507846107169791.0
2.001207095962122,5308456373651820.0,1.1579439545658618e+16,1362830005391656.5,2048670878045259.0,923600772860.865,2826867043661.839,82279781766905.86,2773452038986460.0
2.1412312378813647,5436850171062550.0,1.2075350468107998e+16,1395792303541012.0,2098221374548400.5,1015592122677.6891,3108428413035.5967,90475515069221.25,3049887083351111.5
2.284055862638992,5559580986809588.0,1.2573075148095576e+16,1427300755087393.0,2145586379767348.5,1111165025073.7803,3400952497502.298,98990404082045.17,3337104504826641.5
2.4297369798917723,5677068257720985.0,1.307327415640958e+16,1457463041256121.8,2190927765232656.5,1210310039565.9585,3704410451696.5303,107823611330950.06,3635076760377596.0
2.578331719489608,5789681664490239.0,1.3576543928154346e+16,1486374069473969.5,2234388200294158.0,1313023415891.6455,4018790847906.011,116974806254521.86,3943793373377647.5
2.7298983538794,5897749257163839.0,1.4083428319288952e+16,1514118059410217.5,2276094287957051.5,1419306514942.3992,4344097903848.926,126444113626641.22,4263259196712402.0
2.884496320956988,6001563934398632.0,1.459442777353669e+16,1540770206384223.0,2316159065395166.0,1529165331324.992,4680350021500.316,136232071032044.44,4593492980973799.0
3.0421862473761276,6101388667833692.0,1.5110006677711014e+16,1566398022608524.0,2354684020171291.0,1642610096623.0564,5027578572917.614,146339593530891.84,4934526184897068.0
3.2030299723236504,6197460757370385.0,1.5630599325734956e+16,1591062429638886.2,2391760732459999.0,1759654947473.9216,5385826884445.74,156767944097198.84,5286401980336574.0
3.3670905717701234,6289995329172001.0,1.6156614801469058e+16,1614818656409138.0,2427472225016297.5,1880317646244.6025,5755149381913.231,167518708742900.9,5649174415100549.0
3.5344323832055258,6379188235483161.0,1.6688441012269224e+16,1637716983696340.2,2461894082290997.0,2004619344801.5964,6135610867726.962,178593775480776.44,6022907705105417.0
3.7051210308696363,6465218477250392.0,1.7226448048865214e+16,1659803366075598.8,2495095385382740.5,2132584383898.156,6527285906983.176,189995316460242.34,6407675633405353.0
3.879223451487029,6548250242580721.0,1.7770991006006962e+16,1681119955249695.8,2527139498731961.0,2264240122240.8,6930258304420.425,201725772747030.3,6803561038270904.0
4.0568079205167695,6628434633330688.0,1.832241236790173e+16,1701705543313021.8,2558084736456276.5,2399616790475.682,7344620657647.535,213787841322781.53,7210655376030852.0
4.237944078927105,6705911136539437.0,1.888104403969946e+16,1721595940509829.2,2587984930214646.0,2538747366248.234,7770473974874.195,226184463961920.97,7629058347132528.0
4.422702960505647,6780808885595265.0,1.9447209089071252e+16,1740824299011129.8,2616889915924146.0,2681667467203.743,8207927347556.869,238918817706770.6,8058877576019180.0
4.61115701971576,6853247746959662.0,2.002122324877792e+16,1759421391907307.0,2644845953154970.5,2828415259359.4253,8657097670096.77,251994306712046.62,8500228337114465.0
4.803380160110075,6923339261259552.0,2.060339622099205e+16,1777415854812966.0,2671896088322239.0,2979031378726.9165,9118109400097.586,265414555269791.66,8953233320548713.0
4.9994477633122765,6991187462084817.0,2.1194032816257308e+16,1794834396075255.5,2698080470681189.0,3133558864423.0903,9591094353790.693,279183401857787.47,9418022432340054.0
5.199436718578522,7056889591521909.0,2.1793433953792068e+16,1811701980471476.0,2723436628470128.5,3292043101797.268,10076191532122.617,293304894080345.4,9894732624614274.0
5.403425452950093,7120536728041444.0,2.240189754496941e+16,1828041990405475.0,2747999711228493.5,3454531774338.619,10573546973721.451,307783284391355.44,1.038350775215461e+16
5.611493962009095,7182214339632344.0,2.301971927792382e+16,1843876367912737.5,2771802703265634.0,3621074823320.3926,11083313631549.416,322623026506679.94,1.0884498452151542e+16
5.823723841249277,7242002772885671.0,2.364719331813026e+16,1859225740221923.0,2794876612410935.0,3791724414296.4985,11605651270534.61,337828772427089.25,1.1397862044499812e+16
6.040198318074262,7299977686959943.0,2.4284612937299456e+16,1874109531166014.5,2817250637492261.0,3966534909697.152,12140726383876.42,353405370004680.3,1.1923762450383006e+16
6.261002284435747,7356210439919524.0,2.4932271080903236e+16,1888546060366202.0,2838952317433931.0,4145562846879.842,12688712126055.205,369357860995416.6,1.2462370127215268e+16
6.486222330124463,7410768433758564.0,2.5590460882991916e+16,1902552631809244.2,2860007664410430.0,4328866921083.0625,13249788260854.768,385691479548596.94,1.3013862018283134e+16
6.715946776726952,7463715423454104.0,2.6259476135610296e+16,1916145613190081.5,2880441283117931.0,4516507972807.253,13824141122942.768,402411651090908.2,1.357842151566151e+16
6.950265712261491,7515111794590168.0,2.6939611719004176e+16,1929340507185755.0,2900276477916663.0,4708548979212.13,14411963591752.1,419523991568458.0,1.4156238435172126e+16
7.18927102650672,7565014813429614.0,2.763116399788416e+16,1942152015655869.8,2919535349340116.5,4905055049174.614,15013455076574.229,437034307015131.1,1.4747509002317706e+16
7.433056447036854,7613478852755007.0,2.83344311882492e+16,1954594097622312.5,2938238881252880.0,5106093421698.27,15628821511919.4,454948593419737.44,1.5352435848265656e+16
7.681717575977592,7660555596334529.0,2.9049713698627904e+16,1966680021761369.8,2956407019759273.0,5311733467405.312,16258275362320.275,473273036867998.9,1.5971228015075018e+16
7.935351927497144,7706294224477251.0,2.9777314449062336e+16,1978422414041019.8,2974058744814001.0,5522046692876.253,16902035635861.092,492014013938489.1,1.6604100969462832e+16
8.194058966047088,7750741582811750.0,3.051753917070422e+16,1989833301051105.0,2991212135358140.5,5737106747632.271,17560327905804.62,511178092334255.4,1.7251276624495538e+16
8.45794014536803,7793942336141033.0,3.127069668851348e+16,2000924149502254.2,3007884428695777.5,5956989433580.245,18233384339767.55,530772031734125.06,1.7912983368666942e+16
8.72709894827539,7835939108988508.0,3.2037099189223976e+16,2011705902307967.5,3024092074734265.5,6181772716763.357,18921443735962.266,550802784849690.25,1.8589456101890824e+16
9.0016409272409,7876772614245679.0,3.2817062476467372e+16,2022189011612095.0,3039850785632807.0,6411536741278.283,19624751566081.766,571277498675645.6,1.9280936277993836e+16
9.281673745785717,7916481771157705.0,3.3610906214710228e+16,2032383469079055.8,3055175581336022.5,6646363845238.203,20343560024457.324,592203515922681.8,1.9987671953345096e+16
9.567307220701432,7955103813732867.0,3.4418954163458164e+16,2042298833725575.8,3070080831412036.5,6886338578674.13,21078128083160.586,613588376623438.6,2.0709917841302416e+16
9.85865336511546,7992674390532385.0,3.5241534403009396e+16,2051944257539563.5,3084580293563920.5,7131547723280.959,21828721552764.71,635439819903131.0,2.14479353721944e+16
10.155826432417769,8029227656685526.0,3.607897955288964e+16,2061328509102957.0,3098687149140740.0,7382080313925.371,22595613148511.203,657765785907560.8,2.2201992758590412e+16
10.458942961066125,8064796358877720.0,3.693162698397332e+16,2070459995410570.5,3112414035936606.0,7638027661843.401,23379082561661.082,680574417882011.6,2.2972365065642908e+16
10.768121820287448,8099411913974770.0,3.7799819025184536e+16,2079346782055141.2,3125773078533864.0,7899483379463.415,24179416535835.992,703874064395403.5,2.375933428630999e+16
11.083484256693197,8133104481873480.0,3.868390316557416e+16,2087996611930127.5,3138775916417968.5,8166543406799.159,24996908948178.582,727673281704753.5,2.4563189421292796e+16
11.405153941827061,8165903033103915.0,3.958423225248715e+16,2096416922585109.5,3151433730066989.5,8439306039363.679,25831860895184.16,751980836255582.9,2.5384226563540956e+16
11.733257020663602,8197835411652815.0,4.050116468645909e+16,2104614862354326.2,3163757265196775.0,8717871957561.714,26684580783072.76,776805707314532.4,2.6222748987199896e+16
12.067922161076874,8228928393428123.0,4.143506461341822e+16,2112597305366170.5,3175756855323923.0,9002344257523.588,27555384422589.72,802157089730885.5,2.7079067240888996e+16
12.409280604298411,8259207740740950.0,4.238630211471479e+16,2120370865530228.5,3187442442791809.5,9292828483348.555,28444595128138.195,828044396824213.9,2.7953499245216116e+16
12.75746621638438,8288698253143136.0,4.335525339544565e+16,2127941909588724.5,3198823598390064.0,9589432660730.213,29352543821158.58,854477263395659.9,2.8846370394446184e+16
13.112615540712067,8317423814924683.0,4.434230097150653e+16,2135316569310436.8,3209909539685101.0,9892267331940.72,30279569137686.543,881465548860874.5,2.97580136622559e+16
13.474867851526309,8345407439545081.0,4.5347833855758824e+16,2142500752897470.2,3220709148167323.5,10201445592153.79,31226017540027.836,909019340502832.9,3.0688769711513856e+16
13.844365208556836,8372671311246309.0,4.637224774366871e+16,2149500155668472.0,3231230985310599.0,10517083127090.691,32192243432502.26,937148956843101.0,3.1638987008040652e+16
14.221252512727972,8399236824071058.0,4.7415945198748136e+16,2156320270075746.2,3241483307630476.5,10839298251975.605,33178609281216.453,965864951130427.8,3.2609021938307224e+16
14.605677562982532,8425124618489507.0,4.847933583809528e+16,2162966395108326.0,3251474080819367.0,11168211951789.535,34185485737833.902,995178114945724.4,3.3599238931042844e+16
14.997791114242183,8450354615818064.0,4.956283651831624e+16,2169443645128256.5,3261210993029593.0,11503947922815.746,35213251767319.01,1025099481922753.9,3.461001058272746e+16
15.397746936527026,8474946050597591.0,5.066687152208307e+16,2175756958183011.5,3270701467369072.0,11846632615469.85,36262294779638.42,1055640331584064.2,3.564171778695428e+16
15.805701875257567,8498917501083196.0,5.17918727455706e+16,2181911103833042.8,3279952673668029.0,12196395278411.916,37333010765410.59,1086812193291880.9,3.669474986765065e+16
16.221815912762718,8522286917984085.0,5.293827988699294e+16,2187910690530134.5,3288971539570495.0,12553368003938.914,38425804435498.445,1118626850313832.1,3.776950471615505e+16
16.64625223101797,8545071651580029.0,5.410654063645125e+16,2193760172578953.5,3297764760999231.5,12917685774657.08,39541089364548.46,1151096344003604.8,3.886638893215016e+16
17.079177275638333,8567288477330086.0,5.5297110867288184e+16,2199463856711539.2,3306338812038814.5,13289486511437.148,40679288138481.52,1184232978096694.2,3.998581796846095e+16
17.5207608211511,8588953620079191.0,5.651045482913437e+16,2205025908301794.2,3314699954277582.5,13668911122655.059,41840832505949.88,1218049323121606.2,4.11282162797256e+16
17.97117603757412,8610082776959660.0,5.7747045342824536e+16,2210450357244965.8,3322854245645905.0,14056103554723.807,43026163533773.55,1252558220927033.0,4.229401747495847e+16
18.430599558325603,8630691139076246.0,5.900736399734488e+16,2215741103524792.8,3330807548785030.5,14451210843922.41,44235731766379.09,1287772789325539.5,4.348366447402291e+16
18.899211549492115,8650793412056792.0,6.029190134897569e+16,2220901922489445.0,3338565538978064.0,14854383169529.42,45469997389264.33,1323706426854536.8,4.4697609668038056e+16
19.37719578048196,8670403835542869.0,6.160115712277705e+16,2225936469855321.8,3346133711671990.5,15265773908270.55,46729430396517.25,1360372817655322.8,4.59363150837468e+16
19.864739696091597,8689536201690248.0,6.2935640416564024e+16,2230848286456623.0,3353517389617399.5,15685539690089.178,48014510762422.4,1397785936471173.0,4.720025255187618e+16
20.36203449001343,8708203872742211.0,6.429586990751123e+16,2235640802756954.5,3360721729650562.0,16113840455252.297,49325728617186.47,1435960053765441.2,4.848990387952353e+16
20.869275179813698,8726419797735107.0,6.5682374061519816e+16,2240317343138052.8,3367751729140448.5,16550839512802.324,50663584426826.68,1474909740960873.2,4.980576102660563e+16
21.38666068340997,8744196528389723.0,6.709569134548051e+16,2244881129979600.8,3374612232121693.0,16996703600369.258,52028589177256.82,1514649875801242.0,5.1148326286410584e+16
21.91439389707817,8761546234239251.0,6.85363704425557e+16,2249335287542972.5,3381307935132854.0,17451602945355.732,53421264562622.34,1555195647836717.5,5.2518112470296e+16
22.452681775019734,8778480717040045.0,7.000497047060579e+16,2253682845670892.0,3387843392777836.5,17915711327511.29,54842143177924.71,1596562564034200.2,5.391564309657729e+16
23.00173541052013,8795011424508165.0,7.150206120387921e+16,2257926743313991.5,3394223023027277.0,18389206142909.99,56291768715990.83,1638766454514215.2,5.534145258365656e+16
23.561770118730532,8811149463421826.0,7.302822329808432e+16,2262069831894553.5,3400451112275038.5,18872268469349.383,57770696168833.35,1681823478415783.8,5.6796086447438856e+16
24.133005521105144,8826905612126594.0,7.458404851895835e+16,2266114878516983.5,3406531820164335.5,19365083133186.395,59279492033463.805,1725750129890895.8,5.8280101503092856e+16
24.715665631527248,8842290332478008.0,7.617013997444584e+16,2270064569033797.5,3412469184196664.0,19867838777630.18,60818734522209.27,1770563244230306.2,5.979406607120729e+16
25.309978944157795,8857313781253466.0,7.778711235060045e+16,2273921510975375.0,3418267124135989.5,20380727932508.48,62389013777595.414,1816280004122295.8,6.133856018840303e+16
25.91617852304095,8871985821063443.0,7.943559215131656e+16,2277688236351158.5,3423929446219612.5,20903947085528.89,63990932091856.805,1862917946046281.0,6.291417582245878e+16
26.53450209350177,8886316030789517.0,8.111621794200768e+16,2281367204329443.5,3429459847186523.5,21437696755054.215,65625104131138.39,1910494966803075.0,6.452151709201308e+16
27.165192135371807,8900313715575582.0,8.282964059732867e+16,2284960803802325.5,3434861918133252.5,21982181564412.633,67292157164453.72,1959029330183754.5,6.616120049090477e+16
27.808495978079243,8913987916396084.0,8.457652355305875e+16,2288471355842191.5,3440139148206473.0,22537610317764.438,68992731297469.15,2008539673779135.5,6.783385511721956e+16
28.464665897640828,8927347419223987.0,8.63575430622499e+16,2291901116055390.0,3445294928141204.0,23104196077548.11,70727479711182.23,2059045015931883.8,6.9540122907108664e+16
29.133959215593645,8940400763819877.0,8.817338845574275e+16,2295252276838623.5,3450332553652712.0,23682156243526.727,72497068905569.25,2110564762833323.0,7.128065887344917e+16
29.816638399905518,8953156252161677.0,9.00247624071616e+16,2298526969543081.0,3455255228689771.5,24271712633460.58,74302178948272.83,2163118715767233.8,7.3056131349418e+16
30.51297116790363,8965621956533666.0,9.191238120249192e+16,2301727266551152.0,3460066068556457.5,24873091565427.32,76143503728408.64,2216727078502744.8,7.486722223705422e+16
31.223230591261704,8977805727292298.0,9.383697501434715e+16,2304855183270118.0,3464768102909095.5,25486523941816.074,78021751215567.73,2271410464838596.0,7.671462726087971e+16
31.947695203086937,8989715200324904.0,9.579928818102974e+16,2307912680046993.0,3469364278634853.5,26112245335020.668,79937643724094.98,2327189906301239.5,7.859905622666278e+16
32.686649107148675,9001357804216803.0,9.780007949049429e+16,2310901664008550.0,3473857462617685.5,26750496074855.83,81891918182724.89,2384086859998999.5,8.052123328539462e+16
33.44038208929165,9012740767141110.0,9.984012246931872e+16,2313823990830104.0,3478250444397264.5,27401521337725.414,83885326409659.28,2442123216634828.5,8.248189720256811e+16
34.20918973107749,9023871123484862.0,1.0192020567679048e+17,2316681466436630.5,3482545938726197.0,28065571237566.98,85918635393171.66,2501321308680169.5,8.448180163283178e+16
34.993373525699035,9034755720223978.0,1.0404113300421445e+17,2319475848639416.5,3486746588030269.5,28742900918602.14,87992627577827.75,2561703918712433.0,8.652171540011195e+16
35.793240996213015,9045401223059318.0,1.0620372397955254e+17,2322208848711335.5,3490854964776575.5,29433770649919.273,90108101156407.27,2623294287918684.5,8.860242278327992e+16
36.60910581613728,9055814122325192.0,1.0840881407750011e+17,2324882132903728.0,3494873573753620.0,30138445921918.023,92265870367622.55,2686116124768273.0,9.072472380745962e+16
37.44128793246003,9066000738680376.0,1.1065725503511411e+17,2327497323907481.5,3498804854267817.5,30857197544643.95,94466765799723.81,2750193613857042.5,9.288943454105714e+16
38.29011369110923,9075967228592614.0,1.1294991517309595e+17,2330056002260996.5,3502651182259933.0,31590301748043.77,96711634700087.8,2815551424925878.0,9.509738739860832e+16
39.15591596493141,9085719589625348.0,1.1528767972284434e+17,2332559707707489.5,3506414872345462.0,32338040284170.383,99001341290883.72,2882214722056508.0,9.73494314495344e+16
40.03903428423004,9095263665535844.0,1.1767145115938998e+17,2335009940503809.0,3510098179782163.5,33100700531369.203,101336767090917.55,2950209173047276.0,9.964643273289862e+16
40.93981496991464,9104605151193744.0,1.2010214954032186e+17,2337408162683153.0,3513703302368103.5,33878575600476.246,103718811243751.95,3019560958971966.0,1.019892745782605e+17
41.85861126931294,9113749597326952.0,1.225807128508199e+17,2339755799273477.0,3517232382273392.0,34671964443060.297,106148390852205.62,3090296783924477.0,1.0437885793272622e+17
42.7957834946992,9122702415103614.0,1.2510809735490952e+17,2342054239473853.5,3520687507808367.0,35481171961740.67,108626441319334.98,3162443884952539.0,1.0681610169428995e+17
