t(s),Total solute volume 1,Total retention volume 1,Total 1 volume 1,Total 2 volume 1,Total 3 volume 1,Total 4 volume 1,Total 5 volume 1,Total 6 volume 1
0.1,1386011386779396.2,8520484941412214.0,2082602288778356.8,5051871265854462.0,0.0,0.0,0.0,0.00819856729667888
0.202,2022704974738493.5,1.2474040931675026e+16,3039291498874126.5,7372591056755293.0,18469460395.640217,116980603110.62144,5187775082091.253,34130176161516.45
0.30604000000000003,2517014306061577.5,1.5581902730315372e+16,3782034834236349.0,9174312014099830.0,46426920127.58944,294253392224.96277,13565554124441.627,94635341480818.3
0.41216080000000005,2933977396792979.0,1.823873896707606e+16,4408558556948948.5,1.069411031728198e+16,81991933783.1742,519802697810.5001,24398202480299.016,177092698940247.0
0.5204040160000001,3301518866538059.0,2.0613464105712452e+16,4960821920714414.0,1.2033770127729178e+16,124256059111.07819,787855485754.9902,37354023793234.945,279087055392699.34
0.6308120963200001,3634178217499805.0,2.2793793902025452e+16,5460671821725189.0,1.3246287099001054e+16,172696614167.28152,1095091960775.3904,52249921842135.82,399139053382326.6
0.7434283382464002,3940571613313031.0,2.4831580744612304e+16,5921054809087261.0,1.4363066584463236e+16,226984116071.40274,1439419720963.2031,68972113557539.61,536249220354203.75
0.8582969050113283,4226282182679577.5,2.676034989531654e+16,6350360027037367.0,1.5404458700273566e+16,286901445588.8471,1819459903843.3179,87445512811764.95,689697111164828.5
0.9754628431115548,4495166723349621.0,2.8603218763987188e+16,6754382654546820.0,1.6384521197423474e+16,352303649249.8511,2234291821405.4756,107619358727300.75,858942234469322.4
1.094972099973786,4750019659157564.0,3.0376916440925944e+16,7137321559836623.0,1.7313439546589424e+16,423095499931.8045,2683310459081.5938,129459465373632.6,1043569804009676.8
1.2168715419732616,4992941569273643.0,3.2094012367357308e+16,7502333048257166.0,1.819887020381752e+16,499217892244.7968,3166140098021.795,152943620651021.62,1243258567367693.0
1.3412089728127268,5225558188966828.0,3.376423940218581e+16,7851859930312524.0,1.904673885357734e+16,580639065222.9088,3682578593956.7573,178058656691479.7,1457760554978441.2
1.4680331522689813,5449157786567851.0,3.5395322971248484e+16,8187837942684783.0,1.986174113820446e+16,667348655985.7086,4232559630980.4185,204798481074106.7,1686887714430319.2
1.597393815314361,5664781208990554.0,3.69935240141301e+16,8511831049576708.0,2.064767086737419e+16,759353508518.4185,4816126117619.197,233162694955918.2,1930502713606557.2
1.729341691620648,5873283094807644.0,3.856400767320018e+16,8825123420755932.0,2.140764313529245e+16,856674620972.4355,5433410809946.343,263155587642368.3,2188512349270875.0
1.863928525453061,6075374790296986.0,4.01111014210222e+16,9128783916696516.0,2.2144250746505212e+16,959344860188.7091,6084621804448.707,294785382708441.3,2460862618150406.0
2.001207095962122,6271655246301819.0,4.163848055377983e+16,9423712513833072.0,2.2859676832641576e+16,1067407210575.5261,6770031422403.865,328063658364915.7,2747534864005480.0
2.1412312378813647,6462633782598938.0,4.314930452307797e+16,9710674510028522.0,2.355577782681973e+16,1180913406175.4717,7489967526289.312,363004892501863.7,3048542630196468.0
2.284055862638992,6648747205993856.0,4.464631912259001e+16,9990326246019144.0,2.423414585780767e+16,1299922844788.3086,8244806626378.306,399626099627592.75,3363928983670562.5
2.4297369798917723,6830372917980877.0,4.613193441747213e+16,1.0263234800827824e+16,2.489615652644992e+16,1424501714602.3901,9034968336177.023,437946537385205.94,3693764164777527.0
2.578331719489608,7007839115078339.0,4.76082850943239e+16,1.0529893318665668e+16,2.5543006085116184e+16,1554722284247.6106,9860910865217.508,477987467008733.25,4038143475305530.0
2.7298983538794,7181432842054153.0,4.907727784360585e+16,1.0790733109612514e+16,2.617574079109927e+16,1690662320741.156,10723127323759.627,519771956432624.2,4397185354762812.0
2.884496320956988,7351406432283951.0,5.054062902383408e+16,1.1046133326822088e+16,2.6795280381235268e+16,1832404608977.972,11622142672204.906,563324717660597.2,4771029618551031.0
3.0421862473761276,7517982717461570.0,5.199989493817377e+16,1.1296428794570938e+16,2.740243706090757e+16,1980036552774.2976,12558511188349.352,608671971966413.6,5159835845526140.0
3.2030299723236504,7681359284727110.0,5.345649642229194e+16,1.1541916404968374e+16,2.79979310209613e+16,2133649841981.8374,13532814354205.24,655841337875024.0,5563781909563910.0
3.3670905717701234,7841711986735423.0,5.491173900006558e+16,1.17828603921437e+16,2.858240323164241e+16,2293340173475.3403,14545659084959.697,704861737869737.5,5983062652415874.0
3.5344323832055258,7999197858885225.0,5.636682954907509e+16,1.201949671564006e+16,2.915642607568267e+16,2459207016277.4365,15597676238250.215,755763320523311.6,6417888695089298.0
3.7051210308696363,8153957561111746.0,5.7822890190600216e+16,1.2252036729423186e+16,2.9720512248454324e+16,2631353412978.597,16689519353954.104,808577395341063.4,6868485383502967.0
3.879223451487029,8306117434837624.0,5.928096995253483e+16,1.248067027263144e+16,3.0275122255405336e+16,2809885811102.076,17821863584157.41,863336378082704.9,7335091862182427.0
4.0568079205167695,8455791245870733.0,6.074205463039113e+16,1.2705568288433536e+16,3.0820670764794744e+16,2994913919259.4497,18995404780560.66,920073744726294.2,7817960267866040.0
4.237944078927105,8603081669189766.0,6.220707517917486e+16,1.2926885055049734e+16,3.1357532019627324e+16,3186550583911.564,20210858712732.895,978823992570106.9,8317355033441339.0
4.422702960505647,8748081560266625.0,6.3676914898911704e+16,1.3144760096025882e+16,3.1886044471531e+16,3384911683338.7476,21468960395638.12,1039622607246833.1,8833552291762399.0
4.61115701971576,8890875048869614.0,6.515241562304438e+16,1.335931982376917e+16,3.2406514767589468e+16,3590116036066.707,22770463508940.207,1102506034656703.6,9366839368614444.0
4.803380160110075,9031538484495932.0,6.663438307755653e+16,1.3570678960143758e+16,3.291922119637401e+16,3802285321516.4297,24116139893909.21,1167511657017586.5,9917514354309822.0
4.9994477633122765,9170141257218704.0,6.8123591546462664e+16,1.377894176986581e+16,3.3424416679870692e+16,4021544011068.208,25506779116432.27,1234677772386171.8,1.0485885743993814e+16
5.199436718578522,9306746513461588.0,6.962078795401017e+16,1.3984203136017998e+16,3.392233138242598e+16,4248019308069.957,26943188086792.58,1304043577130187.0,1.107227213757956e+16
5.403425452950093,9441411782785104.0,7.1126695453927784e+16,1.4186549501851068e+16,3.44131749953363e+16,4481841095592.98,28426190728615.45,1375649150932133.8,1.1677001991198934e+16
5.611493962009095,9574189528998976.0,7.264201660011466e+16,1.4386059698878804e+16,3.4897138745611644e+16,4723141890957.88,29956627690775.02,1449535443984937.8,1.2300413413058552e+16
5.823723841249277,9705127636667516.0,7.416743616037898e+16,1.4582805677895152e+16,3.5374397169251028e+16,4972056806230.068,31535356097176.78,1525744266103264.2,1.2942853997558572e+16
6.040198318074262,9834269842242336.0,7.570362362451637e+16,1.4776853156789164e+16,3.5845109682689204e+16,5228723514027.388,33163249330242.016,1604318277524748.2,1.3604680692426598e+16
6.261002284435747,9961656117557876.0,7.72512354496433e+16,1.4968262196780686e+16,3.6309421980608504e+16,5493282218099.167,34841196844659.574,1685300981215634.5,1.4286259694417776e+16
6.486222330124463,1.008732301219404e+16,7.88109170788617e+16,1.5157087716850478e+16,3.676746728382501e+16,5765875628232.086,36570104008581.72,1768736716528013.2,1.4987966369827396e+16
6.715946776726952,1.0211303960196054e+16,8.038330476371867e+16,1.5343379954613674e+16,3.721936745725862e+16,6046648939117.941,38350891969946.43,1854670654082476.5,1.5710185196658718e+16
6.950265712261491,1.0333629555802642e+16,8.196902721629453e+16,1.552718488062578e+16,3.766523401494171e+16,6335749812885.732,40184497546035.39,1943148791772020.2,1.6453309725793482e+16
7.18927102650672,1.0454327802137676e+16,8.356870711291931e+16,1.5708544572063534e+16,3.8105169026480136e+16,6633328365056.906,42071873134735.96,2034217951801597.8,1.7217742558936502e+16
7.433056447036854,1.0573424336239704e+16,8.518296246831584e+16,1.5887497550851834e+16,3.853926593726949e+16,6939537153731.549,44013986646284.73,2127925778693286.2,1.8003895341461452e+16
7.681717575977592,1.0690942633319546e+16,8.681240789630432e+16,1.606407909057849e+16,3.896761031299723e+16,7254531171854.92,46011821454535.93,2224320738200518.8,1.881218876858217e+16
7.935351927497144,1.0806904192727562e+16,8.845765577095235e+16,1.623832149592658e+16,3.9390280517479336e+16,7578467842450.241,48066376367027.52,2323452117086382.0,1.9643052603522948e+16
8.194058966047088,1.0921328707769936e+16,9.011931730016728e+16,1.641025435783819e+16,3.980734833162708e+16,7911507016735.253,50178665613321.01,2425370023731111.0,2.04969257065709e+16
8.45794014536803,1.1034234221221932e+16,9.179800352212738e+16,1.6579904787186832e+16,4.02188795202805e+16,8253810975068.064,52349718851265.87,2530125389542716.5,2.1374256074069172e+16
8.72709894827539,1.1145637268139864e+16,9.34943262335859e+16,1.6747297629364994e+16,4.0624934352746744e+16,8605544430692.206,54580581190997.18,2637769971152571.0,2.227550088656005e+16
9.0016409272409,1.1255553007363148e+16,9.520889885792622e+16,1.6912455661877452e+16,4.102556808211463e+16,8966874536272.762,56872313236611.21,2748356353384625.0,2.3201126565413416e+16
9.281673745785717,1.1363995342917854e+16,9.694233725985629e+16,1.707539977676075e+16,4.1420831387760696e+16,9337970893234.465,59225991145588.484,2861937952993174.5,2.4151608837384988e+16
9.567307220701432,1.1470977036378872e+16,9.869526051277808e+16,1.723614914941734e+16,4.181077078490023e+16,9719005563930.195,61642706706139.75,2978569023169556.0,2.5127432806641956e+16
9.85865336511546,1.1576509811115156e+16,1.0046829162413811e+17,1.739472139525313e+16,4.219542900455272e+16,10110153086682.963,64123567432749.664,3098304658823148.0,2.612909303387447e+16
10.155826432417769,1.1680604449227454e+16,1.0226205822343643e+17,1.7551132715334838e+16,4.257484534687204e+16,10511590493758.791,66669696680278.64,3221200802646470.5,2.7157093622181532e+16
10.458942961066125,1.178327088188859e+16,1.0407719321702062e+17,1.7705398032134372e+16,4.2949056010429416e+16,10923497332339.258,69282233777058.06,3347314251978205.0,2.821194830948061e+16
10.768121820287448,1.1884518273710214e+16,1.0591433541332234e+17,1.7857531116297148e+16,4.331809439972306e+16,11346055688573.66,71962334177484.12,3476702666481484.5,2.9294180567244376e+16
11.083484256693197,1.19843551016843e+16,1.0777413012177957e+17,1.8007544705258702e+16,4.3681991412914e+16,11779450214799.428,74711169634673.6,3609424576658196.5,3.0404323705414892e+16
11.405153941827061,1.2082789229182398e+16,1.0965722972832805e+17,1.8155450614434864e+16,4.4040775711546424e+16,12223868160028.707,77529928393796.7,3745539393222714.0,3.154292098338772e+16
11.733257020663602,1.2179827975437372e+16,1.1156429425003235e+17,1.8301259841624468e+16,4.439447397380351e+16,12679499403804.656,80419815406748.77,3885107417361275.0,3.2710525726995188e+16
12.067922161076874,1.2275478180882736e+16,1.134959918711532e+17,1.8444982665187164e+16,4.474311113266381e+16,13146536493538.182,83382052568856.84,4028189851905377.0,3.3907701451451716e+16
12.409280604298411,1.236974626867943e+16,1.1545299946270035e+17,1.8586628736492876e+16,4.508671060016094e+16,13625174685440.008,86417878978352.44,4174848813449639.0,3.5135021990253676e+16
12.75746621638438,1.2462638302721006e+16,1.1743600308731659e+17,1.872620716707977e+16,4.542529447880807e+16,14115611989167.191,89528551219364.33,4325147345446282.5,3.63930716300529e+16
13.112615540712067,1.2554160042373726e+16,1.1944569849114298e+17,1.8863726610905916e+16,4.575888376112079e+16,14618049216306.004,92715343669205.61,4479149432309924.0,3.768244525154712e+16
13.474867851526309,1.2644316994177098e+16,1.2148279158415584e+17,1.899919534203398e+16,4.608749851806122e+16,15132690032815.264,95979548830738.81,4636920014567538.0,3.9003748476452376e+16
13.844365208556836,1.2733114460703446e+16,1.2354799891031592e+17,1.9132621328046972e+16,4.641115807712771e+16,15659741015554.79,99322477690614.02,4798525005089437.0,4.035759782064217e+16
14.221252512727972,1.2820557586751272e+16,1.256420481087447e+17,1.926401229945772e+16,4.672988119072507e+16,16199411713024.312,102745460104172.11,4964031306437911.0,4.1744620853555544e+16
14.605677562982532,1.2906651403025168e+16,1.2776567836702389e+17,1.9393375815342056e+16,4.704368619537494e+16,16751914710436.826,106249845207801.22,5133506829370535.0,4.31654563639929e+16
14.997791114242183,1.2991400867437024e+16,1.2991964086761542e+17,1.9520719325397104e+16,4.735259116225489e+16,17317465699248.797,109837001859523.5,5307020512535501.0,4.46207545324322e+16
15.397746936527026,1.3074810904145484e+16,1.3210469922830936e+17,1.964605022860195e+16,4.7656614039494536e+16,17896283551266.965,113508319108573.11,5484642343396230.0,4.6111177110011304e+16
15.805701875257567,1.31568864404366e+16,1.3432162993752203e+17,1.976937592863369e+16,4.7955772786602456e+16,18488590397447.906,117265206694701.67,5666443380422323.0,4.7637397604334856e+16
16.221815912762718,1.3237632441534762e+16,1.36571222785203e+17,1.989070388617399e+16,4.825008550134896e+16,19094611711501.668,121109095577921.5,5852495776583347.0,4.920010147227248e+16
16.64625223101797,1.3317053943421542e+16,1.3885428129003846e+17,2.0010041668222508e+16,4.85395705393889e+16,19714576398406.336,125041438499362.38,6042872804181285.0,5.079998631992639e+16
17.079177275638333,1.3395156083730064e+16,1.4117162312358795e+17,2.0127396994518116e+16,4.882424662686895e+16,20348716887932.73,129063710573876.97,6237648881056373.0,5.243776210995268e+16
17.5207608211511,1.3471944130772952e+16,1.4352408053193792e+17,2.024277778115617e+16,4.910413296623222e+16,20997269233272.93,133177409914988.56,6436899598199935.0,5.411415137642844e+16
17.97117603757412,1.3547423510754562e+16,1.4591250075541312e+17,2.0356192181477124e+16,4.93792493354052e+16,21660473214857.227,137384058292719.95,6640701748806250.0,5.582988944746239e+16
18.430599558325603,1.362159983321088e+16,1.483377464468462e+17,2.0467648624292336e+16,4.964961618052426e+16,22338572449435.945,141685201824794.75,6849133358793855.0,5.758572467575059e+16
18.899211549492115,1.3694478914714966e+16,1.5080069608887373e+17,2.0577155849503588e+16,4.991525470234038e+16,23031814504493.453,146082411701634.62,7062273718824614.0,5.9382418677283816e+16
19.37719578048196,1.3766066800880612e+16,1.533022444106917e+17,2.068472294116544e+16,5.0176186936421016e+16,23740451018050.555,150577284945519.38,7280203417846999.0,6.122074657841405e+16
19.864739696091597,1.3836369786692638e+16,1.5584330280468493e+17,2.079035935803342e+16,5.043243582725293e+16,24464737823902.285,155171445204204.22,7503004378187248.0,6.310149727149056e+16
20.36203449001343,1.3905394435189074e+16,1.584247997433097e+17,2.0894074961635584e+16,5.06840252963377e+16,25204935082324.836,159866543579218.53,7730759892209916.0,6.5025473679276024e+16
20.869275179813698,1.3973147594517402e+16,1.6104768119660208e+17,2.099588004190107e+16,5.0930980304360376e+16,25961307416275.31,164664259488993.47,7963554660566260.0,6.699349302835165e+16
21.38666068340997,1.4039636413385164e+16,1.6371291105065542e+17,2.109578534037602e+16,5.1173326907506904e+16,26734124053094.273,169566301566893.12,8201474832045987.0,6.900638713172135e+16
21.91439389707817,1.4104868354923656e+16,1.6642147152740582e+17,2.119380207105505e+16,5.141109230799617e+16,27523658971708.78,174574408594130.28,8444608045044978.0,7.1065002680820216e+16
22.452681775019734,1.4168851208982474e+16,1.691743636060423e+17,2.1289941938854896e+16,5.16443048988935e+16,28330191055321.113,179690350467485.75,8693043470658201.0,7.31702015471304e+16
23.00173541052013,1.423159310287242e+16,1.7197260744635584e+17,2.138421715575655e+16,5.187299430326819e+16,29154004249553.92,184915929201642.22,8946871857403514.0,7.532286109360394e+16
23.561770118730532,1.429310251057404e+16,1.7481724281433117e+17,2.1476640454642016e+16,5.209719140775844e+16,29995387726010.055,190252979965878.5,9206185577578884.0,7.752387449608597e+16
24.133005521105144,1.4353388260429724e+16,1.7770932951027533e+17,2.1567225100852396e+16,5.231692839060946e+16,30854636051191.605,195703372154775.06,9471078675251768.0,7.977415107492608e+16
24.715665631527248,1.4412459541338504e+16,1.8064994779977862e+17,2.165598490149605e+16,5.253223874425339e+16,31732049360709.355,201269010492495.25,9741646915875776.0,8.207461663696181e+16
25.309978944157795,1.4470325907473344e+16,1.8364019884779456e+17,2.1742934212536932e+16,5.274315729250433e+16,32627933538700.176,206951836170133.72,1.0017987837526308e+16,8.442621382804483e+16
25.91617852304095,1.4526997281542796e+16,1.8668120515612694e+17,2.1828087943695416e+16,5.29497202024475e+16,33542600402358.33,212753828015527.4,1.0300200803742824e+16,8.68299024962805e+16
26.53450209350177,1.4582483956620704e+16,1.8977411100461293e+17,2.1911461561197772e+16,5.315196499110956e+16,34476367891472.113,218677003694855.4,1.058838705796218e+16,8.928666006613653e+16
27.165192135371807,1.4636796596569926e+16,1.9292008289628714e+17,2.1993071088412676e+16,5.334993052700301e+16,35429560262847.32,224723420945280.03,1.0882649779523718e+16,9.179748192356946e+16
27.808495978079243,1.4689946235087928e+16,1.9612031000681603e+17,2.2072933104417424e+16,5.354365702664927e+16,36402508289486.4,230895178837793.44,1.1183094141223254e+16,9.436338181231086e+16
28.464665897640828,1.474194427340569e+16,1.9937600463850138e+17,2.215106474054024e+16,5.3733186046191704e+16,37395549464381.67,237194419069387.3,1.1489827368389812e+16,9.698539224144014e+16
29.133959215593645,1.479280247667305e+16,2.0268840267913754e+17,2.222748367492902e+16,5.391856046822149e+16,38409028208771.87,243623327283587.62,1.180295879945594e+16,9.966456490436547e+16
29.816638399905518,1.484253296906742e+16,2.060587640660325e+17,2.2302208125201616e+16,5.409982448394977e+16,39443296084701.94,250184134418343.25,1.2122599947989056e+16,1.0240197110932162e+17
30.51297116790363,1.489114822766494e+16,2.094883732554943e+17,2.2375256839237196e+16,5.4277023570870424e+16,40498712011717.74,256879118080210.06,1.2448864566148688e+16,1.0519870222148093e+17
31.223230591261704,1.493866107511727e+16,2.1297853969808966e+17,2.244664908417205e+16,5.445020446606738e+16,41575642487522.11,263710603943729.16,1.2781868709531958e+16,1.0805587011676997e+17
31.947695203086937,1.4985084671178936e+16,2.165305983200003e+17,2.2516404633668964e+16,5.461941513533374e+16,42674461812412.43,270680967174859.03,1.312173080336722e+16,1.1097460764746408e+17
32.686649107148675,1.5030432503134316e+16,2.2014591001078685e+17,2.258454375353298e+16,5.478470473828031e+16,43795552317314.72,277792633877308.16,1.346857171001371e+16,1.1395606911963117e+17
33.44038208929165,1.507471837517573e+16,2.2382586211790483e+17,2.2651087185751104e+16,5.494612358961982e+16,44939304595229.68,285048082560576.2,1.3822514797723716e+16,1.1700143078247869e+17
34.20918973107749,1.5117956396787284e+16,2.2757186894829286e+17,2.2716056131037904e+16,5.510372311682806e+16,46106117735901.68,292449845628529.9,1.4183686010621984e+16,1.2011189132965325e+17
34.993373525699035,1.5160160970191424e+16,2.3138537227738915e+17,2.277947222997303e+16,5.525755581438876e+16,47296399563523.375,300000510887317.4,1.455221393985661e+16,1.2328867241252858e+17
35.793240996213015,1.5201346776918578e+16,2.3526784186591766e+17,2.2841357542820988e+16,5.5407675194841576e+16,48510566877290.87,307702723071450.3,1.4928229895874516e+16,1.265330191655133e+17
36.60910581613728,1.524152876356184e+16,2.3922077598480227e+17,2.2901734528126292e+16,5.555413573686001e+16,49749045694626.766,315559185386903.56,1.5311867981775116e+16,1.298462007433976e+17
37.44128793246003,1.5280722126781444e+16,2.4324570194857376e+17,2.2960626020181388e+16,5.569699283059488e+16,51012271496893.984,323572661070099.9,1.5703265167695322e+16,1.3322951087075371e+17
