t(s),Total solute volume 1,Total retention volume 1,Total 1 volume 1,Total 2 volume 1,Total 3 volume 1,Total 4 volume 1,Total 5 volume 1,Total 6 volume 1
0.1,1373795654025336.8,3540173632894849.0,759959875137435.1,1406418103732074.5,0.0,0.0,0.0,-1.66771727949885e-108
0.202,2040400460545551.0,5333597139252525.0,1128714150428977.0,2088853186587032.8,11832131615.043852,49840994768.09789,2270563695468.4795,73297104869113.11
0.30604000000000003,2536281134224335.5,6730343797720768.0,1403026751052802.8,2596509504656028.0,29709432350.904907,125150951740.49443,5714759680837.466,188656787722672.53
0.41216080000000005,2944288786288884.5,7933121830046942.0,1628729515097113.5,3014206054458651.0,52251830391.929985,220114169299.03784,10060889718967.1,335564218483637.7
0.5204040160000001,3296505128120548.5,9019695175255774.0,1823569492430954.2,3374786420182837.0,78788059760.25795,331902590390.16113,15178731203158.387,509244712668132.56
0.6308120963200001,3609131655140919.0,1.0028967603195912e+16,1996509070248821.5,3694836838813988.0,108913128696.36153,458810052732.45404,20989955428258.715,706932360382497.6
0.7434283382464002,3891684531728593.0,1.0983582671289968e+16,2152812425969231.8,3984099455466912.5,142354534005.12802,599688571102.4054,27441928990107.168,926802286030001.5
0.8582969050113283,4150318471105964.0,1.189806795645647e+16,2295884240344294.5,4248875138802567.0,178916707609.18692,753714280638.4775,34496911822154.258,1167560563393244.8
0.9754628431115548,4389289316483401.5,1.2782402768926016e+16,2428078772095757.0,4493520794846022.0,218453361567.2494,920270926047.4622,42126694384734.09,1428248466828491.2
1.094972099973786,4611688273613360.0,1.3643799897307746e+16,2551106022669606.5,4721201035552336.0,260852009115.93112,1098884649910.3563,50309600154879.54,1708135228658534.8
1.2168715419732616,4819847051227717.0,1.4487683367717352e+16,2666255852915867.5,4934302940157105.0,306024556198.74567,1289184356000.2146,59028665185246.19,2006653649319209.8
1.3412089728127268,5015577936197957.0,1.5318264608290428e+16,2774530788510995.5,5134681831403106.0,353901221222.83746,1490876094217.4504,68270462294147.75,2323358812568786.0
1.4680331522689813,5200324221462754.0,1.613890145242208e+16,2876729234082299.0,5323815275670524.0,404426414987.4945,1703725703516.2512,78024304635883.6,2657900264452110.5
1.597393815314361,5375258793608240.0,1.6952332120397066e+16,2973500010149526.5,5502904011705598.0,457555841561.697,1927546598516.4954,88281685456499.73,3010002517037127.5
1.729341691620648,5541351179031070.0,1.7760833474173746e+16,3065379441900656.0,5672940588918860.0,513254394725.2214,2162190907692.7085,99035871687231.7,3379450947333498.0
1.863928525453061,5699414574351654.0,1.856633143308125e+16,3152817375601499.5,5834757514621368.0,571494592381.3026,2407542877937.5723,110281601534139.11,3766081329502273.0
2.001207095962122,5850139716949246.0,1.9370480078133144e+16,3236195915188751.0,5989061928876561.0,632255386234.9751,2663513860044.615,122014854593735.1,4169771893278590.0
2.1412312378813647,5994119837354787.0,2.0174719632894252e+16,3315843225501195.5,6136461149432167.0,695521240250.0284,2930038426498.1973,134232673904280.89,4590437187035069.0
2.284055862638992,6131869407878310.0,2.0980319816231016e+16,3392043903695426.0,6277481865566917.0,761281406045.8749,3207071318927.5806,146933026045399.3,5028023260320014.0
2.4297369798917723,6263838476005760.0,2.1788412830933308e+16,3465046908232511.0,6412584811858986.0,829529345483.6285,3494585015635.445,160114689670520.97,5482503830804409.0
2.578331719489608,6390423791625767.0,2.2600018860013996e+16,3535071714266915.0,6542176159648208.0,900262265190.4525,3792567770695.903,173777165660250.22,5953877198776976.0
2.7298983538794,6511977564120356.0,2.341606604912781e+16,3602313157917285.0,6666616482079025.0,973480737536.8663,4101022017258.107,187920603972604.5,6442163738283741.0
2.884496320956988,6628814439173502.0,2.4237406365828856e+16,3666945295715984.0,6786227896585514.0,1049188389309.8763,4419963056035.925,202545743566476.5,6947403839342034.0
3.0421862473761276,6741217119036095.0,2.506482833106123e+16,3729124513642225.0,6901299818619132.0,1127391644054.6335,4749417969889.942,217653862688737.78,7469656207461088.0
3.2030299723236504,6849440935640448.0,2.589906734701263e+16,3788992056889718.5,7012093643359622.0,1208099507443.023,5089424719671.458,233246737469589.2,8008996449426158.0
3.3670905717701234,6953717605818545.0,2.6740814155944892e+16,3846676107188291.0,7118846590107443.0,1291323387491.0098,5440031386875.718,249326607246703.47,8565515890809534.0
3.5344323832055258,7054258340788945.0,2.759072183003072e+16,3902293502918157.5,7221774885610618.0,1377076943265.5198,5801295536314.869,265896145390091.56,9139320582843328.0
3.7051210308696363,7151256440797569.0,2.844941159522116e+16,3955951174420168.0,7321076420319717.0,1465375957082.9548,6173283677755.416,282958434662578.5,9730530465386290.0
3.879223451487029,7244889475540052.0,2.9317477721283068e+16,4007747350167661.0,7416932980588008.0,1556238226232.846,6556070809810.759,300516946349981.44,1.0339278659601338e+16
4.0568079205167695,7335321128535976.0,3.0195491657703536e+16,4057772577042323.0,7509512136843461.0,1649683471050.4773,6949740032708.243,318575522547729.06,1.0965710869230286e+16
4.237944078927105,7422702766762712.0,3.108400555590058e+16,4106110588628389.0,7598968850496196.0,1745733256774.1863,7354382219128.255,337138361108807.5,1.1609984873428574e+16
4.422702960505647,7507174784059530.0,3.1983555288482228e+16,4152839048360500.0,7685446849243951.0,1844410927101.4832,7770095734327.967,356210002850310.3,1.2272270097306496e+16
4.61115701971576,7588867757004416.0,3.289466305360344e+16,4198030188934718.0,7769079810397096.0,1945741547735.294,8196986198351.857,375795320688717.8,1.2952747248832388e+16
4.803380160110075,7667903444377727.0,3.381783963497126e+16,4241751365194488.5,7849992384076297.0,2049751858511.8782,8635166284395.237,395899510431954.44,1.3651608012747884e+16
4.9994477633122765,7744395655406929.0,3.4753586374436308e+16,4284065534428579.0,7928301082075074.0,2156470232942.1963,9084755548399.78,416528083002713.25,1.4369054793741666e+16
5.199436718578522,7818451007329389.0,3.5702396903435628e+16,4325031675441650.0,8004115053412228.0,2265926644192.922,9545880285778.361,437686857905019.94,1.5105300502417322e+16
5.403425452950093,7890169589119748.0,3.666475867111921e+16,4364705155716727.0,8077536763820460.0,2378152636690.783,10018673411830.662,459381957776444.5,1.5860568378637312e+16
5.611493962009095,7959645545282386.0,3.764115430028296e+16,4403138054359121.5,8148662593401983.0,2493181302663.127,10503274362954.756,481619803893305.1,1.6635091847680534e+16
5.823723841249277,8026967591243075.0,3.8632062796855336e+16,4440379447202079.0,8217583364258999.0,2611047263033.676,10999829016207.113,504407112516683.94,1.7429114405355232e+16
6.040198318074262,8092219469959558.0,3.96379606343542e+16,4476475659395866.5,8284384807947138.0,2731786652180.3066,11508489625133.34,527750891984023.06,1.8242889528790308e+16
6.261002284435747,8155480357814732.0,4.065932273121698e+16,4511470489940838.0,8349147981007364.0,2855437106134.593,12029414770099.51,551658440465185.44,1.907668061011259e+16
6.486222330124463,8216825226582673.0,4.1696623336042344e+16,4545405411920763.0,8411949635527374.0,2982037753864.1113,12562769321611.6,576137344313639.5,1.993076091062238e+16
6.715946776726952,8276325167211072.0,4.2750336833435256e+16,4578319751613650.0,8472862550612763.0,3111629211329.571,13108724415325.594,601195476953309.9,2.080541353341781e+16
6.950265712261491,8334047680298160.0,4.382093848121128e+16,4610250849178544.0,8531955829761842.0,3244253578052.084,13667457437633.885,626840998250008.9,2.170093141270706e+16
7.18927102650672,8390056937424356.0,4.490890508811593e+16,4641234203219615.0,8589295168402916.0,3379954435962.647,14239152020867.191,653082354323394.5,2.261761731828887e+16
7.433056447036854,8444414016898884.0,4.601471563988197e+16,4671303601197197.0,8644943095239183.0,3518776850336.8057,14823998047282.324,679928277761449.6,2.3555783873887656e+16
7.681717575977592,8497177116980385.0,4.713885188033701e+16,4700491237377615.0,8698959190532501.0,3660767372644.2686,15422191661118.69,707387788204576.1,2.4515753588208204e+16
7.935351927497144,8548401749207654.0,4.828179885333971e+16,4728827819780466.0,8751400284025122.0,3805974045165.7603,16033935288101.307,735470193270794.8,2.5497858897722404e+16
8.194058966047088,8598140914120309.0,4.944404541053843e+16,4756342667384242.0,8802320634833079.0,3954446407249.168,16659437661851.342,764185089797345.1,2.6502442220334364e+16
8.45794014536803,8646445261346973.0,5.0626084689282504e+16,4783063798684290.0,8851772095335885.0,4106235503093.72,17298913856735.684,793542365377180.0,2.7529856019178364e+16
8.72709894827539,8693363235781124.0,5.182841456445367e+16,4809018012554793.0,8899804260823674.0,4261393890965.614,17952585326748.516,823552200171731.4,2.858046287590461e+16
9.0016409272409,8738941211345869.0,5.305153807750601e+16,4834230962245100.0,8946464606438175.0,4419975653761.116,18620679950071.492,854225068983702.6,2.9654635572889388e+16
9.281673745785717,8783223613660138.0,5.42959638455954e+16,4858727223236555.0,8991798612752016.0,4582036410844.182,19303432079004.54,885571743575815.2,3.075275718388097e+16
9.567307220701432,8826253032758213.0,5.5562206453326056e+16,4882530355596948.0,9035849881164840.0,4747633331095.029,20001082595001.22,917603295223254.9,3.1875221172656644e+16
9.85865336511546,8868070326874931.0,5.685078682934653e+16,4905662961392746.0,9078660240153058.0,4916825147114.968,20713878968576.14,950331097489201.9,3.302243149932093e+16
10.155826432417769,8908714718188760.0,5.8162232609762664e+16,4928146737652431.0,9120269843286432.0,5089672170539.534,21442075323883.637,983766829214249.2,3.419480273392646e+16
10.458942961066125,8948223881311122.0,5.9497078490115896e+16,4950002525317304.0,9160717259818776.0,5266236308418.788,22185932507795.61,1017922477711746.0,3.539276017714075e+16
10.768121820287448,8986634025219675.0,6.085586656747857e+16,4971250354565533.0,9200039558566768.0,5446581080629.351,22945718163326.7,1052810342162221.9,3.6616739987720424e+16
11.083484256693197,9023979969254466.0,6.223914667405288e+16,4991909486851918.0,9238272385710830.0,5630771638287.588,23721706807280.46,1088443037200998.0,3.7867189316589064e+16
11.405153941827061,9060295213727658.0,6.3647476703510824e+16,5011998453967930.0,9275450037081508.0,5818874783137.854,24514179912005.492,1124833496693971.5,3.914456644734453e+16
11.733257020663602,9095612005636544.0,6.5081422931186696e+16,5031535094393109.0,9311605525432952.0,6010958987893.778,25323425991169.49,1161994977697304.2,4.044934094304781e+16
12.067922161076874,9129961399917904.0,6.65415603291229e+16,5050536587179747.0,9346770643151778.0,6207094417513.849,26149740689471.484,1199941064597442.2,4.178199379916905e+16
12.409280604298411,9163373316634182.0,6.802847287686921e+16,5069019483587421.0,9380976020801336.0,6407352951395.924,26993426876229.07,1238685673428461.2,4.3143017602590136e+16
12.75746621638438,9195876594442582.0,6.9542753868855144e+16,5086999736661127.0,9414251181860366.0,6611808206477.893,27854794742785.207,1278243056364341.2,4.45329166965775e+16
13.112615540712067,9227499040660994.0,7.108500621907481e+16,5104492728926871.0,9446624593977874.0,6820535561234.311,28734161903693.48,1318627806384169.8,4.595220735166e+16
13.474867851526309,9258267478213498.0,7.265584276376048e+16,5121513298361126.0,9478123717033382.0,7033612180561.027,29631853501647.125,1359854862108793.0,4.740141794236138e+16
13.844365208556836,9288207789709936.0,7.42558865626616e+16,5138075762774831.0,9508775048263218.0,7251117041541.891,30548202316127.797,1401939512807740.2,4.888108912974817e+16
14.221252512727972,9317344958888846.0,7.588577119949582e+16,5154193942738983.0,9538604164687616.0,7473130960093.527,31483548875756.64,1444897403575701.2,5.03917740497689e+16
14.605677562982532,9345703109631208.0,7.754614108209061e+16,5169881183166299.0,9567635763050812.0,7699736618485.457,32438241574337.387,1488744540678066.5,5.193403850737143e+16
14.997791114242183,9373305542732284.0,7.923765174269595e+16,5185150373652788.0,9595893697466126.0,7931018593734.943,33412636790587.688,1533497297065358.8,5.3508461176395144e+16
15.397746936527026,9400174770601644.0,8.096097013891266e+16,5200013967673207.0,9623401014939956.0,8167063386876.742,34407099011560.72,1579172418056672.5,5.5115633805242776e+16
15.805701875257567,9426332550045262.0,8.271677495564784e+16,5214484000715487.0,9650179988932324.0,8407959453109.5205,35422000959764.266,1625787027192503.2,5.675616142834938e+16
16.221815912762718,9451799913269962.0,8.45057569084822e+16,5228572107431964.0,9676252151097612.0,8653797232821.7295,36457723723989.16,1673358632257428.2,5.8430662583468424e+16
16.64625223101797,9476597197237654.0,8.632861904880834e+16,5242289537877539.0,9701638321335714.0,8904669183500.848,37514656893863.305,1721905131473537.8,6.01397695348065e+16
17.079177275638333,9500744071485502.0,8.81860770710778e+16,5255647172899318.0,9726358636273012.0,9160669812530.793,38593198698152.984,1771444819865459.5,6.188412850204393e+16
17.5207608211511,9524259564518064.0,9.007885962247334e+16,5268655538736336.0,9750432576281036.0,9421895710883.365,39693756146834.91,1821996395798242.2,6.366439989528205e+16
17.97117603757412,9547162088868320.0,9.200770861530683e+16,5281324820882865.0,9773878991132714.0,9688445587710.074,40816745176966.89,1873578967689233.5,6.548125855596903e+16
18.430599558325603,9569469464916394.0,9.397337954242693e+16,5293664877264451.0,9796716124386656.0,9960420305842.158,41962590802389.766,1926212060895578.5,6.733539400385574e+16
18.899211549492115,9591198943547024.0,9.597664179590886e+16,5305685250771769.0,9818961636582706.0,10237922918206.451,43131727267293.664,1979915624778810.8,6.922751069004295e+16
19.37719578048196,9612367227720786.0,9.80182789892792e+16,5317395181193272.0,9840632627325232.0,10521058705166.43,44324598203687.16,2034710039948349.0,7.115832825618278e+16
19.864739696091597,9632990493026958.0,1.0009908928353213e+17,5328803616584838.0,9861745656324272.0,10809935212797.402,45541656792808.27,2090616125685683.8,7.312858179990485e+16
20.36203449001343,9653084407282024.0,1.0221988571716286e+17,5339919224111224.0,9882316763459214.0,11104662292106.574,46783365930522.4,2147655147551331.5,7.51390221465366e+16
20.869275179813698,9672664149230988.0,1.043814965404594e+17,5350750400391348.0,9902361487924364.0,11405352139208.082,48050198396750.38,2205848825176588.0,7.719041612720026e+16
21.38666068340997,9691744426405942.0,1.0658476555426501e+17,5361305281377337.0,9921894886511442.0,11712119336464.908,49342637028975.5,2265219340242303.0,7.928354686336264e+16
21.91439389707817,9710339492190836.0,1.08830552453431e+17,5371591751794412.0,9940931551079632.0,12025080894609.146,50661174899880.75,2325789344647047.5,8.14192140579248e+16
22.452681775019734,9728463162138512.0,1.111197331751686e+17,5381617454167293.0,9959485625260168.0,12344356295853.102,52006315499166.98,2387581968867040.0,8.359823429294038e+16
23.00173541052013,9746128829582686.0,1.1345320025250043e+17,5391389797456348.0,9977570820438856.0,12670067538004.342,53378572919608.47,2450620830510376.0,8.582144133405448e+16
23.561770118730532,9763349480583558.0,1.1583186317301682e+17,5400915965325361.0,9995200431056750.0,13002339179597.879,54778472047401.34,2514930043068243.0,8.808968644175595e+16
24.133005521105144,9780137708244434.0,1.1825664874312725e+17,5410202924061121.0,1.0012387349266624e+16,13341298386059.53,56206548756865.33,2580534224865740.0,9.040383868954634e+16
24.715665631527248,9796505726432536.0,1.2072850145800194e+17,5419257430163673.0,1.0029144078979696e+16,13687074976914.951,57663350109558.77,2647458508215171.0,9.276478528912437e+16
25.309978944157795,9812465382936268.0,1.2324838387739416e+17,5428086037624572.0,1.0045482749335238e+16,14039801474059.084,59149434557870.484,2715728548774837.0,9.517343192269125e+16
25.91617852304095,9828028172087976.0,1.2581727700752742e+17,5436695104909562.0,1.0061415127623036e+16,14399613151101.541,60665372153153.82,2785370535116016.5,9.76307030824867e+16
26.53450209350177,9843205246879610.0,1.284361806892367e+17,5445090801660931.0,1.0076952631687014e+16,14766648083803.588,62211744758468.86,2856411198501643.0,1.0013754241766526e+17
27.165192135371807,9858007430597652.0,1.3110611399254382e+17,5453279115133518.0,1.0092106341836066e+16,15141047201623.111,63789146266003.93,2928877822879488.0,1.026949130886294e+17
27.808495978079243,9872445228000304.0,1.3382811561785334e+17,5461265856377872.0,1.0106887012286972e+16,15522954340384.432,65398182819245.055,3002798255093327.0,1.0530379812893518e+17
28.464665897640828,9886528836060222.0,1.3660324430394774e+17,5469056666182960.0,1.0121305082162054e+16,15912516296089.846,67039473039967.54,3078200915315396.5,1.0796520081489104e+17
29.133959215593645,9900268154293490.0,1.3943257924296464e+17,5476657020789853.0,1.0135370686063526e+16,16309882879890.918,68713648260124.484,3155114807703601.5,1.1068014504297402e+17
29.816638399905518,9913672794694584.0,1.4231722050253731e+17,5484072237387742.0,1.0149093664244236e+16,16715206974237.285,70421352758708.4,3233569531286939.5,1.1344967571519086e+17
30.51297116790363,9926752091296030.0,1.4525828945527792e+17,5491307479402016.0,1.0162483572394524e+16,17128644590221.89,72163244003665.22,3313595291082859.0,1.1627485913250853e+17
31.223230591261704,9939515109370056.0,1.4825692921578582e+17,5498367761584594.0,1.0175549691062222e+16,17550354926141.225,73939992898940.62,3395222909450170.5,1.1915678339649373e+17
31.947695203086937,9951970654288828.0,1.513143050853629e+17,5505257954915121.0,1.0188301034723336e+16,17980500427290.324,75752284036741.25,3478483837681391.0,1.2209655881929024e+17
32.686649107148675,9964127280058510.0,1.5443160500461498e+17,5511982791321979.0,1.0200746360518752e+16,18419246847012.562,77600815955096.28,3563410167838374.5,1.250953183420754e+17
33.44038208929165,9975993297541912.0,1.5761004001412746e+17,5518546868230837.0,1.0212894176672174e+16,18866763309023.832,79486301400803.53,3650034644835067.0,1.2815421796213744e+17
34.20918973107749,9987576782383456.0,1.608508447233907e+17,5524954652948648.0,1.0224752750603204e+16,19323222371033.18,81409467597850.47,3738390678771772.5,1.312744371687147e+17
34.993373525699035,9998885582649398.0,1.6415527778817203e+17,5531210486890055.0,1.0236330116749076e+16,19788800089679.86,83371056521399.27,3828512357524681.0,1.3445717938774792e+17
35.793240996213015,1.0009927326195652e+16,1.6752462239650778e+17,5537318589653138.0,1.0247634084107392e+16,20263676086809.156,85371825177427.95,3920434459595238.0,1.3770367243569206e+17
36.60910581613728,1.002070942777501e+16,1.7096018676351056e+17,5543283062951076.0,1.025867224351209e+16,20748033617109.832,87412545888123.02,4014192467223433.0,1.4101516898254363e+17
37.44128793246003,1.00312390958944e+16,1.7446330463518064e+17,5549107894405344.0,1.0269451974653542e+16,21242059637133.836,89494006583115.89,4109822579769576.5,1.4439294702423754e+17
38.29011369110923,1.0041523339432926e+16,1.7803533580140832e+17,5554796961206852.0,1.027998045285392e+16,21745944875723.92,91617011096668.08,4207361727369065.5,1.4783831036457338e+17
39.15591596493141,1.0051568974030846e+16,1.8167766661836307e+17,5560354033650022.0,1.0290264655607524e+16,22259883905870.664,93782379470897.22,4306847584864635.5,1.513525891068336e+17
40.03903428423004,1.0061382628258132e+16,1.8539171054046275e+17,5565782778545307.0,1.030031136889614e+16,22784075218024.277,95990948265152.38,4408318586020894.0,1.549371401552591e+17
40.93981496991464,1.007097074957242e+16,1.8917890866211885e+17,5571086762514937.0,1.031012719328838e+16,23318721294884.74,98243570871639.56,4511813938025908.0,1.5859334772655088e+17
41.85861126931294,1.0080339610074304e+16,1.9304073026945728e+17,5576269455176662.0,1.0319718549831586e+16,23864028687696.246,100541117837403.38,4617373636284685.0,1.623226238715648e+17
