t(s),Total solute volume 1,Total retention volume 1,Total 1 volume 1,Total 2 volume 1,Total 3 volume 1,Total 4 volume 1,Total 5 volume 1,Total 6 volume 1
0.1,1388605447609674.5,1.2965503955258198e+16,3123970752525701.5,8452927755122823.0,0.0,0.0,0.0,-0.03849354864423057
0.202,1973953071254551.0,1.8432511898279068e+16,4440845292311022.5,1.2016320329590366e+16,1535236575.398585,11283147725.514639,274333015760.5694,1106053723056.1638
0.30604000000000003,2444164135999608.0,2.2825448656789736e+16,5498690475982120.0,1.4878727833333768e+16,3840230530.917528,28289603211.631638,740785177796.5541,3093296462699.7856
0.41216080000000005,2848231765194749.0,2.6601704332706916e+16,6407730906314452.0,1.7338481087132682e+16,6780203735.864477,49993393798.8037,1361443354934.9585,5842357112571.756
0.5204040160000001,3209380807887340.5,2.9978060576266664e+16,7220216286964959.0,1.953696600579809e+16,10289252248.394457,75904603884.73732,2117766256872.0981,9293515503277.018
0.6308120963200001,3540337368953350.0,3.307330307709348e+16,7964776895728366.0,2.1551653936845384e+16,14331272677.188112,105755404720.52171,2999629383607.188,13415159505367.078
0.7434283382464002,3848813695656817.0,3.595942030049862e+16,8658763178054370.0,2.3429493541884548e+16,18885493828.531063,139391791168.74536,4001140323922.344,18190467293970.285
0.8582969050113283,4139857852218156.5,3.868353570742461e+16,9313531891517872.0,2.520121502063836e+16,23940156822.125004,176726567626.2464,5118848502394.411,23611427823385.88
0.9754628431115548,4416973424557110.5,4.127835896277249e+16,9936965139705992.0,2.6888146476824e+16,29489347364.10835,217715831104.46063,6350861790088.276,29675854716837.406
1.094972099973786,4682704402218005.0,4.376764498896004e+16,1.0534786197585996e+16,2.8505774440604068e+16,35531230332.08203,262345878827.44983,7696359612665.192,36385711830149.875
1.2168715419732616,4938964876090973.0,4.616927112798819e+16,1.1111301241326834e+16,3.0065750923206864e+16,42066985044.22099,310625317270.5366,9155301683209.781,43746093377987.76
1.3412089728127268,5187236823512092.0,4.849708306688197e+16,1.1669844310581642e+16,3.157709744148897e+16,49100124042.08881,362580015717.2462,10728242903998.3,51764568255518.18
1.4680331522689813,5428694955388218.0,5.076205999547455e+16,1.221305818023627e+16,3.3046965027939656e+16,56636037200.70526,418249730083.3908,12416210284575.572,60450735858534.945
1.597393815314361,5664288904590979.0,5.2973081620496456e+16,1.274307926169191e+16,3.4481134553749692e+16,64681675838.93073,477685764064.8656,14220618154182.885,69815914869800.336
1.729341691620648,5894799264965403.0,5.513745112950735e+16,1.3261663675204326e+16,3.5884357866677976e+16,73245327837.24184,540949304378.10223,16143208104937.43,79872919922515.98
1.863928525453061,6120876953228975.0,5.7261262512940776e+16,1.3770275803308724e+16,3.7260597406660744e+16,82336454172.34943,608110210798.4767,18186005512786.19,90635897564571.02
2.001207095962122,6343071569446509.0,5.934966521673435e+16,1.42701520940665e+16,3.8613198850103736e+16,91965568231.63808,679246122921.3737,20351287524342.29,102120203902104.25
2.1412312378813647,6561852285972176.0,6.140705907014623e+16,1.4762348055420524e+16,3.994501827116531e+16,102144145748.72253,754441793588.8218,22641559191073.4,114342312457801.67
2.284055862638992,6777623532201706.0,6.3437240649229896e+16,1.5247773541557142e+16,4.1258517622522456e+16,112884557186.5089,833788588453.823,25059535531870.29,127319744271055.98
2.4297369798917723,6990736973098478.0,6.544351505573892e+16,1.5727219701281558e+16,4.255583765449285e+16,124200016928.79291,917384109931.3219,27608128001512.016,141071014737643.22
2.578331719489608,7201500795998888.0,6.742878257917007e+16,1.6201379870764056e+16,4.383885444832161e+16,136104545301.30023,1005331916078.6748,30290434296726.37,155615593327429.84
2.7298983538794,7410187008062541.0,6.9395606796474504e+16,1.6670865990786202e+16,4.510922383928492e+16,148612940558.34866,1097741313207.3843,33109730735253.74,170973873351824.7
2.884496320956988,7617037240273104.0,7.1346268737153416e+16,1.7136221664138334e+16,4.63684167484369e+16,161740758737.68686,1194727206702.2798,36069466650951.6,187167149688676.66
3.0421862473761276,7822267414353259.0,7.328281043920304e+16,1.7597932654887828e+16,4.761774759236079e+16,175504299823.3834,1296409998502.142,39173260392820.914,204217602910027.0
3.2030299723236504,8026071532793455.0,7.52070703239501e+16,1.8056435414895656e+16,4.8858397354888056e+16,189920599040.2594,1402915522535.5635,42424896618714.83,222148288632567.1
3.3670905717701234,8228624784746544.0,7.712071218839414e+16,1.851212407122038e+16,5.009143249416303e+16,205007422381.74445,1514375011466.2734,45828324648750.914,240983131181637.94
3.5344323832055258,8430086112470143.0,7.90252491650924e+16,1.896535619990335e+16,5.131782056580038e+16,220783265678.06268,1630925089619.6064,49387657697851.01,260746920865353.44
3.7051210308696363,8630600348234329.0,8.092206367521534e+16,1.9416457633419936e+16,5.253844323125931e+16,237267356664.695,1752707788094.3538,53107172847243.68,281465314309810.0
3.879223451487029,8830300006132149.0,8.28124241626409e+16,1.9865726491757364e+16,5.375410716544534e+16,254479659626.75363,1879870578920.3047,56991311645155.89,303164837422337.7
4.0568079205167695,9029306794323204.0,8.469749922051942e+16,2.0313436584544228e+16,5.496555326245434e+16,272440882283.34857,2012566425776.2148,61044681250039.04,325872890639585.0
4.237944078927105,9227732899049774.0,8.657836958933722e+16,2.075984029973152e+16,5.617346445198694e+16,291172484644.35614,2150953849288.5403,65272056047454.734,349617756187666.6
4.422702960505647,9425682081001366.0,8.845603840506632e+16,2.1205171070109336e+16,5.737847237343843e+16,310696689625.33545,2295197005325.8486,69678379685553.7,374428607136737.5
4.61115701971576,9623250616359576.0,9.033143999907155e+16,2.164964549039736e+16,5.858116310448338e+16,331036495248.3369,2445465775014.551,74268767484909.75,400335518076087.4
4.803380160110075,9820528108482098.0,9.220544749198322e+16,2.2093465143309308e+16,5.978208210218001e+16,352215688289.7136,2601935865448.4077,79048509187029.75,427369477271039.25
4.9994477633122765,1.0017598191217414e+16,9.407887937739494e+16,2.2536818181816052e+16,6.0981738484377864e+16,374258859262.7866,2764788920262.1187,84023072012689.97,455562400191408.9
5.199436718578522,1.0214539140937212e+16,9.595250525482387e+16,2.297988070604929e+16,6.218060875544815e+16,397191418644.7833,2934212639398.7715,89198104006734.6,484947144324432.8
5.403425452950093,1.0411424411283524e+16,9.782705084253566e+16,2.3422817966334524e+16,6.33791400615413e+16,421039614275.0339,3110400907530.9053,94579437650413.03,515557525204114.94
5.611493962009095,1.0608323102163164e+16,9.970320237784976e+16,2.3865785418298656e+16,6.457775304557668e+16,445830549865.77875,3293553930701.2646,100173093725954.83,547428333604677.4
5.823723841249277,1.0805300372544704e+16,1.0158161049409131e+17,2.4308929651548944e+16,6.577684436013227e+16,471592204578.819,3483878380836.9907,105985285421052.17,580595353858886.4
6.040198318074262,1.100241780501607e+16,1.0346289364845829e+17,2.47523892098265e+16,6.697678888667796e+16,498353453631.08075,3681587547863.9854,112022422663374.03,615095383272936.9
6.261002284435747,1.1199733728763668e+16,1.0534764116297013e+17,2.519629531762011e+16,6.817794170170125e+16,526144089900.4132,3886901499209.034,118291116677276.72,650966252618732.4
6.486222330124463,1.1397303506574378e+16,1.0723641593078029e+17,2.5640772525841076e+16,6.938063982382315e+16,554994846509.8667,4100047246528.5303,124798184756581.75,688246847692068.0
6.715946776726952,1.159517979059124e+16,1.0912975683201733e+17,2.6085939287202668e+16,7.058520377070317e+16,584937420374.5818,4321258919546.1733,131550655248728.67,726977131931644.9
6.950265712261491,1.1793412750835864e+16,1.1102818089662008e+17,2.65319084703324e+16,7.179193895016214e+16,616004496700.4067,4550777946918.861,138555772746819.58,767198170099252.5
7.18927102650672,1.1992050279914812e+16,1.1293218524607734e+17,2.6978787820304564e+16,7.300113690632648e+16,648229774427.6793,4788853244081.938,145821003487112.78,808952153025879.5
7.433056447036854,1.2191138176831446e+16,1.1484224884135726e+17,2.742668037216601e+16,7.421307643857654e+16,681647992617.3129,5035741408052.276,153354040950401.03,852282423432230.1
7.681717575977592,1.2390720312409506e+16,1.167588340604391e+17,2.7875684823093428e+16,7.542802460855768e+16,716294957779.542,5291706919191.565,161162811666477.12,897233502835063.5
7.935351927497144,1.259083877848633e+16,1.1868238812560909e+17,2.832589586803675e+16,7.664623764838928e+16,752207572148.5302,5557022349953.077,169255481221544.12,943851119553141.9
8.194058966047088,1.279153402273968e+16,1.206133443979414e+17,2.877740450304211e+16,7.786796178141866e+16,789423862908.5082,5831968580653.515,177640460469008.84,992182237828350.1
8.45794014536803,1.2992844970763462e+16,1.2255212355406314e+17,2.923029829988838e+16,7.909343396535307e+16,827983012379.3502,6116835022327.998,186326411944601.4,1042275088078842.4
8.72709894827539,1.3194809136795898e+16,1.2449913465832987e+17,2.968466165519511e+16,8.03228825663138e+16,867925389171.4368,6411919846740.682,195322256487204.6,1094179198301876.0
9.0016409272409,1.339746272432453e+16,1.2645477614186165e+17,3.0140576016755556e+16,8.155652797126613e+16,909292580321.4705,6717530223636.876,204637180067189.9,1147945426644430.0
9.281673745785717,1.3600840717637304e+16,1.2841943669844613e+17,3.059812008950162e+16,8.279458314533338e+16,952127424422.5,7033982565334.157,214280640824394.2,1203625995159698.5
9.567307220701432,1.3804976965258028e+16,1.3039349610608549e+17,3.1057370023210204e+16,8.403725413970725e+16,996474045762.8833,7361602778761.227,224262376318222.38,1261274524767302.8
9.85865336511546,1.4009904256089932e+16,1.323773259819068e+17,3.1518399583805364e+16,8.528474055516992e+16,1042377889490.3002,7700726525062.945,234592410992628.03,1320946071434426.0
10.155826432417769,1.4215654388993784e+16,1.3437129047722922e+17,3.198128030988964e+16,8.653723596564768e+16,1089885757818.1714,8051699486899.577,245281063859026.3,1382697163594279.5
10.458942961066125,1.4422258236441772e+16,1.3637574691879987e+17,3.2446081655947676e+16,8.779492830570195e+16,1139045847293.0034,8414877643576.792,256338956400430.38,1446585840817246.0
10.768121820287448,1.4629745802814782e+16,1.3839104640151698e+17,3.291287112349908e+16,8.905800022541258e+16,1189907787142.3225,8790627554151.153,267777020700346.97,1512671693748845.5
11.083484256693197,1.4838146277847334e+16,1.4041753433735826e+17,3.338171438133454e+16,9.032662941572147e+16,1242522678723.8774,9179326648663.738,279606507800203.9,1581015905327375.2
11.405153941827061,1.5047488085667642e+16,1.42455550964718e+17,3.385267537584245e+16,9.160098890696216e+16,1296943136097.7993,9581363527661.67,291838996289284.1,1651681293292677.5
11.733257020663602,1.5257798929832612e+16,1.445054318218927e+17,3.432581643232521e+16,9.288124734300944e+16,1353223327744.3645,9997138270174.547,304486401131368.0,1724732353996174.2
12.067922161076874,1.5469105834714052e+16,1.4656750818805907e+17,3.480119834810666e+16,9.416756923321533e+16,1411419019450.9478,10427062750319.586,317560982732477.6,1800235307520858.2
12.409280604298411,1.568143518355537e+16,1.486421074947378e+17,3.527888047814909e+16,9.546011518407915e+16,1471587618392.5928,10871560962715.818,331075356254324.94,1878258144118826.8
12.75746621638438,1.5894812753484762e+16,1.5072955371042282e+17,3.5758920813823324e+16,9.67590421123883e+16,1533788218431.561,11331069356894.057,345042501178258.75,1958870671972736.8
13.112615540712067,1.6109263747742032e+16,1.5283016770078854e+17,3.624137605540998e+16,9.806450344139754e+16,1598081646662.0134,11806037180895.691,359475771124693.6,2042144566286715.2
13.474867851526309,1.6324812825350036e+16,1.549442675666462e+17,3.672630167885217e+16,9.937664928145384e+16,1664530511226.8198,12296926834259.443,374388903933205.25,2128153419711525.0
13.844365208556836,1.6541484128439542e+16,1.5707216896160058e+17,3.7213751997228664e+16,1.006956265963342e+17,1733199250434.3472,12804214230601.15,389796032008656.7,2216972794108480.0
14.221252512727972,1.6759301307415182e+16,1.592141853911776e+17,3.770378021737046e+16,1.020215793564436e+17,1804154183203.7576,13328389169997.531,405711692938904.2,2308680273656407.0
14.605677562982532,1.6978287544133096e+16,1.6137062849502227e+17,3.819643849200395e+16,1.033546486799071e+17,1877463560868.2966,13869955721390.799,422150840389830.75,2403355519306199.0
14.997791114242183,1.7198465573243798e+16,1.6354180831361216e+17,3.869177796776659e+16,1.0469497296249451e+17,1953197620366.6729,14429432615236.607,439128855283609.1,2501080324588159.0
15.397746936527026,1.7419857701840282e+16,1.6572803354080643e+17,3.9189848829409496e+16,1.0604268799722662e+17,2031428638853.4565,15007353646623.242,456661557266309.25,2601938672778103.5
15.805701875257567,1.7642485827537568e+16,1.6792961176342333e+17,3.969070034047158e+16,1.0739792708443462e+17,2112230989760.1995,15604268089095.812,474765216471107.25,2706016795429594.5
16.221815912762718,1.7866371455099052e+16,1.701468496889396e+17,4.019438088068413e+16,1.087608211329719e+17,2195681200339.6448,16220741119424.611,493456565583548.0,2813403232281210.5
16.64625223101797,1.8091535711714172e+16,1.7238005336230102e+17,4.07009379803414e+16,1.101314987532161e+17,2281858010726.197,16857354253561.76,512752812215472.75,2924188892549651.0
17.079177275638333,1.8317999361022428e+16,1.746295283727582e+17,4.1210418351850696e+16,1.1151008634244042e+17,2370842434546.477,17514705794036.246,532671651594383.56,3038467117621666.5
17.5207608211511,1.854578281597062e+16,1.7689558005155475e+17,4.1722867918657704e+16,1.128967081630808e+17,2462717821114.512,18193411289041.94,553231279575182.06,3156333745160324.0
17.97117603757412,1.87749061505819e+16,1.791785136612331e+17,4.223833184172323e+16,1.1429148641438014e+17,2557569919246.8545,18894104003478.86,574450405981366.2,3277887174643572.5
18.430599558325603,1.9005389110708732e+16,1.8147863457725485e+17,4.2756854543715176e+16,1.1569454129784709e+17,2655486942733.506,19617435402212.79,596348268282923.9,3403228434355989.0
18.899211549492115,1.9237251123835612e+16,1.8379624846258314e+17,4.327847973106086e+16,1.171059910769277e+17,2756559637501.2983,20364075645822.945,618944645618305.0,3532461249857385.0
19.37719578048196,1.9470511307990504e+16,1.861316614358155e+17,4.380325041399626e+16,1.1852595213125621e+17,2860881350506.934,21134714099113.348,642259873167985.9,3665692113954852.5
19.864739696091597,1.9705188479820644e+16,1.884851802334166e+17,4.433120892473376e+16,1.1995453900581432e+17,2968548100397.7065,21930059852666.727,666314856887276.9,3803030358207721.0
20.36203449001343,1.9941301161881532e+16,1.9085711236655747e+17,4.486239693386064e+16,1.2139186445530379e+17,3079658649978.2837,22750842257725.97,691131088606160.1,3944588225997720.5
20.869275179813698,2.0178867589185256e+16,1.9324776627302288e+17,4.5396855465070744e+16,1.2283803948400821e+17,3194314580522.924,23597811474692.016,716730661504057.2,4090480947199376.0
21.38666068340997,2.041790571504918e+16,1.9565745146462883e+17,4.5934624908322616e+16,1.2429317338139782e+17,3312620367972.7354,24471739035531.7,743136285967558.6,4240826814488108.0
21.91439389707817,2.065843321628313e+16,1.9808647867054464e+17,4.64757450315092e+16,1.257573737537057e+17,3434683461058.529,25373418420393.37,770371305839251.5,4395747261326049.5
22.452681775019734,2.0900467497749772e+16,2.005351599769001e+17,4.702025499071745e+16,1.2723074655168944e+17,3560614361390.0923,26303665648733.438,798459715065909.1,4555366941667605.0
23.00173541052013,2.1144025696329796e+16,2.030038089630216e+17,4.756819333914873e+16,1.2871339609476904e+17,3690526705553.618,27263319885259.434,827426174754420.5,4719813811428796.0
23.561770118730532,2.138912468432099e+16,2.0549274083462614e+17,4.811959803476606e+16,1.3020542509171878e+17,3824537349259.2866,28253244061001.242,857296030643934.9,4889219211766066.0
24.133005521105144,2.1635781072297716e+16,2.080022725542766e+17,4.867450644672682e+16,1.3170693465807403e+17,3962766453581.7783,29274325509825.64,888095331002806.9,5063717954211767.0
24.715665631527248,2.1884011211455108e+16,2.105327229693827e+17,4.923295536065688e+16,1.3321802433040264e+17,4105337573336.9175,30327476620712.395,919850844959068.8,5243448407714712.0
25.309978944157795,2.2133831195460708e+16,2.1308441293801488e+17,4.979498098281624e+16,1.3473879207757578e+17,4252377747638.2617,31413635506115.617,952590081273208.0,5428552587635296.0
25.91617852304095,2.2385256861833456e+16,2.1565766545278512e+17,5.036061894320118e+16,1.3626933430916354e+17,4404017592677.837,32533766686736.97,986341307562185.6,5619176246745331.0
26.53450209350177,2.2638303792869864e+16,2.1825280576302736e+17,5.092990429762782e+16,1.3780974588107245e+17,4560391396775.972,33688861793041.07,1021133569983713.5,5815468968283694.0
27.165192135371807,2.2892987316133624e+16,2.2087016149550554e+17,5.150287152883424e+16,1.3936012009852704e+17,4721637217745.358,34879940283847.555,1056996713389910.1,6017584261119145.0
27.808495978079243,2.314932250452585e+16,2.2351006277385782e+17,5.207955454663765e+16,1.4092054871649744e+17,4887896982615.141,36108050182337.32,1093961401959582.8,6225679657072190.0
28.464665897640828,2.3407324175950172e+16,2.2617284233697786e+17,5.265998668718153e+16,1.424911219376599e+17,5059316589761.36,37374268829813.56,1132059140318459.5,6439916810448146.0
29.133959215593645,2.366700689258616e+16,2.288588356565256e+17,5.324420071130114e+16,1.440719284079766e+17,5236046013490.167,38679703657562.59,1171322295156824.0,6660461599833909.0
29.816638399905518,2.3928384959784784e+16,2.315683810537449e+17,5.383222880203806e+16,1.4566305520996893e+17,5418239411121.089,40025492977160.914,1211784117354080.8,6887484232210789.0
30.51297116790363,2.419147242459649e+16,2.343018198157645e+17,5.442410256132935e+16,1.4726458785376016e+17,5606055232617.613,41412806789579.22,1253478764619914.2,7121159349436494.0
31.223230591261704,2.4456283073943604e+16,2.370594963115451e+17,5.501985300589548e+16,1.4887661026594902e+17,5799656332813.016,42842847613435.18,1296441324661758.5,7361666137148959.0
31.947695203086937,2.472283043244696e+16,2.3984175810763146e+17,5.5619510562351496e+16,1.5049920477638032e+17,5999210086279.447,44316851332752.055,1340707838888428.8,7609188436145280.0
32.686649107148675,2.4991127759916296e+16,2.4264895608386272e+17,5.6223105061560504e+16,1.521324521028677e+17,6204888504888.87,45836088064578.6,1386315326659829.8,7863914856288903.0
33.44038208929165,2.5261188048513092e+16,2.454814445491847e+17,5.6830665732251176e+16,1.5377643133392362e+17,6416868358114.366,47401863046831.24,1433301810092768.8,8126038892998911.0
34.20918973107749,2.5533024019594292e+16,2.4833958135770707e+17,5.74422211939167e+16,1.5543121990954554e+17,6635331296120.918,49015517546719.33,1481706339432960.5,8395759046374736.0
34.993373525699035,2.5806648120244068e+16,2.512237280251413e+17,5.805779944901308e+16,1.5709689360010397e+17,6860463975694.807,50678429790116.72,1531569019003409.2,8673278943010824.0
35.793240996213015,2.608207251950184e+16,2.5413424984575062e+17,5.86774278744721e+16,1.587735264833806e+17,7092458189060.796,52392015912243.01,1582931033739423.8,8958807460555368.0
36.60910581613728,2.63593091042921e+16,2.5707151600994378e+17,5.930113321254529e+16,1.604611909197922e+17,7331510995636.756,54157730930020.32,1635834676320583.0,9252558855067870.0
37.44128793246003,2.663836947506296e+16,2.600358997226306e+17,5.992894156099187e+16,1.6215995752584154e+17,7577824856775.05,55977069736471.27,1690323374910045.2,9554752891230890.0
38.29011369110923,2.6919264941139696e+16,2.6302777832246998e+17,6.056087836262515e+16,1.6386989514583094e+17,7831607773540.356,57851568117522.94,1746441721511665.2,9865614975471288.0
39.15591596493141,2.720200651579798e+16,2.6604753340212266e+17,6.119696839422914e+16,1.6559107082187382e+17,8093073427573.456,59782803791584.38,1804235500955385.5,1.0185376292047058e+16
