t(s),Total solute volume 1,Total retention volume 1,Total 1 volume 1,Total 2 volume 1,Total 3 volume 1,Total 4 volume 1,Total 5 volume 1,Total 6 volume 1
0.1,941999071437344.5,1111941895936827.4,80338108873842.89,89604715625638.98,0.0,0.0,0.0,0.0
0.202,1146868683367494.0,1951540071483690.2,97810352794266.62,109092298291673.05,923355451598.5436,1786762339619.7026,26169792486100.535,568888826752937.5
0.30604000000000003,1235460577097660.5,2758688986865173.5,105365886025966.31,117519325480265.28,2008252112600.6611,3887410116014.3184,56938530654786.72,1237509005377880.5
0.41216080000000005,1284319374564600.5,3563282598815279.5,109532793990561.52,122166865971238.44,3161313959904.1,6121485087901.725,89663129836650.84,1948317635404417.2
0.5204040160000001,1315073736847544.2,4374456117352652.0,112155670602223.89,125092278617951.16,4357197308424.7417,8440075196237.115,123627300042436.95,2685709858737830.5
0.6308120963200001,1336136014859708.2,5196161346589066.0,113951960698950.94,127095762024739.94,5586647952530.474,10825382943157.29,158570472818190.6,3443995105291789.5
0.7434283382464002,1351436811616819.2,6030513405769988.0,115256884586019.66,128551202524831.48,6845745403815.402,13269928866655.582,194383205960108.94,4220769626811734.5
0.8582969050113283,1363049755739936.5,6878832405381037.0,116247291061553.84,129655847562934.92,8132726051522.3955,15770409008449.955,231017218183571.84,5014959157773057.0
0.9754628431115548,1372168318927503.0,7742046408417694.0,117024965003200.61,130523222406068.23,9446824490792.21,18325454633735.516,268452577469731.9,5826105045486669.0
1.094972099973786,1379526094030198.0,8620871794030193.0,117652470658321.36,131223107782514.7,10787785779567.809,20934689269952.203,306683890339010.7,6654063756170624.0
1.2168715419732616,1385597860267992.5,9515902998069096.0,118170299431021.47,131800665582465.08,12155637413355.758,23598287959288.38,345713846711717.0,7498866400703263.0
1.3412089728127268,1390703939240009.5,1.0427660921937852e+16,118605769853307.98,132286365397443.67,13550573787856.645,26316754039237.3,385549950769030.3,8360647568850977.0
1.4680331522689813,1395067980469224.2,1.1356620774234826e+16,118977955808021.17,132701481189723.53,14972893802916.598,29090798695431.1,426202757066850.25,9239606907202654.0
1.597393815314361,1398850694826746.2,1.2303228944285176e+16,119300563473858.17,133061300078926.92,16422965376592.643,31921272563494.465,467684868993016.44,1.0135987278972554e+16
1.729341691620648,1402170432327186.8,1.3267913686997272e+16,119583686296508.55,133377079740526.9,17901204384130.746,34809125236801.547,510010345959168.56,1.1050061813052934e+16
1.863928525453061,1405116210774387.8,1.425109214795525e+16,119834916132818.9,133657287715072.81,19408061705844.637,37755380466426.81,553194340440528.7,1.1982125950720194e+16
2.001207095962122,1407756232335252.5,1.5253175136621118e+16,120060069584249.45,133908411520669.97,20944015021099.285,40761120550386.19,597252869619484.9,1.2932492417989974e+16
2.1412312378813647,1410143607049335.2,1.6274570465991822e+16,120263676124682.36,134135503083950.9,22509563478225.496,43827476295707.55,642202668664877.6,1.3901487971295028e+16
2.284055862638992,1412320293803945.5,1.7315685352387494e+16,120449314205307.06,134342553613022.14,24105224160434.184,46955620465104.72,688061095062117.9,1.4889451251077566e+16
2.4297369798917723,1414319872782712.8,1.8376928182965536e+16,120619847702069.1,134532757317973.25,25731529703333.07,50146763462321.39,734846065745893.5,1.589673134625125e+16
2.578331719489608,1416169533484219.2,1.9458709848133596e+16,120777595463245.69,134708700514938.42,27389026668261.855,53402150491035.49,782576015829717.6,1.6923686825682174e+16
2.7298983538794,1417891524875106.8,2.056144476846944e+16,120924454985321.98,134872499567383.02,29078274422048.42,56723059705347.02,831269871873441.8,1.7970685083040768e+16
2.884496320956988,1419504229655194.8,2.1685551703275296e+16,121061994031370.12,135025903072217.0,30799844362386.2,60110801041240.14,880947035139883.5,1.9038101895972984e+16
3.0421862473761276,1421022971278873.2,2.2831454400526812e+16,121191519457627.45,135170368625182.22,32554319382992.777,63566715524729.72,931627371848958.4,2.0126321134408452e+16
3.2030299723236504,1422460627987656.8,2.3999582129957412e+16,121314129581082.27,135307121228784.08,34342293507571.816,67092174919845.34,983331208425568.6,2.123573457430694e+16
3.3670905717701234,1423828105480001.5,2.5190370128915584e+16,121430754490974.34,135437198253529.31,36164371644157.234,70688581623256.69,1036079330376820.8,2.2366741787046852e+16
3.5344323832055258,1425134704676231.2,2.6404259982356692e+16,121542187413520.55,135561484420417.25,38021169426286.81,74357368741117.98,1089892983855698.4,2.3519750083823444e+16
3.7051210308696363,1426388410696185.5,2.7641699952577396e+16,121649109357285.03,135680739289035.34,39913313117412.51,78100000302997.39,1144793879250752.0,2.469517450056375e+16
3.879223451487029,1427596122007637.0,2.8903145270240416e+16,121752108656035.2,135795619054586.69,41841439561734.75,81917971580884.05,1200804196333781.8,2.589343781304574e+16
4.0568079205167695,1428763833675231.2,3.0189058395331336e+16,121851696597071.3,135906693978873.55,43806196169322.35,85812809490334.4,1257946590630234.5,2.7114970574790236e+16
4.237944078927105,1429896785060840.0,3.149990925458309e+16,121948320017808.39,136014462439831.98,45808240926647.67,89786073057152.12,1316244200769912.8,2.83602111723109e+16
4.422702960505647,1430999579748094.8,3.2836175460358348e+16,122042371533504.66,136119362338978.47,47848242425978.72,93839353937491.86,1375720656641468.5,2.9629605893732796e+16
4.61115701971576,1432076283584868.0,3.4198342514832644e+16,122134197898782.1,136221780427393.6,49926879908720.24,97974276982488.56,1436400088221141.2,3.092360900780922e+16
4.803380160110075,1433130505353613.0,3.5586904002463616e+16,122224106887577.06,136322059979239.02,52044843318988.11,102192500840841.0,1498307134980414.8,3.22426828511029e+16
4.9994477633122765,1434165463550337.2,3.700236177307917e+16,122312372988361.89,136420507143896.11,54202833364572.26,106495718594480.3,1561466955802237.5,3.358729792163527e+16
5.199436718578522,1435184041979840.8,3.844522611742111e+16,122399242145568.8,136517396234290.62,56401561583078.69,110885658423707.25,1625905239353747.5,3.4957932977700924e+16
5.403425452950093,1436188836289740.0,3.9916015936597464e+16,122484935728230.77,136612974153295.62,58641750411516.164,115364084299122.62,1691648214877313.2,3.635507514083825e+16
5.611493962009095,1437182193118671.5,4.14152589065979e+16,122569653868724.22,136707464117582.88,60924133257942.58,119932796698367.1,1758722663371987.0,3.777922000216457e+16
5.823723841249277,1438166243190123.0,4.294349163879535e+16,122653578285166.1,136801068805569.7,63249454574053.11,124593633346231.72,1827155929145209.0,3.9230871731448936e+16
6.040198318074262,1439142929416643.2,4.45012598371695e+16,122736874678274.23,136893973030744.73,65618469927786.06,129348469977095.56,1896975931720804.0,4.071054318841806e+16
6.261002284435747,1440114030871086.0,4.608911845284222e+16,122819694775745.95,136986346021856.53,68031946075175.85,134199221118965.0,1968211178093673.0,4.221875603588575e+16
6.486222330124463,1441081183317850.0,4.770763183639909e+16,122902178083260.77,137078343375885.62,70490661030795.77,139147840898633.75,2040890775325436.5,4.375604085436721e+16
6.715946776726952,1442045896868005.0,4.935737388837105e+16,122984453390190.05,137170108737430.11,72995404136216.66,144196323867666.7,2115044443477947.8,4.532293725789353e+16
6.950265712261491,1443009571219070.0,5.103892820817884e+16,123066640069320.16,137261775248345.36,75546976125975.16,149346705849066.38,2190702528883921.5,4.691999401078315e+16
7.18927102650672,1443973508858265.5,5.27528882417748e+16,123148849202884.23,137353466803659.77,78146189190594.23,154601064804597.38,2267896017755723.5,4.854776914515904e+16
7.433056447036854,1444938926541713.5,5.449985742816378e+16,123231184561565.84,137445299143499.34,80793867036232.27,159961521722842.16,2346656550134773.0,5.0206830079023224e+16
7.681717575977592,1445906965308774.8,5.628044934494544e+16,123313743458566.28,137537380805669.08,83490844940567.83,165430241528136.06,2427016434185323.5,5.189775373471839e+16
7.935351927497144,1446878699247230.2,5.809528785297695e+16,123396617497141.19,137629813959414.45,86237969804545.81,171009434010598.22,2509008660837187.0,5.362112665762079e+16
8.194058966047088,1447855143189683.5,5.994500724023044e+16,123479893226987.25,137722695137516.77,89036100199622.48,176701354777521.47,2592666918783118.5,5.537754513491598e+16
8.45794014536803,1448837259492528.8,6.1830252364885976e+16,123563652722381.12,137816115881121.14,91886106410158.12,182508306226436.53,2678025609836830.5,5.716761531431653e+16
8.72709894827539,1449825964024907.8,6.3751678797682936e+16,123647974092950.64,137910163309419.8,94788870470610.48,188432638540198.22,2765119864658792.0,5.899195332258608e+16
9.0016409272409,1450822131475515.0,6.570995296353009e+16,123732931936259.02,138004920624441.7,97745286197186.05,194476750704471.62,2853985558856998.5,6.085118538373527e+16
9.281673745785717,1451826600068529.2,6.770575228235605e+16,123818597740005.77,138100467559643.33,100756259213603.55,200643091548035.72,2944659329470662.0,6.274594793675543e+16
9.567307220701432,1452840175766530.0,6.9739765309167176e+16,123905040240468.84,138196880779697.39,103822706970626.62,206934160806328.88,3037178591845230.0,6.467688775275842e+16
9.85865336511546,1453863636026751.2,7.181269187326622e+16,123992325742856.31,138294234237794.02,106945558759014.62,213352510208704.34,3131581556907346.5,6.6644662051383704e+16
10.155826432417769,1454897733167542.2,7.392524321656746e+16,124080518408413.55,138392599495865.69,110125755715540.66,219900744589861.47,3227907248848940.0,6.8649938616341304e+16
10.458942961066125,1455943197393834.8,7.60781421309396e+16,124169680512450.9,138492046012375.28,113364250821716.78,226581523025956.56,3326195523229900.0,7.06933959099434e+16
10.768121820287448,1457000739523700.0,7.8272123094488e+16,124259872676875.02,138592641401670.7,116662008894862.47,233397559995907.28,3426487085509113.0,7.277572318648581e+16
11.083484256693197,1458071053452261.2,8.050793240668277e+16,124351154080324.36,138694451668357.67,120020006571145.88,240351626568407.97,3528823510014007.5,7.489762060432843e+16
11.405153941827061,1459154818384457.2,8.278632832222891e+16,124443582648589.08,138797541419683.11,123439232280216.02,247446551615213.28,3633247259359064.0,7.70597993365217e+16
11.733257020663602,1460252700863869.5,8.510808118355962e+16,124537215227640.02,138901974058523.25,126920686211043.61,254685223051241.8,3739801704324042.0,7.92629816798233e+16
12.067922161076874,1461365356621476.2,8.747397355183384e+16,124632107741297.0,139007811959237.67,130465380268572.58,262070589102071.78,3848531144202977.5,8.150790116193818e+16
12.409280604298411,1462493432264923.8,8.988480033629936e+16,124728315335300.92,139115116628358.28,134074338020780.28,269605659599417.94,3959480827635240.0,8.37953026468152e+16
12.75746621638438,1463637566826562.2,9.234136892188248e+16,124825892509334.06,139223948851840.03,137748594635736.58,277293507305183.53,4072696973930491.5,8.612594243782333e+16
13.112615540712067,1464798393186000.0,9.484449929485363e+16,124924893238345.2,139334368830378.22,141489196808239.5,285137269264704.1,4188226794899279.0,8.850058837862666e+16
13.474867851526309,1465976539381236.5,9.73950241664053e+16,125025371084367.19,139446436304124.69,145297202675601.25,293140148189798.0,4306118517201680.0,9.092001995156862e+16
13.844365208556836,1467172629820560.5,9.999378909397907e+16,125127379299874.9,139560210667966.34,149173681722145.66,301305413872271.94,4426421405226404.0,9.33850283733698e+16
14.221252512727972,1468387286406095.2,1.0264165260015962e+17,125230970923604.95,139675751078399.2,153119714671974.94,309636404628508.7,4549185784513355.0,9.589641668793757e+16
14.605677562982532,1469621129578543.5,1.053394862889539e+17,125336198869656.61,139793116552905.3,157136393369548.66,318136528775817.94,4674463065732629.0,9.845499985607498e+16
14.997791114242183,1470874779291588.8,1.0808817495926082e+17,125443116010595.03,139912366062641.81,161224820647613.25,326809266141197.2,4802305769233409.0,1.0106160484187392e+17
15.397746936527026,1472148855923543.8,1.1088861671532418e+17,125551775255199.36,140033558619156.14,165386110182017.9,335658169603201.75,4932767550176678.0,1.0371707069556442e+17
15.805701875257567,1473443981132843.5,1.1374172307396246e+17,125662229621423.69,140156753355764.48,169621386332928.56,344686866667596.3,5065903224265402.0,1.0642224863258646e+17
16.221815912762718,1474760778663442.2,1.1664841906835221e+17,125774532305083.58,140282009604159.36,173931783971972.1,353899061077500.25,5201768794086921.0,1.0917800210864315e+17
16.64625223101797,1476099875105310.0,1.1960964334813509e+17,125888736744718.53,140409386966754.8,178318448294799.94,363298534458732.6,5340421476081776.0,1.1198520689048293e+17
17.079177275638333,1477461900614955.0,1.2262634827561075e+17,126004896683037.48,140538945385217.92,182782534618589.88,372889148001068.1,5481919728154256.0,1.1484475112215358e+17
17.5207608211511,1478847489600054.8,1.2569950001776733e+17,126123066225309.62,140670745205596.14,187325208163971.78,382674844176151.94,5626323277939598.0,1.1775753538645654e+17
17.97117603757412,1480257281372154.0,1.2883007863389331e+17,126243299895028.95,140804847240401.12,191947643820876.4,392659648492776.0,5773693151743427.0,1.2072447276132862e+17
18.430599558325603,1481691920770798.8,1.3201907815850346e+17,126365652687143.45,140941312827980.1,196651025897784.0,402847671290297.94,5924091704169294.0,1.2374648887086e+17
18.899211549492115,1483152058762243.5,1.3526750667930326e+17,126490180119115.28,141080203889462.0,201436547853867.47,413243109570922.0,6077582648450379.0,1.268245219306571e+17
19.37719578048196,1484638353015491.0,1.3857638640990762e+17,126616938280049.17,141221582983555.38,206305412013498.16,423850248871615.4,6234231087501590.0,1.2995952278724195e+17
19.864739696091597,1486151468458240.2,1.4194675375701861e+17,126745983878104.22,141365513359427.56,211258829262594.9,434673465176419.1,6394103545708973.0,1.3315245495117482e+17
20.36203449001343,1487692077814946.0,1.453796593817553e+17,126877374286385.48,141512059007891.44,216298018726299.8,445717226869914.5,6557268001473106.0,1.3640429462357651e+17
20.869275179813698,1489260862129213.2,1.488761682548251e+17,127011167587492.45,141661284711088.88,221424207427440.94,456986096732629.3,6723793920523821.0,1.3971603071571334e+17
21.38666068340997,1490858511272226.0,1.5243735970521206e+17,127147422616883.4,141813256090860.75,226638629925268.88,468484733979141.5,6893752290023716.0,1.43088664861304e+17
21.91439389707817,1492485724439090.2,1.5606432746204298e+17,127286199005203.23,141968039655955.06,231942527933945.5,480217896339669.6,7067215653478006.0,1.4652321142119094e+17
22.452681775019734,1494143210634565.2,1.5975817968929555e+17,127427557219711.4,142125702848232.84,237337149920255.8,492190442185919.6,7244258146469015.0,1.500206974800175e+17
23.00173541052013,1495831689149636.2,1.6352003901298397e+17,127571558604923.95,142286314088000.06,242823750680038.9,504407332701965.75,7424955533233069.0,1.535821628345264e+17
23.561770118730532,1497551890030251.0,1.673510425404741e+17,127718265422591.39,142449942818596.12,248403590892824.72,516873634100936.56,7609385244098533.0,1.5720865997311018e+17
24.133005521105144,1499304554539385.5,1.712523418715317e+17,127867740891105.28,142616659550343.3,254077936654174.47,529594519888279.94,7797626413803450.0,1.6090125404620486e+17
24.715665631527248,1501090435613603.0,1.752251031007422e+17,128020049224434.92,142786535903978.25,259848058985235.1,542575273172374.1,7989759920711621.0,1.6466102282713085e+17
25.309978944157795,1502910298315024.0,1.792705068108932e+17,128175255670674.53,142959644653642.56,265715233319026.22,555821289023229.75,8185868426946128.0,1.6848905666296538e+17
25.91617852304095,1504764920279742.5,1.8338974805692182e+17,128333426550285.67,143136059769539.66,271680738962990.88,569338076880047.8,8386036419459312.0,1.723864584150199e+17
26.53450209350177,1506655092163449.2,1.875840363400117e+17,128494629294102.92,143315856460319.2,277745858537359.88,583131263008356.8,8590350252058536.0,1.7635434338848986e+17
27.165192135371807,1508581618085149.5,1.9185459557141766e+17,128658932481174.66,143499111215287.66,283911877388889.44,597206593007461.8,8798898188407108.0,1.8039383925083248e+17
27.808495978079243,1510545316069628.5,1.962026640255822e+17,128826405876500.05,143685901846494.75,290180082979559.4,611569934368906.9,9011770446019660.0,1.8450608593842147e+17
28.464665897640828,1512547018489387.2,2.0062949428210563e+17,128997120468719.14,143876307530772.84,296551764249834.06,626227279086640.9,9229059241271470.0,1.8869223555100877e+17
29.133959215593645,1514587572506681.0,2.051363531561137e+17,129171148507811.73,144070408851782.4,303028210956122.56,641184746319560.1,9450858835441310.0,1.929534522335305e+17
29.816638399905518,1516667840516232.0,2.0972452161656672e+17,129348563542853.23,144268287842124.7,309610712982083.5,656448585107050.9,9677265581806956.0,1.9729091204476957e+17
30.51297116790363,1518788700589135.2,2.1439529469203773e+17,129529440459874.2,144470028025567.12,316300559623472.3,672025177138165.0,9908377973813044.0,2.017058028123883e+17
31.223230591261704,1520951046918513.8,2.1914998136348333e+17,129713855519868.73,144675714459435.2,323099038846244.7,687921039574995.2,1.0144296694330274e+16,2.061993239738334e+17
31.947695203086937,1523155790267368.8,2.239899044435216e+17,129901886396985.45,144885433777211.28,330007436517676.0,704142827930812.8,1.0385124666024976e+16,2.1077268640260643e+17
32.686649107148675,1525403858419018.8,2.289164004417266e+17,130093612216948.56,145099274231383.1,337027035610281.5,720697339003441.1,1.0630967102858128e+16,2.1542711221938755e+17
33.44038208929165,1527696196630624.0,2.3393081941543347e+17,130289113595731.44,145317325736581.44,344159115378395.56,737591513864354.5,1.0881931562732006e+16,2.2016383458749584e+17
34.20918973107749,1530033768090070.8,2.3903452480555222e+17,130488472678524.95,145539679913043.22,351404950507268.6,754832440903909.8,1.113812800130308e+16,2.249840974921566e+17
34.993373525699035,1532417554376635.0,2.442288932568759e+17,130691773179024.06,145766430130427.62,358765810234640.56,772427358933024.5,1.1399668826978624e+16,2.2988915550304346e+17
35.793240996213015,1534848555925735.5,2.4951531442236614e+17,130899100419064.55,145997671552025.84,366242957444759.75,790383660341665.1,1.1666668957114342e+16,2.3488027351956822e+17
36.60910581613728,1537327792498044.8,2.5489519075088598e+17,131110541368629.88,146233501179382.84,373837647734910.25,808708894314310.2,1.1939245875429964e+16,2.3995872649836074e+17
37.44128793246003,1539856303653267.8,2.603699372578681e+17,131326184686258.33,146474017897365.03,381551128454547.4,827410770102574.9,1.2217519690658708e+16,2.4512579916241533e+17
38.29011369110923,1542435149228817.0,2.659409812783688e+17,131546120759867.2,146719322519692.8,389384637717220.6,846497160355053.8,1.2501613196445776e+16,2.5038278569134237e+17
39.15591596493141,1545065409823660.5,2.7160976220199098e+17,131770441748016.17,146969517834964.72,397339403385534.9,865976104504387.5,1.2791651932510812e+16,2.557309893921836e+17
40.03903428423004,1547748187287473.5,2.7737773118913334e+17,131999241621624.58,147224708653183.84,405416642029469.94,885855812211428.5,1.3087764247087158e+16,2.6117172235024278e+17
40.93981496991464,1550484605215355.2,2.8324635086803638e+17,132232616206164.64,147485001852822.16,413617557858467.94,906144666866292.9,1.3390081360650628e+16,2.6670630505938678e+17
41.85861126931294,1553275809448241.8,2.892170950120894e+17,132470663224337.94,147750506428415.72,421943341627784.44,926851229145987.5,1.3698737430949394e+16,2.7233606603126547e+17
