t(s),Total solute volume 1,Total retention volume 1,Total 1 volume 1,Total 2 volume 1,Total 3 volume 1,Total 4 volume 1,Total 5 volume 1,Total 6 volume 1
0.1,1090211262672958.4,1436790320131653.8,152346489675587.4,194232567783107.2,0.0,0.0,0.0,0.0
0.202,1640960937084240.0,2164499493235503.5,229308436258263.47,292354403792103.6,1428191136.2569315,3392777554.585855,67638527630.07528,1803256604576.4243
0.30604000000000003,2059973577768508.2,2719598100010580.5,287861404516947.2,367005901781926.94,3621549152.871768,8603275113.283987,171518628957.84268,4573472489971.522
0.41216080000000005,2413879709180849.0,3189700208542437.0,337316367071112.06,430057991775653.25,6429368202.335378,15273477176.44437,304501155187.40326,8119936514254.382
0.5204040160000001,2727690325562851.5,3607679277707090.0,381168368771551.6,485966645054983.5,9784287358.859755,23243362835.97664,463395589553.04407,12357515077958.93
0.6308120963200001,3013873831416128.0,3989919434760580.0,421159748693979.2,536953238744793.9,13649790495.807901,32426185675.503426,646472411587.4214,17240067517920.232
0.7434283382464002,3279678389659809.0,4345945117447854.0,458303367580865.0,584309109125646.2,18004631262.886227,42771473918.81279,852725340662.2443,22740749635683.496
0.8582969050113283,3529747096659206.0,4681859196217869.0,493248053290669.94,628861472530657.6,22836429180.01255,54249817414.420525,1081568014130.6174,28843919476611.145
0.9754628431115548,3767260903943702.5,5001845080972181.0,526438313066936.44,671177048847443.4,28138511809.945316,66845365959.94724,1332684419909.7131,35541146816417.53
1.094972099973786,3994509270688849.0,5308916483550297.0,558194076709718.94,711663729246860.4,33908164087.43689,80551670444.39388,1605945978677.8376,42829001091666.73
1.2168715419732616,4213203529756568.5,5605329018566826.0,588754486452254.2,750626405631412.8,40145574816.01766,95369180169.41531,1901361646714.3157,50707720324898.21
1.3412089728127268,4424661752660032.0,5892822952011224.0,618303730053782.6,788299906268488.8,46853163164.62897,111303642891.15492,2219046016878.13,59180360205980.945
1.4680331522689813,4629924093782482.0,6172774620912100.0,646987159039745.1,824869545573145.5,54035127737.08761,128365033601.85753,2559197961358.6807,68252224394023.1
1.597393815314361,4829828077254076.0,6446295242650893.0,674921809315444.2,860484537255092.6,61697133562.138756,146566810952.98267,2922085806765.5493,77930469074995.45
1.729341691620648,5025059594982825.0,6714297831519066.0,702203527648152.1,895267080152950.6,69846088520.51096,165925386143.1605,3308036745214.0615,88223820515251.69
1.863928525453061,5216188542151574.0,6977543948106667.0,728911951383518.0,929318707071891.1,78489979985.19109,186459734847.55392,3717429097277.568,99142368687570.08
2.001207095962122,5403694384577503.0,7236677234863722.0,755114081237038.1,962724839876952.0,87637753299.74901,208191108536.96472,4150686556504.115,110697413753893.53
2.1412312378813647,5587984924477864.0,7492248027081805.0,780866903628510.6,995558132811066.9,97299220122.53587,231142816745.81445,4608273848461.134,122901350279036.0
2.284055862638992,5769410349319711.0,7744731776127713.0,806219353873048.4,1027880975445035.0,107484988595.89256,255340061187.3273,5090693423471.384,135767579016672.6
2.4297369798917723,5948273933739005.0,7994543083148854.0,831213811670879.2,1059747399336667.6,118206409796.36595,280809808545.68506,5598482920461.233,149310439263505.16
2.578331719489608,6124840318241439.0,8242046555471968.0,855887257975797.9,1091204552968197.1,129475536554.92241,307580692654.26117,6132213216686.091,163545156840639.75
2.7298983538794,6299342001774737.0,8487565321617134.0,880272182269410.9,1122293858466128.4,141305091831.97485,335682939372.2604,6692486929998.8125,178487804145659.97
2.884496320956988,6471984496527764.0,8731387793104082.0,904397302894521.8,1153051929982790.5,153708444584.27222,365148309259.0427,7279937275955.004,194155269669212.72
3.0421862473761276,6642950466242071.0,8973773094454774.0,928288145344170.5,1183511310979939.8,166699591587.58734,396010054397.1534,7895227207003.521,210565235035598.97
3.2030299723236504,6812403082042853.0,9214955468265806.0,951967511206596.4,1213701072105257.5,180293144054.96277,428302886607.76074,8539048778810.571,227736158101613.88
3.3670905717701234,6980488768760086.0,9455147882142260.0,975455861937079.1,1243647300478250.0,194504318162.686,462062954949.4639,9212122701668.273,245687260992065.16
3.5344323832055258,7147339471321786.0,9694545007366034.0,998771635564506.9,1273373503472010.8,209348928796.62717,497327830867.5695,9915198044432.373,264438522203634.56
3.7051210308696363,7313074539495523.0,9933325698109706.0,1021931510065777.1,1302900944499674.0,224843385981.02847,534136499715.98315,10649052065512.877,284010672097538.3
3.879223451487029,7477802306355279.0,1.0171655069977412e+16,1044950623941311.6,1332248924234847.0,241004693564.6521,572529357641.9036,11414490150784.217,304425191243997.25
4.0568079205167695,7641621418890685.0,1.0409686254414648e+16,1067842762154817.5,1361435017673605.8,257850449825.324,612548213028.1012,12212345842361.61,325704311190315.9
4.237944078927105,7804621966467518.0,1.0647561888869034e+16,1090620513824749.0,1390475275181559.2,275398849720.3515,654236291845.3993,13043480945336.219,347871017308307.1
4.422702960505647,7966886443224011.0,1.0885415389967902e+16,1113295406709912.0,1419384393954880.2,293668688562.0086,697638246390.8096,13908785702011.932,370949053442140.56
4.61115701971576,8128490573126616.0,1.1123372047330272e+16,1135878022502996.0,1448175865012596.0,312679366937.9446,742800166983.401,14809179025111.77,394962928129036.9
4.803380160110075,8289504020724886.0,1.136154996818353e+16,1158378096151740.0,1476862099825065.0,332450896728.52313,789769596266.3741,15745608782945.334,419937922205893.44
4.9994477633122765,8449991006221195.0,1.1600060897157274e+16,1180804601808958.0,1505454539895087.8,353003908098.8352,838595545824.8782,16719052130746.838,445900097647367.9
5.199436718578522,8610010839996825.0,1.1839010931076216e+16,1203165827527407.2,1533963751989329.2,374359657363.7223,889328514878.1116,17730515883369.26,472876307507040.44
5.403425452950093,8769618388988998.0,1.2078501144974886e+16,1225469440431468.0,1562399511228292.8,396540035640.87024,942020510843.933,18781036925313.03,500894206854342.25
5.611493962009095,8928864485125361.0,1.2318628142692144e+16,1247722543791926.8,1590770873853189.8,419567578220.6209,996725071606.5182,19871682654707.973,529982264617127.25
5.823723841249277,9087796284267586.0,1.2559484543104086e+16,1269931727184843.8,1619086241175525.0,443465474592.2722,1053497289343.9258,21003551458398.91,560169776253808.5
6.040198318074262,9246457582700162.0,1.2801159411202002e+16,1292103110717856.8,1647353415962887.2,468257579075.7638,1112393835794.296,22177773215713.08,591486877190525.2
6.261002284435747,9404889097051310.0,1.3043738641715586e+16,1314242384146381.8,1675579652309805.5,493968422015.2258,1173472988857.2686,23395509828850.133,623964556968367.4
6.486222330124463,9563128712594680.0,1.3287305301755062e+16,1336354841571388.2,1703771699875267.8,520623221497.1766,1236794660442.1624,24657955778130.445,657634674053640.6
6.715946776726952,9721211704110738.0,1.3531939937937244e+16,1358445412302640.5,1731935843231542.0,548247895561.2992,1302420425486.91,25966338700586.086,692529971270694.1
6.950265712261491,9879170932852288.0,1.3777720852630698e+16,1380518688382750.2,1760077936955627.8,576869074876.2306,1370413552082.1226,27321919990586.918,728684091822496.0
7.18927102650672,1.0037037022632016e+16,1.4024724353265234e+16,1402578949193665.8,1788203437001082.5,606514115856.3702,1440839032643.429,28725995421367.164,766131595868622.0
7.433056447036854,1.0194838517611716e+16,1.4273024978079006e+16,1424630183506242.2,1816317428809859.5,637211114198.8715,1513763616082.5322,30179895786466.445,804907977634421.4
7.681717575977592,1.035260202400787e+16,1.4522695701196906e+16,1446676109282178.0,1844424652558615.2,668988918822.5775,1589255840933.7688,31684987560221.152,845049683028244.0
7.935351927497144,1.0510352337619038e+16,1.4773808119531608e+16,1468720191494776.8,1872529525879065.5,701877146192.9005,1667386069398.0532,33242673576549.086,886594127746585.6
8.194058966047088,1.0668112558823034e+16,1.5026432623659522e+16,1490765658198660.8,1900636164345948.8,735906195018.4564,1748226522270.731,34854393725356.85,929579715849241.0
8.45794014536803,1.0825904196471644e+16,1.5280638554537354e+16,1512815515048077.2,1928748399986919.8,771107261306.986,1831851314723.5117,36521625665979.12,974045858788679.4
8.72709894827539,1.0983747261924862e+16,1.5536494347681222e+16,1534872558437254.8,1956869798035800.5,807512353769.3157,1918336492913.982,38245885557117.64,1020032994879501.5
9.0016409272409,1.1141660354307848e+16,1.5794067666223174e+16,1556939387414263.0,1985003672121948.8,845154309561.3701,2007760071398.9429,40028728802809.445,1067582609195340.9
9.281673745785717,1.1299660737938896e+16,1.6053425524082046e+16,1579018414500794.0,2013153098064857.0,884066810355.2173,2100202071330.1116,41871750813995.04,1116737253881822.1
9.567307220701432,1.145776441275902e+16,1.6314634400333726e+16,1601111875534032.8,2041320926421980.0,924284398730.9227,2195744559412.7874,43776587785299.64,1167540568875243.2
9.85865336511546,1.1615986178495842e+16,1.6577760345735676e+16,1623221838632956.2,2069509793920141.0,965842494881.7672,2294471687609.806,45744917486676.75,1220037303017546.0
10.155826432417769,1.1774339693206286e+16,1.6842869082246732e+16,1645350212379073.2,2097722133885570.2,1008777413626.0084,2396469733574.5127,47778460069586.91,1274273335558967.0
10.458942961066125,1.1932837526769214e+16,1.7110026096286234e+16,1667498753291522.0,2125960185774143.8,1053126381718.7964,2501827141797.788,49878978887417.32,1330295698040381.8
10.768121820287448,1.2091491209833896e+16,1.7379296726391796e+16,1689669072667154.0,2154226003892097.2,1098927555458.4142,2610634565455.251,52048281329860.69,1388152596547906.0
11.083484256693197,1.2250311278674188e+16,1.765074624586136e+16,1711862642848476.2,2182521465387272.0,1146220038581.3855,2722984908941.528,54288219670998.62,1447893434332902.2
11.405153941827061,1.240930731634958e+16,1.7924439940900544e+16,1734080802975473.8,2210848277582335.0,1195043900441.2166,2838973371079.545,56600691930841.23,1509568834790819.5
11.733257020663602,1.2568487990529898e+16,1.8200443184741216e+16,1756324764271282.2,2239207984713719.8,1245440194465.9402,2958697488993.16,58987642750097.94,1573230664792758.8
12.067922161076874,1.2727861088305468e+16,1.847882150814684e+16,1778595614906566.8,2267601974133370.5,1297450976889.8196,3082257182632.2046,61451064277957.95,1638932058363915.8
12.409280604298411,1.2887433548269328e+16,1.875964066667819e+16,1800894324482678.2,2296031482024523.5,1351119325754.7827,3209754799939.5127,63992997072671.3,1706727440703292.2
12.75746621638438,1.3047211490129768e+16,1.904296670505397e+16,1823221748169750.2,2324497598677533.5,1406489360177.3442,3341295162649.822,66615531014731.78,1776672552539363.8
13.112615540712067,1.3207200242087068e+16,1.9328866018908224e+16,1845578630532313.5,2353001273367297.5,1463606259876.8774,3476985612710.923,69320806232469.5,1848824474816510.2
13.474867851526309,1.3367404366183724e+16,1.9617405414216548e+16,1867965609071752.5,2381543318869652.5,1522516284961.348,3616936059317.633,72111014039863.58,1923241653707257.5
13.844365208556836,1.352782768181921e+16,1.990865216463662e+16,1890383217512259.8,2410124415650792.0,1583266795966.632,3761259026549.729,74988397886398.34,1999983925945452.2
14.221252512727972,1.368847328760145e+16,2.0202674066986508e+16,1912831888854390.5,2438745115760364.5,1645906274145.7034,3910069701604.753,77955254318787.48,2079112544475745.8
14.605677562982532,1.3849343581692496e+16,2.049953949506158e+16,1935311958218131.0,2467405846456200.0,1710484342004.0305,4063485983617.4526,81013933954390.38,2160690204414768.5
14.997791114242183,1.4010440280790444e+16,2.0799317451975012e+16,1957823665495476.2,2496106913586189.0,1777051784077.7944,4221628533057.3613,84166842466164.97,2244781069319593.2
15.397746936527026,1.4171764437878512e+16,2.1102077621187484e+16,1980367157830688.2,2524848504750480.5,1845660567951.2659,4384620821696.4907,87416441578987.69,2331450797759143.0
15.805701875257567,1.4333316458860604e+16,2.140789041638099e+16,2002942491944940.5,2553630692265213.0,1916363865510.281,4552589183139.283,90765250077187.28,2420766570184381.0
16.221815912762718,1.4495096118191724e+16,2.1716827030314184e+16,2025549636320511.5,2582453435947311.5,1989216074428.3242,4725662863907.234,94215844823140.05,2512797116093168.0
16.64625223101797,1.4657102573604206e+16,2.202895948278856e+16,2048188473258662.5,2611316585738078.5,2064272839882.2869,4903974075070.709,97770861786781.2,2607612741485889.0
17.079177275638333,1.4819334380021388e+16,2.2344360667842108e+16,2070858800823915.5,2640219884182062.0,2141591076494.6982,5087658044420.93,101432997085888.19,2705285356607920.0
17.5207608211511,1.4981789502743704e+16,2.266310440027892e+16,2093560334686685.2,2669162968776329.0,2221228990499.6753,5276853069175.289,105205008037000.67,2805888503975469.5
17.97117603757412,1.514446532998537e+16,2.2985265461633756e+16,2116292709875167.2,2698145374203947.5,2303246102129.6436,5471700569209.355,109089714216845.95,2909497386681094.5
18.430599558325603,1.5307358684833918e+16,2.3310919645663972e+16,2139055482446557.2,2727166534464751.5,2387703268220.3613,5672345140809.441,113089998534147.62,3016188896975580.5
18.899211549492115,1.5470465836699418e+16,2.3640143803452468e+16,2161848131086987.2,2756225784915161.0,2474662705031.4746,5878934610939.795,117208808311699.75,3126041645123228.0
19.37719578048196,1.5633782512315804e+16,2.3973015888201956e+16,2184670058648831.0,2785322364228094.5,2564188011280.636,6091620092019.098,121449156378596.9,3239135988527298.5
19.864739696091597,1.5797303906351138e+16,2.430961499979216e+16,2207520593633399.2,2814455416283394.0,2656344191388.6235,6310556037201.033,125814122172521.94,3355554061123162.5
20.36203449001343,1.5961024691680704e+16,2.4650021429168896e+16,2230398991626504.0,2843623991998009.0,2751197678933.8203,6535900296154.521,130306852851998.42,3475379803036598.0
20.869275179813698,1.6124939029372808e+16,2.499431670262699e+16,2253304436693882.0,2872827051105153.5,2848816360314.124,6767814171339.516,134930564418529.19,3598698990504960.5
21.38666068340997,1.6289040578433084e+16,2.5342583626047664e+16,2276236042742855.5,2902063463890253.5,2949269598614.867,7006462474774.873,139688542848550.19,3725599266059523.5
21.91439389707817,1.6453322505350874e+16,2.56949063291444e+16,2299192854856361.0,2931332012891835.0,3052628257681.4326,7252013585295.524,144584145235143.5,3856170168967182.5
22.452681775019734,1.6617777493487824e+16,2.6051370309769524e+16,2322173850604880.5,2960631394574127.5,3158964726395.6343,7504639506296.493,149620800939465.78,3990503165930557.5
23.00173541052013,1.6782397752345878e+16,2.641206247833019e+16,2345177941341623.0,2989960220978297.5,3268352943155.158,7764515923962.665,154802012751861.3,4128691682045438.5
23.561770118730532,1.6947175026750252e+16,2.677707120235886e+16,2368203973485686.0,3019317021358473.5,3380868420555.767,8031822265983.2,160131358062647.62,4270831132015245.0
24.133005521105144,1.7112100605979718e+16,2.714648635128225e+16,2391250729797959.5,3048700243808392.0,3496588270276.148,8306741760751.014,165612490042577.53,4417018951622547.0
24.715665631527248,1.727716533287443e+16,2.752039934142859e+16,2414316930653856.0,3078108256884093.5,3615591228165.9336,8589461497048.218,171249138832987.66,4567354629458029.0
25.309978944157795,1.7442359612950356e+16,2.7898903181312388e+16,2437401235316944.0,3107539351227691.5,3737957679537.544,8880172484219.307,177045112745693.25,4721939738907957.0
25.91617852304095,1.7607673423546078e+16,2.828209251723206e+16,2460502243217152.0,3136991741197028.5,3863769684663.039,9179069712835.607,183004299472665.66,4880877970401592.0
26.53450209350177,1.777309632302725e+16,2.867006367921656e+16,2483618495236962.5,3166463566505503.5,3993111004477.769,9486352215854.342,189130667305590.28,5044275163920834.0
27.165192135371807,1.7938617460070662e+16,2.906291472735239e+16,2506748475008843.5,3195952893876167.0,4126067126492.784,9802223130278.104,195428266365401.3,5212239341774517.0
27.808495978079243,1.810422558305019e+16,2.9460745498523824e+16,2529890610226766.5,3225457718713884.0,4262725290918.699,10126889759320.842,201901229841922.72,5384880741640845.0
28.464665897640828,1.826990904954339e+16,2.986365765359499e+16,2553043273974692.0,3254975966799056.5,4403174517004.207,10460563635088.082,208553775243769.16,5562311849882015.0
29.133959215593645,1.8435655835977056e+16,3.0271754725063256e+16,2576204786074457.5,3284505496006082.0,4547505629592.901,10803460581780.508,215390205658687.4,5744647435135681.0
29.816638399905518,1.8601453547428296e+16,3.0685142165211644e+16,2599373414455360.0,3314044098049525.5,4695811285902.795,11155800779431.062,222414911024543.72,5932004582188558.0
30.51297116790363,1.8767289427596496e+16,3.1103927394785536e+16,2622547376547644.0,3343589500260681.0,4848186002533.271,11517808828187.875,229632369411193.2,6124502726138809.0
31.223230591261704,1.8933150368959012e+16,3.152821985222066e+16,2645724840701697.0,3373139367396977.5,5004726182705.367,11889713813155.951,237047148313506.62,6322263686853596.0
31.947695203086937,1.9099022923124372e+16,3.1958131043445396e+16,2668903927634736.5,3402691303486490.0,5165530143741.197,12271749369812.76,244663905955840.56,6525411703730402.0
32.686649107148675,1.926489331139258e+16,3.239377459228177e+16,2692082711906589.5,3432242853709322.5,5330698144789.743,12664153750014.582,252487392608292.9,6734073470770198.0
33.44038208929165,1.9430747435532876e+16,3.2835266291467588e+16,2715259223425735.0,3461791506317877.5,5500332414806.5,13067169888611.562,260522451915106.56,6948378171972517.0
34.20918973107749,1.959657088878827e+16,3.3282724154322536e+16,2738431448987078.0,3491334694597295.0,5674537180795.342,13481045470692.01,268774022235616.84,7168457517062821.0
34.993373525699035,1.9762348967111804e+16,3.3736268467079024e+16,2761597333842152.0,3520869798867450.5,5853418696321.827,13906032999477.256,277247137998188.16,7394445777563642.0
35.793240996213015,1.992806668064335e+16,3.419602184189866e+16,2784754783302822.0,3550394148527551.5,6037085270307.676,14342389864891.38,285946931067608.5,7626479823222166.0
36.60910581613728,2.0093708765429e+16,3.466210927059519e+16,2807901664379041.5,3579905024144178.0,6225647296117.151,14790378412831.193,294878632126448.75,7864699158807551.0
37.44128793246003,2.025925969538912e+16,3.51346581790834e+16,2831035807451182.5,3609399659583375.0,6419217280947.161,15250266015164.254,304047572070954.3,8109245961292618.0
38.29011369110923,2.0424703694535044e+16,3.561379848257325e+16,2854155007977255.5,3638875244187336.5,6617909875532.956,15722325140484.07,313459183422034.2,8360265117435564.0
39.15591596493141,2.059002474943752e+16,3.609966264152854e+16,2877257028235267.0,3668328924995706.5,6821841904182.893,16206833425655.135,323119001752004.44,8617904261778206.0
40.03903428423004,2.075520662194643e+16,3.659238571840828e+16,2900339599100597.5,3697757809011690.0,7031132395156.369,16704073748180.02,333032667127736.5,8882313815078516.0
40.93981496991464,2.092023286215957e+16,3.709210543520881e+16,2923400421858395.5,3727158965512720.5,7245902611399.651,17214334299425.76,343205925570940.8,9153647023196392.0
41.85861126931294,2.108508682164059e+16,3.75989622318255e+16,2946437170050507.0,3756529428405212.5,7466276081655.629,17737908658746.266,353644630536323.25,9432059996452462.0
42.7957834946992,2.1249751666880516e+16,3.811309932525008e+16,2969447491356699.5,3785866198622957.5,7692378631963.985,18275095868541.688,364354744408427.8,9717711749480972.0
43.751699164593184,2.1414210392999772e+16,3.8634662769622344e+16,2992429009509362.5,3815166246568309.0,7924338417569.469,18826200510295.633,375342340017993.06,1.0010764241599032e+16
