t(s),Total solute volume 1,Total retention volume 1,Total 1 volume 1,Total 2 volume 1,Total 3 volume 1,Total 4 volume 1,Total 5 volume 1,Total 6 volume 1
0.1,1343181032126672.5,2872917611672401.5,563076449980376.4,966660129565354.2,0.0,0.0,0.0,-1.5603494592410886e-89
0.202,1669426650506206.8,4905229063424408.0,699842293977080.0,1201452928516108.0,243816160731.56445,915240654926.4792,35802475828719.17,1297545657780631.8
0.30604000000000003,1810945218701684.0,6843195338073872.0,759168466228015.0,1303301086160067.5,534251882545.93353,2005539640228.3372,78555065993497.64,2888685709467834.0
0.41216080000000005,1889247299537830.5,8766328194633508.0,791993576804853.0,1359653563114987.8,844403495089.5609,3169871047120.6772,124227831269929.67,4597191649363686.0
0.5204040160000001,1938544084129374.8,1.070067648918879e+16,812659341880537.5,1395131495617241.8,1166859981716.228,4380410790144.0303,171720191189372.38,6377074105600402.0
0.6308120963200001,1972205634151533.8,1.2657689800903876e+16,826770641320552.6,1419357056116404.8,1498864501887.8608,5626809207348.329,220623253040156.75,8211607542565992.0
0.7434283382464002,1996528540176932.2,1.4643475389668526e+16,836967076486727.2,1436861777446600.5,1839238551858.769,6904642400379.462,270762129411127.0,1.0093611985194904e+16
0.8582969050113283,2014854647014760.8,1.6661797663493344e+16,844649586183509.6,1450050719761767.5,2187450241950.899,8211914156034.834,322057776579817.0,1.2019785569555506e+16
0.9754628431115548,2029115182498613.5,1.871525849173029e+16,850627762767586.9,1460313749856854.8,2543268794350.04,9547758800348.64,374475795021885.1,1.3988634973990648e+16
1.094972099973786,2040500373279012.8,2.080582993935343e+16,855400562594696.6,1468507450523190.5,2906617836145.3687,10911890405293.25,428004688265006.94,1.5999598356450068e+16
1.2168715419732616,2049781815760386.5,2.2935120455621136e+16,859291447529352.9,1475187124581585.2,3277506531264.5435,12304344231462.727,482645654084961.6,1.805263256290213e+16
1.3412089728127268,2057480589232027.5,2.510451874912e+16,862518859853325.9,1480727782600229.0,3655994645154.3257,13725345567239.365,538407403704609.7,2.0148002773517424e+16
1.4680331522689813,2063960677166739.8,2.7315276590669956e+16,865235385520993.6,1485391376368409.8,4042173695012.3203,15175238959635.836,595303365137052.6,2.2286168373822096e+16
1.597393815314361,2069483647973503.8,2.95685589917355e+16,867550676943709.6,1489366151560609.8,4436156257126.924,16654448070478.62,653350095975055.2,2.4467717814955e+16
1.729341691620648,2074242076277915.2,3.186547596350135e+16,869545463565167.6,1492790700376199.5,4838069647038.504,18163451950234.07,712566344792382.4,2.6693329856892416e+16
1.863928525453061,2078380733806979.0,3.420710338506227e+16,871280435317868.2,1495769212203659.2,5248052055771.553,19702770533203.043,772972477004193.9,2.89637497041406e+16
2.001207095962122,2082010455962223.0,3.659449717505797e+16,872802055646025.2,1498381453121464.2,5666250121523.427,21272955522250.73,834590113831027.6,3.1279773890853476e+16
2.1412312378813647,2085217467691478.0,3.902870320515638e+16,874146471015583.6,1500689477545362.2,6092817369639.376,22874584533651.367,897441900225105.2,3.3642240486775604e+16
2.284055862638992,2088069808166831.8,4.151076442599785e+16,875342204211266.4,1502742251943343.2,6527913193824.189,24508257274146.406,961551353221988.0,3.605202263798643e+16
2.4297369798917723,2090621851964912.2,4.404172612140979e+16,876412049666056.0,1504578908640630.0,6971702183815.668,26174593018931.953,1026942761800071.2,3.851002425413534e+16
2.578331719489608,2092917551613498.2,4.6622639877516824e+16,877374432773103.1,1506231079417118.0,7424353680175.01,27874228942493.754,1093641120522251.5,4.1017177110568184e+16
2.7298983538794,2094992803002802.0,4.9254566652038664e+16,878244401492667.4,1507724597847640.0,7886041481198.563,29607819020715.637,1161672085816650.0,4.357443890337698e+16
2.884496320956988,2096877197613703.5,5.193857920256509e+16,879034360905857.9,1509080760346409.5,8356943653750.128,31376033323291.35,1231061947731652.0,4.61827919589904e+16
3.0421862473761276,2098595338704403.0,5.467576405116624e+16,879754624974840.8,1510317273400884.8,8837242416401.684,33179557577751.4,1301837612464378.5,4.884324240162754e+16
3.2030299723236504,2100167842576836.0,5.746722310912931e+16,880413836284956.4,1511448974163660.5,9327124073768.477,35019092925833.15,1374026592521686.5,5.155681964658259e+16
3.3670905717701234,2101612109158413.0,6.031407504967371e+16,881019289081236.2,1512488385025136.5,9826778987702.533,36895355818371.69,1447657002379999.5,5.43245761292229e+16
3.5344323832055258,2102942921398001.2,6.3217456491945976e+16,881577180541917.5,1513446144987116.2,10336401575463.562,38809078011616.14,1522757558173002.0,5.714758720725883e+16
3.7051210308696363,2104172916105073.8,6.617852304255455e+16,882092808159507.9,1514331348516580.0,10856190327965.135,40761006639060.766,1599357580379089.2,6.0026951192427256e+16
3.879223451487029,2105312957177296.2,6.919845022888992e+16,882570726201971.8,1515151814150302.8,11386347843214.81,42751904340466.484,1677486998781259.8,6.296378948039547e+16
4.0568079205167695,2106372433954026.0,7.227843434989096e+16,883014870785874.9,1515914299214075.5,11927080871457.658,44782549434974.55,1757176359179226.5,6.595924675645139e+16
4.237944078927105,2107359501591021.0,7.541969326370635e+16,883428660644151.8,1516624672815701.0,12478600369502.658,46853736128851.14,1838456831477877.8,6.901449126067925e+16
4.422702960505647,2108281276142227.2,7.862346712714882e+16,883815078906587.1,1517288056241553.2,13041121562395.473,48966274750975.805,1921360218878225.8,7.213071510066677e+16
4.61115701971576,2109143993966850.0,8.189101909847141e+16,884176739925049.2,1517908937678763.0,13614864011089.57,51120992011015.93,2005918967969718.2,7.530913460290902e+16
4.803380160110075,2109953142820677.5,8.522363601247546e+16,884515944228443.2,1518491266559094.2,14200051685119.105,53318731276553.29,2092166179575255.2,7.855099069633038e+16
4.9994477633122765,2110713570310021.2,8.862262903505389e+16,884834723987822.2,1519038531611137.2,14796913039533.89,55560352866391.78,2180135620238561.8,8.185754932300024e+16
5.199436718578522,2111429574125049.2,9.208933430282882e+16,885134880843213.9,1519553825799472.2,15405681095544.582,57846734357979.84,2269861734271547.0,8.523010187233597e+16
5.403425452950093,2112104977513733.8,9.562511355242587e+16,885418017543146.0,1520039900641832.5,16026593524465.914,60178770907409.914,2361379656300288.0,8.866996563599502e+16
5.611493962009095,2112743192728177.2,9.923135474306434e+16,885685564542059.1,1520499211870171.2,16659892734649.879,62557375580843.01,2454725224263680.5,9.21784842813447e+16
5.823723841249277,2113347274613625.5,1.0290947267547398e+17,885938802465421.6,1520933957997642.0,17305825961179.809,64983479696507.79,2549934992830700.0,9.575702834190883e+16
6.040198318074262,2113919966075427.0,1.0666090960961902e+17,886178881169997.0,1521346113040298.5,17964645358155.12,67458033176643.18,2647046247211023.5,9.940699572358754e+16
6.261002284435747,2114463736819625.0,1.1048713588329478e+17,886406835984324.5,1521737454397923.5,18636608093442.562,69982004908926.47,2746097017340622.5,1.0312981222574984e+17
6.486222330124463,2114980816496033.5,1.1438965053332909e+17,886623601602675.0,1522109586706485.5,19321976445804.62,72556383117060.83,2847126092429271.5,1.069269320765318e+17
6.715946776726952,2115473223161886.0,1.1836998192086154e+17,886830024017333.0,1522463962322851.8,20021017904342.95,75182175740298.66,2950173035860799.0,1.1079983848185406e+17
6.950265712261491,2115942787816397.0,1.2242968836195358e+17,887026870803758.1,1522801898981859.2,20734005270216.05,77860410821756.27,3055278200440343.5,1.1475004418781934e+17
7.18927102650672,2116391175622600.5,1.265703587646197e+17,887214840017017.9,1523124595069240.2,21461216760606.47,80592136905438.11,3162482743985202.5,1.1877909205625963e+17
7.433056447036854,2116819904324986.5,1.307936132732248e+17,887394567912669.2,1523433142876451.8,22202936114926.984,83378423441943.08,3271828645257940.5,1.228885556532959e+17
7.681717575977592,2117230360284492.0,1.3510110392108557e+17,887566635668810.5,1523728540140746.8,22959452703264.82,86220361202855.92,3383358720241992.5,1.2708003985084325e+17
7.935351927497144,2117623812481638.0,1.394945152920172e+17,887731575256344.1,1524011700122952.0,23731061637071.773,89119062703870.8,3497116638761318.0,1.3135518144105405e+17
8.194058966047088,2118001424780983.8,1.4397556519149642e+17,887889874580384.0,1524283460433971.5,24518063882115.28,92075662636709.28,3613146941446603.5,1.3571564976373563e+17
8.45794014536803,2118364266702871.0,1.4854600532804634e+17,888041981995885.1,1524544590786997.2,25320766373710.27,95091318309925.69,3731495057051583.0,1.4016314734682544e+17
8.72709894827539,2118713322909524.0,1.5320762200540246e+17,888188310284326.1,1524795799824465.5,26139482134257.266,98167210098703.4,3852207320123487.0,1.446994105600277e+17
9.0016409272409,2119049501580480.5,1.5796223682597347e+17,888329240164782.9,1525037741145700.8,26974530393114.99,101304541903763.6,3975330989032461.5,1.4932621028175312e+17
9.281673745785717,2119373641825754.5,1.6281170740608192e+17,888465123401613.2,1525271018642021.2,27826236708840.02,104504541619524.94,4100914264365179.5,1.54045352579519e+17
9.567307220701432,2119686520262911.8,1.6775792810343523e+17,888596285561632.4,1525496191230138.2,28694933093828.0,107768461611653.55,4229006307688342.0,1.5885867940398678e+17
9.85865336511546,2119988856865747.5,1.7280283075726285e+17,888723028465957.2,1525713777061333.0,29580958141393.57,111097579204162.12,4359657260688167.0,1.6376806929683635e+17
10.155826432417769,2120281320176782.8,1.779483854415322e+17,888845632375127.4,1525924257272783.8,30484657155328.574,114493197176220.8,4492918264692284.0,1.687754381126836e+17
10.458942961066125,2120564531962630.2,1.8319660123163603e+17,888964357940704.9,1526128079337956.5,31406382281979.324,117956644268849.31,4628841480580728.0,1.738827397552633e+17
10.768121820287448,2120839071380428.0,1.8854952698495062e+17,889079447951874.5,1526325660065094.5,32346492644886.17,121489275701669.48,4767480109093048.0,1.7909196692811357e+17
11.083484256693197,2121105478714041.8,1.9400925213562627e+17,889191128901710.1,1526517388286096.0,33305354482028.816,125092473699902.02,4908888411538832.0,1.8440515190000368e+17
11.405153941827061,2121364258730956.8,1.9957790750399344e+17,889299612394417.9,1526703627272404.5,34283341285724.332,128767648031796.03,5053121730918998.0,1.8982436728535914e+17
11.733257020663602,2121615883703987.0,2.052576661209391e+17,889405096412074.6,1526884716909673.0,35280833945223.62,132516236556689.73,5200236513465737.0,1.9535172683994576e+17
12.067922161076874,2121860796136165.8,2.1105074406762157e+17,889507766456928.5,1527060975658818.2,36298220892054.945,136339705783899.56,5350290330608864.0,2.0098938627208474e+17
12.409280604298411,2122099411222284.2,2.1695940133087338e+17,889607796583305.8,1527232702327535.2,37335898248164.41,140239551442647.6,5503341901376862.0,2.0673954406967248e+17
12.75746621638438,2122332119076313.0,2.229859426746552e+17,889705350331373.5,1527400177673346.2,38394269976902.72,144217299063234.4,5659451115240776.0,2.1260444234329328e+17
13.112615540712067,2122559286750300.2,2.2913271852791267e+17,889800581573475.5,1527563665856536.0,39473748036910.49,148274504569676.75,5818679055409663.0,2.185863676857163e+17
13.474867851526309,2122781260067177.2,2.354021258891916e+17,889893635282475.5,1527723415759211.2,40574752538954.555,152412754884026.62,5981088022586114.0,2.2468765204807347e+17
13.844365208556836,2122998365287274.2,2.4179660924836893e+17,889984648230373.1,1527879662184654.0,41697711905768.625,156633668542603.0,6146741559190947.0,2.3091067363302723e+17
14.221252512727972,2123210910625882.0,2.4831866152585872e+17,890073749624484.5,1528032626949468.0,42843063034952.695,160938896324358.66,6315704474065987.0,2.3725785780523357e+17
14.605677562982532,2123419187637262.5,2.5497082502965146e+17,890161061687636.1,1528182519879643.0,44011251464987.45,165330121891624.9,6488042867664358.0,2.4373167801942614e+17
14.997791114242183,2123623472478658.8,2.617556924305516e+17,890246700188049.5,1528329539720225.5,45202731544419.05,169809062443467.47,6663824157737648.0,2.5033465676643917e+17
15.397746936527026,2123824027066372.5,2.686759077559772e+17,890330774923983.2,1528473874967331.2,46417966604273.04,174377469381900.25,6843117105529658.0,2.570693665375037e+17
15.805701875257567,2124021100134547.0,2.7573416740269398e+17,890413390167587.4,1528615704630129.5,47657429133754.87,179037128991209.0,7025991842486598.0,2.6393843080715008e+17
16.221815912762718,2124214928206190.5,2.829332211688556e+17,890494645071968.0,1528755198929668.0,48921600959296.83,183789863130632.06,7212519897493744.0,2.709445250350641e+17
16.64625223101797,2124405736484877.2,2.902758733057278e+17,890574634044994.8,1528892519940621.2,50210973427011.93,188637529940664.7,7402774224648810.0,2.7809037768724067e+17
17.079177275638333,2124593739674680.8,2.977649835894793e+17,890653447093028.4,1529027822181364.5,51526047588616.305,193582024563244.66,7596829231582441.0,2.8537877127679562e+17
17.5207608211511,2124779142735055.8,3.0540346841342605e+17,890731170137379.5,1529161253157267.0,52867334390881.44,198625279876091.22,7794760808336575.0,2.928125434247926e+17
17.97117603757412,2124962141576755.2,3.131943019011215e+17,890807885306034.6,1529292953861514.5,54235354868680.88,203769267241470.28,7996646356811347.0,3.00394587941456e+17
18.430599558325603,2125142923704117.0,3.211405170406853e+17,890883671202924.0,1529423059237360.5,55630640341695.53,209015997269665.0,8202564820791663.0,3.081278559281378e+17
18.899211549492115,2125321668808636.8,3.2924520684078074e+17,890958603156738.8,1529551698605301.8,57053732614841.65,214367520597436.28,8412596716564851.0,3.160153569004328e+17
19.37719578048196,2125498549318125.2,3.375115255086402e+17,891032753451157.1,1529678996058304.0,58505184182489.59,219825928681760.94,8626824164140492.0,3.24060159932808e+17
19.864739696091597,2125673730905454.5,3.4594268965056096e+17,891106191538110.8,1529805070827929.5,59985558436539.55,225393354609146.16,8845330919084529.0,3.3226539482515936e+17
20.36203449001343,2125847372960339.8,3.545419794952811e+17,891178984235556.9,1529930037623878.8,61495429878422.5,231071973920815.38,9068202404979230.0,3.4063425329168294e+17
20.869275179813698,2126019629027418.8,3.633127401406707e+17,891251195911135.1,1530054006949250.0,63035384335097.375,236864005454077.66,9295525746521336.0,3.4916999017247245e+17
21.38666068340997,2126190647213481.5,3.7225838282415936e+17,891322888652873.8,1530177085393635.2,64606019179111.83,242771712200185.6,9527389803270584.0,3.578759246682496e+17
21.91439389707817,2126360570566455.5,3.813823862173521e+17,891394122428074.6,1530299375905862.2,66207943552801.305,248797402179003.78,9763885204061374.0,3.667554415986584e+17
22.452681775019734,2126529537428544.0,3.9068829774526304e+17,891464955231339.0,1530420978048126.8,67841778596696.28,254943429330809.62,1.0005104382090298e+16,3.758119926845372e+17
23.00173541052013,2126697681765608.5,4.001797349306267e+17,891535443222666.0,1530541988233070.8,69508157682212.52,261212194425553.94,1.025114161069229e+16,3.8504909785460544e+17
23.561770118730532,2126865133474803.0,4.098603867637438e+17,891605640856396.4,1530662499945147.0,71207726648698.56,267606145989918.38,1.0502093039819428e+16,3.944703465770093e+17
24.133005521105144,2127032018672177.8,4.197340150983232e+17,891675601001799.0,1530782603947634.5,72941144044915.72,274127781252510.12,1.0758056733235068e+16,4.040793992161689e+17
24.715665631527248,2127198459961895.0,4.298044560737905e+17,891745375055913.4,1530902388476363.8,74709081375027.28,280779647107538.16,1.1019132706437744e+16,4.138799884153766e+17
25.309978944157795,2127364576688512.2,4.400756215645481e+17,891815013049319.2,1531021939421297.2,76512223349174.39,287564341097331.4,1.1285422965328464e+16,4.238759205056143e+17
25.91617852304095,2127530485173679.5,4.505515006566616e+17,891884563745358.1,1531141340496866.2,78351268138718.19,294484512414052.44,1.155703154563596e+16,4.340710769410566e+17
26.53450209350177,2127696298938471.2,4.6123616115247174e+17,891954074733338.0,1531260673401972.0,80226927636226.3,301542862920972.4,1.1834064553114308e+16,4.444694157617264e+17
27.165192135371807,2127862128912450.8,4.7213375110363296e+17,892023592516177.6,1531380017970466.0,82139927720286.08,308742148193690.06,1.211663020452781e+16,4.550749730837916e+17
27.808495978079243,2128028083630537.5,4.8324850037307616e+17,892093162592931.9,1531499452312813.5,84091008525225.11,316085178581660.1,1.2404838869438148e+16,4.6589186461799526e+17
28.464665897640828,2128194269418552.8,4.945847222264226e+17,892162829536581.1,1531619052949636.2,86080924715822.98,323574820290430.2,1.2698803112809274e+16,4.769242872167027e+17
29.133959215593645,2128360790568366.8,5.0614681495335315e+17,892232637067444.6,1531738894937754.8,88110445767097.31,331213996484971.9,1.299863773844571e+16,4.881765204500816e+17
29.816638399905518,2128527749503380.8,5.179392635194821e+17,892302628122561.8,1531859051989291.8,90180356249249.89,339005688414509.75,1.3304459833279986e+16,4.996529282119231e+17
30.51297116790363,2128695246935096.8,5.299666412492553e+17,892372844921325.2,1531979596584349.8,92291456117857.33,346952936559254.3,1.3616388812525752e+16,5.113579603556116e+17
31.223230591261704,2128863382011452.2,5.422336115404236e+17,892443329027662.2,1532100600077758.0,94444561009395.81,355058841799456.6,1.3934546465712714e+16,5.2329615436078534e+17
31.947695203086937,2129032252457490.5,5.54744929610645e+17,892514121409005.6,1532222132800319.0,96640502542185.47,363326566607201.7,1.4259057003620568e+16,5.354721370312082e+17
32.686649107148675,2129201954708992.5,5.675054442767691e+17,892585262492316.0,1532344264154973.2,98880128622845.55,371759336261373.9,1.4590047106128706e+16,5.4789062622439936e+17
33.44038208929165,2129372584039525.2,5.805200997673718e+17,892656792217343.1,1532467062708239.2,101164303758347.61,380360440086233.0,1.4927645970999444e+16,5.6055643261356314e+17
34.20918973107749,2129544234681445.2,5.937939375691259e+17,892728750087345.5,1532590596277301.0,103493909373762.78,389133232714038.6,1.5271985363612182e+16,5.734744614823806e+17
34.993373525699035,2129716999941276.5,6.073320983075688e+17,892801175217463.0,1532714932013026.5,105869844135789.4,398081135372184.5,1.5623199667666742e+16,5.866497145532219e+17
35.793240996213015,2129890972309858.5,6.211398236628736e+17,892874106380895.0,1532840136479260.5,108293024282157.95,407207637195296.3,1.5981425936874284e+16,6.000872918493516e+17
36.60910581613728,2130066243567687.5,6.352224583212234e+17,892947582053049.5,1532966275728620.0,110764383957007.16,416516296562763.9,1.6346803947654264e+16,6.137923935917004e+17
37.44128793246003,2130242904885758.5,6.495854519623804e+17,893021640453832.4,1533093415375075.2,113284875552324.03,426010742462185.1,1.6719476252856636e+16,6.277703221307946e+17
38.29011369110923,2130421046922272.2,6.642343612840751e+17,893096319588176.5,1533221620663551.0,115855470055546.23,435694675879204.9,1.7099588236528732e+16,6.420264839144381e+17
39.15591596493141,2130600759915483.2,6.791748520638278e+17,893171657284967.2,1533350956536739.5,118477157403422.0,445571871214243.25,1.7487288169746248e+16,6.565663914917265e+17
40.03903428423004,2130782133773002.2,6.944127012588466e+17,893247691234483.9,1533481487699376.0,121150946842226.92,455646177726613.2,1.7882727267528666e+16,6.713956655540412e+17
40.93981496991464,2130965258157776.0,7.099537991446164e+17,893324459024437.1,1533613278680117.5,123877867294434.61,465921521006537.7,1.828605974685923e+16,6.865200370135937e+17
41.85861126931294,2131150222571024.2,7.258041514928472e+17,893401998174739.9,1533746393891221.0,126658967731942.22,476401904475590.2,1.8697442885830508e+16,7.019453491201729e+17
