t(s),Total solute volume 1,Total retention volume 1,Total 1 volume 1,Total 2 volume 1,Total 3 volume 1,Total 4 volume 1,Total 5 volume 1,Total 6 volume 1
0.1,1012905215437994.5,1251976985692815.0,109237715628389.53,129834054626431.92,0.0,0.0,0.0,0.0
0.202,1524584779057605.8,1886890315304421.8,164420279981186.56,195421075032293.06,2719442236.660279,5799212731.166974,98346930567.7194,2357315647799.2354
0.30604000000000003,1913477527447152.0,2371355254089076.0,206360784410749.97,245269296328480.75,6894375795.561208,14702274193.03542,249333055366.4078,5976716197337.307
0.41216080000000005,2241668966165449.2,2781849758608785.0,241754898948133.6,287336831622829.0,12236625634.451115,26094652780.081818,442535710100.5899,10608194883863.35
0.5204040160000001,2532438883538690.0,3147031127153770.0,273113254295224.75,324607681218099.2,18616981799.30191,39700811477.687485,673281959348.2416,16139708349134.15
0.6308120963200001,2797390805607216.0,3481177797204594.5,301687243642011.8,358569183574490.44,25965031021.630436,55370597357.72397,939025329538.9219,22510203422959.188
0.7434283382464002,3043269661239137.5,3792589222710752.5,328204280190857.5,390085902791308.9,34239450571.124195,73015893169.73247,1238271429566.6104,29683851716139.28
0.8582969050113283,3274395820217603.5,4086583334166559.5,353130298287070.9,419711623299677.0,43415791853.81322,92584565884.0762,1570136132280.7468,37639455872192.5
0.9754628431115548,3493728746218818.0,4366805779130570.5,376784464075882.94,447825688763940.1,53480454397.01925,114047616239.82187,1934127639815.3384,46365224361476.3
1.094972099973786,3703398063320876.5,4635883304725052.0,399396448870052.75,474701074117664.56,64427343497.43376,137392051202.31561,2330025606034.831,55855873415716.63
1.2168715419732616,3904995190589716.5,4895782401339192.0,421137880756291.6,500541767246742.9,76255857564.74226,162616591994.37527,2757808348306.768,66110881948578.195
1.3412089728127268,4099745394147052.0,5148020796197013.0,442140899712468.9,525504822600896.5,88969600267.52614,189728927766.8363,3217606272128.4834,77133374936441.94
1.4680331522689813,4288615142583986.5,5393799364970908.0,462509735453226.1,549714121996493.94,102575517213.63023,218743874587.91953,3709670649226.668,88929374896172.16
1.597393815314361,4472382183552480.5,5634088204229294.0,482328264905931.8,573269357024818.1,117083295687.38289,249682095400.86075,4234351909207.355,101507281445778.78
1.729341691620648,4651683015415615.0,5869684918180422.0,501665131835481.94,596252113961950.1,132504934948.95265,282569183705.1446,4792084099645.055,114877498749080.1
1.863928525453061,4827046060802231.0,6101255336650580.0,520577324477513.1,618730125950627.0,148854431337.26752,317434992056.42505,5383373498082.307,129052162498743.38
2.001207095962122,4998915469185941.0,6329362722564513.0,539112742549939.0,640760324011681.8,166147543112.16794,354313130610.6375,6008790107827.528,144044936035401.4
2.1412312378813647,5167668588533763.0,6554489205792723.0,557312081499334.5,662391076557658.6,184401612186.3988,393240586986.1004,6668961211197.776,159870855791589.78
2.284055862638992,5333629046226472.0,6777051827594651.0,575210243225100.0,683663866103451.5,203635427398.39987,434257434711.92377,7364566425104.869,176546212752421.06
2.4297369798917723,5497076714342922.0,6997414762111061.0,592837410794934.2,704614566615150.0,223869118740.79208,477406607690.04913,8096333876173.683,194088460755437.66
2.578331719489608,5658255419076807.0,7215898770831818.0,610219879874124.6,725274431702036.9,245124075075.4337,522733724743.1245,8865037225270.682,212516145153762.84
2.7298983538794,5817378987298298.0,7432788618144475.0,627380710822693.8,745670869664082.2,267422879957.03598,570286952779.68,9671493346947.227,231848847179709.62
2.884496320956988,5974636047617162.0,7648338960252996.0,644340246470558.1,765828058891562.9,290789261622.8701,620116900169.352,10516560521218.514,252107140590694.0
3.0421862473761276,6130193885032371.0,7862779074482647.0,661116527825838.5,785767441953551.2,315248054211.70935,672276534065.368,11401137031466.791,273312558051143.94
3.2030299723236504,6284201567017298.0,8076316696226019.0,677725631210478.2,805508126299095.2,340825167992.3923,726821116941.0718,12326160088198.053,295487565326006.56
3.3670905717701234,6436792502075430.0,8289141161033184.0,694181944190069.4,825067212212559.2,367547566902.4531,783808158716.1755,13292605017187.682,318655541812314.7
3.5344323832055258,6588086551412975.0,8501425999774813.0,710498393309181.0,844460063487525.9,395443252079.8395,843297381664.4357,14301484664387.889,342840766267009.2
3.7051210308696363,6738191785232676.0,8713331099044688.0,726686633500527.1,863700532548321.8,424541250356.1023,905350695902.7908,15353848980288.977,368068406836590.9
3.879223451487029,6887205953836160.0,8925004512814989.0,742757206737366.4,882801149015707.8,454871606894.78925,970032183721.4343,16450784754216.137,394364514680930.06
4.0568079205167695,7035217727932072.0,9136583991991030.0,758719675795717.2,901773278689426.8,486465381323.2727,1037408091364.9093,17593415474989.832,421756020626130.8
4.237944078927105,7182307750717571.0,9348198284002764.0,774582737717064.1,920627258403851.1,519354646833.0538,1107546827144.8389,18782901298967.484,450270734391340.3
4.422702960505647,7328549535338384.0,9559968243585364.0,790354320595786.8,939372511064310.5,553572491822.3934,1180518964975.6218,20020439110054.582,479937346020035.0
4.61115701971576,7474010234480329.0,9772007787499056.0,806041666576480.4,958017644293225.6,589153023732.7416,1256397252589.89,21307262659083.14,510785429213627.3
4.803380160110075,7618751303552691.0,9984424719454500.0,821651403375595.5,976570535436863.5,626131374791.9574,1335256623821.7483,22644642772177.105,542845446318549.7
4.9994477633122765,7762829074803758.0,1.0197321446460526e+16,837189606197457.4,995038405155389.8,664543709426.3464,1417174214450.4368,24033887619502.05,576148754760544.9
5.199436718578522,7906295256474530.0,1.0410795603850474e+16,852661851565981.9,1013427881404334.8,704427233143.0704,1502229381181.2715,25476343037222.55,610727614754075.6
5.403425452950093,8049197368538305.0,1.0624940603108648e+16,868073264317408.4,1031745055287621.1,745820202716.4003,1590503723408.792,26973392896645.035,646615198142525.4
5.611493962009095,8191579124535892.0,1.0839846114124578e+16,883428558779687.2,1049995530001168.2,788761937537.304,1682081107462.619,28526459515468.56,683845598247365.9
5.823723841249277,8333480767382434.0,1.105559849150173e+16,898732074987872.2,1068184463876549.0,833292832007.1709,1777047693081.8958,30137004106831.48,722453840622962.2
6.040198318074262,8474939365702958.0,1.1272281152933126e+16,913987810642721.2,1086316608365254.2,879454368874.0668,1875491961901.6624,31806527262483.355,762475894628935.2
6.261002284435747,8615989076183731.0,1.1489974916347502e+16,929199449404210.1,1104396341666849.5,927289133424.4037,1977504747765.6094,33536569466931.51,803948685744577.8
6.486222330124463,8756661376552379.0,1.170875830145958e+16,944370386017503.1,1122427698592334.6,976840828455.0725,2083179268705.3086,35328711639853.91,846910108560353.1
6.715946776726952,8896985273082912.0,1.1928707800481646e+16,959503748691525.5,1140414397162115.0,1028154289961.1696,2192611160447.8208,37184575704433.84,891399040390230.0
6.950265712261491,9036987485930574.0,1.2149898122029766e+16,974602419086559.0,1158359862362188.2,1081275503482.9535,2305898511331.493,39105825179580.67,937455355456043.4
7.18927102650672,9176692615110574.0,1.2372402411659394e+16,989669050214410.9,1176267247419297.5,1136251621062.881,2423141898525.286,41094165794259.81,985119939601249.4
7.433056447036854,9316123289527624.0,1.2596292451965034e+16,1004706082510603.2,1194139452903490.2,1193130978769.6292,2544444425459.8027,43151346122375.19,1034434705496728.6
7.681717575977592,9455300301121232.0,1.2821638844763294e+16,1019715758301428.9,1211979143922857.8,1251963114751.1626,2669911760389.2744,45279158236836.77,1085442608305810.4
7.935351927497144,9594242725905422.0,1.3048511177526248e+16,1034700134857577.4,1229788765638394.8,1312798787783.41,2799652176013.2754,47479438381601.77,1138187661779470.8
8.194058966047088,9732968033440266.0,1.327697817593955e+16,1049661096200200.2,1247570557296044.5,1375689996284.8245,2933776590094.8667,49754067660621.43,1192714954756020.2
8.45794014536803,9871492186067796.0,1.3507107844207574e+16,1064600363803105.1,1265326564946734.5,1440689997770.481,3072398607019.186,52104972742736.67,1249070668042413.5
8.72709894827539,1.0009829729071704e+16,1.3738967594518202e+16,1079519506316101.2,1283058653003044.8,1507853328722.0466,3215634560242.1763,54534126581678.22,1307302091656713.0
9.0016409272409,1.0147993872772084e+16,1.3972624366897202e+16,1094419948418603.9,1300768514762095.0,1577235824852.7078,3363603555584.714,57043549150405.664,1367457642413545.5
9.281673745785717,1.028599656744022e+16,1.4208144740529492e+16,1109302978898869.0,1318457682008117.8,1648894641747.9138,3516427515331.932,59635308189107.15,1429586881836076.5
9.567307220701432,1.04238485718096e+16,1.444559503749146e+16,1124169758042639.1,1336127533794188.0,1722888275865.1155,3674231223101.5576,62311519966246.26,1493740534379826.0
9.85865336511546,1.0561559515866364e+16,1.4685041419724352e+16,1139021324404848.0,1353779304490698.8,1799276585877.0732,3837142369448.741,65074350052102.78,1559970505955006.0
10.155826432417769,1.0699137958521802e+16,1.4926549979981268e+16,1153858601029339.8,1371414091177806.2,1878120814344.8972,4005291598178.0747,67926014104312.2,1628329902735509.0
10.458942961066125,1.083659144069931e+16,1.5170186827395162e+16,1168682401174100.5,1389032860450112.8,1959483609708.4092,4178812553336.2817,70868778664955.81,1698873050243626.0
10.768121820287448,1.097392653430845e+16,1.5416018168240612e+16,1183493433592915.2,1406636454694153.5,2043429048582.4985,4357841926861.8364,73904961968794.31,1771655512700882.0
11.083484256693197,1.111114888752541e+16,1.5664110382400114e+16,1198292307418663.0,1424225597892446.8,2130022658349.3845,4542519506869.981,77036934762285.02,1846734112636107.2
11.405153941827061,1.1248263266753774e+16,1.591453009598709e+16,1213079536688638.0,1441800901002014.0,2219331440037.618,4732988226553.927,80267121133053.39,1924166950742984.8
11.733257020663602,1.138527359559901e+16,1.616734425053147e+16,1227855544547760.8,1459362866950119.8,2311423891479.6694,4929394213684.886,83597999349528.92,2004013425979884.8
12.067922161076874,1.152218299115441e+16,1.6422620169089456e+16,1242620667161916.8,1476911895285417.5,2406370030740.8237,5131886840695.753,87032102710480.52,2086334255905779.5
12.409280604298411,1.1658993797866614e+16,1.6680425619601592e+16,1257375157370152.8,1494448286518794.5,2504241419812.9053,5340618775334.685,90572020404230.67,2171191497246650.2
12.75746621638438,1.1795707619219592e+16,1.6940828875791256e+16,1272119188101712.2,1511972246184654.5,2605111188567.1753,5555746031876.958,94220398377336.16,2258648566687510.5
13.112615540712067,1.1932325347453382e+16,1.7203898775864994e+16,1286852855581083.2,1529483888650252.8,2709054058961.5747,5777428022884.685,97979940212574.22,2348770261885858.0
13.474867851526309,1.206884719151223e+16,1.7469704779252368e+16,1301576182342057.8,1546983240698061.2,2816146369498.119,6005827611505.952,101853408016079.02,2441622782702940.0
13.844365208556836,1.2205272703396654e+16,1.7738317021597744e+16,1316289120069713.5,1564470244903611.5,2926466099926.9863,6241111164306.276,105843623313515.62,2537273752650011.5
14.221252512727972,1.2341600803078878e+16,1.8009806368198734e+16,1330991552287450.2,1581944762829118.8,3040092896194.8364,6483448604626.917,109953467955196.66,2635792240547262.5
14.605677562982532,1.2477829802124758e+16,1.828424446606635e+16,1345683296904508.5,1599406578051353.0,3157108095635.0483,6733013466466.013,114185885030074.19,2737248782393566.5
14.997791114242183,1.2613957426152068e+16,1.8561703794766584e+16,1360364108637999.5,1616855399040329.8,3277594752398.8657,6989982948880.275,118543879788567.14,2841715403446311.0
15.397746936527026,1.2749980836243598e+16,1.8842257716188716e+16,1375033681322237.0,1634290861904056.8,3401637663126.8613,7254537970906.278,123030520574207.84,2949265640510594.0
15.805701875257567,1.2885896649421796e+16,1.912598052337364e+16,1389691650116826.2,1651712533012956.0,3529323392860.8594,7526863227001.725,127648939764120.94,3059974564438069.5
16.221815912762718,1.302170095828295e+16,1.941294748852269e+16,1404337593624153.0,1669119911516557.8,3660740301197.146,7807147243009.544,132402334718372.94,3173918802836398.0
16.64625223101797,1.3157389349878892e+16,1.9703234910298452e+16,1418971035925669.2,1686512431763790.0,3795978568682.7544,8095582432647.994,137293968738255.38,3291176562990525.5
17.079177275638333,1.3292956923927546e+16,1.9996920160520256e+16,1433591448545848.0,1703889465637167.5,3935130223457.232,8392365154532.53,142327172033595.7,3411827654998093.0
17.5207608211511,1.3428398310425608e+16,2.029408173034651e+16,1448198252351644.0,1721250324810413.2,4078289168142.8867,8697695769736.588,147505342699217.84,3535953515121775.0
17.97117603757412,1.3563707686730276e+16,2.059479927603244e+16,1462790819394669.2,1738594262937965.0,4225551206987.6753,9011778699899.992,152831947700697.72,3663637229361940.5
18.430599558325603,1.369887879417113e+16,2.089915366434069e+16,1477368474702723.8,1755920477784308.0,4377014073265.3413,9334822485895.244,158310523869600.16,3794963557253805.0
18.899211549492115,1.383390495424763e+16,2.1207227017680892e+16,1491930498026640.0,1773228113300145.5,4532777456938.518,9667039847064.502,163944678908392.75,3930018955894109.0
19.37719578048196,1.3968779084462956e+16,2.1519102759044544e+16,1506476125547902.5,1790516261652007.5,4692943032591.075,10008647741040.781,169738092405292.28,4068891604202773.0
19.864739696091597,1.4103493713840044e+16,2.1834865656800136e+16,1521004551551950.0,1807783965211063.0,4857614487637.097,10359867424169.65,175694516859298.72,4211671427425972.0
20.36203449001343,1.4238040998161564e+16,2.2154601869406704e+16,1535514930071792.5,1825030218506588.2,5026897550814.608,10720924512549.133,181817778715730.25,4358450121887704.0
20.869275179813698,1.4372412734971656e+16,2.2478398990101532e+16,1550006376505861.5,1842253970148896.8,5200900020973.068,11092049043707.266,188111779412584.72,4509321179997858.0
21.38666068340997,1.450660037837397e+16,2.280634609161263e+16,1564477969213940.8,1859454124726153.5,5379731796164.583,11473475538939.48,194580496438106.75,4664379915525346.0
21.91439389707817,1.4640595053656616e+16,2.3138533770945056e+16,1578928751094363.2,1876629544678966.5,5563504903049.783,11865443066329.021,201227984399948.44,4823723489145830.0
22.452681775019734,1.4774387571771884e+16,2.347505419428586e+16,1593357731145645.8,1893779052156449.0,5752333526630.073,12268195304476.305,208058376106372.84,4987450934274384.0
23.00173541052013,1.4907968443695896e+16,2.381600114206924e+16,1607763886015079.2,1910901430856775.5,5946334040319.15,12681980606964.957,215075883659965.16,5155663183194241.0
23.561770118730532,1.5041327894689884e+16,2.416147005424373e+16,1622146161536767.5,1927995427855238.2,6145625036367.477,13107052067594.27,222284799564354.25,5328463093493509.0
24.133005521105144,1.5174455878483364e+16,2.4511558075777284e+16,1636503474261227.0,1945059755422238.0,6350327356654.38,13543667586409.982,229689497844496.0,5505955474822878.0
24.715665631527248,1.530734209139623e+16,2.486636410243731e+16,1650834712978366.2,1962093092833419.2,6560564123863.547,13992089936567.805,237294435181086.5,5688247115987780.0
25.309978944157795,1.5439975986414374e+16,2.522598882687855e+16,1665138740235542.0,1979094088173920.8,6776460773058.803,14452586832065.326,245104152059733.2,5875446812389856.0
25.91617852304095,1.5572346787232716e+16,2.5590534785071492e+16,1679414393851986.5,1996061360138391.0,6998145083677.415,14925430996381.229,253123273935520.4,6067665393832796.0
26.53450209350177,1.5704443502275772e+16,2.596010640310177e+16,1693660488430902.2,2012993499828137.8,7225747211960.248,15410900232062.041,261356512413667.4,6265015752709283.0
27.165192135371807,1.583625493870521e+16,2.6334810044369972e+16,1707875816870113.2,2029889072546632.0,7459399723838.022,15909277491299.21,269808666447004.5,6467612872585865.0
27.808495978079243,1.5967769716421762e+16,2.671475405721908e+16,1722059151872094.2,2046746619594244.5,7699237628294.615,16420850947541.643,278484623551021.8,6675573857204125.0
28.464665897640828,1.6098976282066722e+16,2.7100048823017308e+16,1736209247454015.2,2063564660062998.5,7945398411229.309,16945914068190.312,287389361037300.94,6889017959916819.0
29.133959215593645,1.622986292302787e+16,2.7490806804721252e+16,1750324840458184.0,2080341692631791.2,8198022069840.213,17484765688424.621,296527947266152.3,7108066613578955.0
29.816638399905518,1.6360417781451272e+16,2.78871425959445e+16,1764404652063185.0,2097076197362468.2,8457251147553.291,18037710086211.633,305905542919341.75,7332843460914456.0
30.51297116790363,1.6490628868260916e+16,2.8289172970555384e+16,1778447389295834.0,2113766637496850.8,8723230769521.103,18605057058551.64,315527402293806.0,7563474385379955.0
31.223230591261704,1.662048407718584e+16,2.8697016932827388e+16,1792451746543946.2,2130411461254715.5,8996108678717.156,19187121999015.46,325398874617300.06,7800087542547825.0
31.947695203086937,1.6749971198792778e+16,2.9110795768163264e+16,1806416407069692.2,2147009103632507.0,9276035272652.596,19784225976631.715,335525405386960.2,8042813392032020.0
32.686649107148675,1.687907793452198e+16,2.953063309441688e+16,1820340044523327.8,2163557988202445.0,9563163640742.494,20396695816182.55,345912537731787.75,8291784729980400.0
33.44038208929165,1.7007791910722192e+16,2.9956654913831236e+16,1834221324456791.5,2180056528911531.2,9857649602350.287,21024864179970.41,356565913800094.2,8547136722158265.0
34.20918973107749,1.713610069268009e+16,3.038898966561514e+16,1848058905836703.5,2196503131879833.8,10159651745539.773,21669069651118.223,367491276172996.94,8809006937648863.0
34.993373525699035,1.7263991798637642e+16,3.082776827917786e+16,1861851442556134.8,2212896197197243.2,10469331466564.305,22329656818469.094,378694469305056.8,9077535383196754.0
35.793240996213015,1.7391452713791242e+16,3.1273124228041236e+16,1875597584944299.5,2229234120717856.5,10786853010124.875,23006976363152.094,390181440993205.7,9352864538221348.0
36.60910581613728,1.7518470904263996e+16,3.17251935844486e+16,1889295981273454.8,2245515295850972.5,11112383510427.908,23701385146882.246,401958243875116.9,9635139390527696.0
37.44128793246003,1.7645033831043388e+16,3.218411507468965e+16,1902945279261977.5,2261738115347574.5,11446093033075.621,24413246302065.703,414031036958221.25,9924507472743342.0
38.29011369110923,1.777112896387388e+16,3.2650030135159356e+16,1916544127572666.8,2277900973081151.5,11788154617822.154,25142929323781.2,426406087180580.8,1.0221118899509494e+16
39.15591596493141,1.7896743795095384e+16,3.312308296916895e+16,1930091177305150.0,2294002265821444.0,12138744322228.602,25890810163710.85,439089771004845.06,1.0525126405456172e+16
40.03903428423004,1.8021865853416e+16,3.3603420604527156e+16,1943585083481204.8,2310040394999866.5,12498041266251.625,26657271326094.7,452088576046579.5,1.0836685383991158e+16
40.93981496991464,1.8146482717608124e+16,3.409119295190979e+16,1957024506521835.8,2326013768465059.0,12866227677800.201,27442701965784.184,465409102738219.0,1.1155953926932946e+16
41.85861126931294,1.8270582030115476e+16,3.458655286403336e+16,1970408113714757.8,2341920802227056.5,13243488939295.857,28247497988471.164,479058066029957.0,1.1483092865018372e+16
42.7957834946992,1.8394151510559508e+16,3.5089656195652268e+16,1983734580670975.5,2357759922188506.0,13630013635271.762,29072062153169.51,493042297128875.6,1.1818265809315978e+16
43.751699164593184,1.8517178969131164e+16,3.5600661864393936e+16,1997002592769052.0,2373529565861251.5,14025993601046.756,29916804177027.438,507368745277650.4,1.216163919357673e+16
