t(s),Total solute volume 1,Total retention volume 1,Total 1 volume 1,Total 2 volume 1,Total 3 volume 1,Total 4 volume 1,Total 5 volume 1,Total 6 volume 1
0.1,941999071437344.5,1111941895936827.4,80338108873842.89,89604715625638.98,0.0,0.0,0.0,0.0
0.202,1413884984287736.5,1679698550095754.8,120582757991131.19,134491388390611.61,16593325178.926897,32088940525.382908,469968657546.58264,10220768503022.514
0.30604000000000003,1769270847499900.2,2115605387752816.2,150891735074737.3,168296357601632.0,41942385767.725266,81110533859.59192,1187934558524.8438,25835460098397.484
0.41216080000000005,2066463947692901.2,2487303630320156.5,176237759752726.47,196565922110721.16,74216644941.93,143525021551.1449,2102053094135.969,45716206003176.805
0.5204040160000001,2327358080129013.0,2820087547698148.5,198488037817955.34,221382660787694.88,112567440268.50981,217691412049.9099,3188290381721.224,69340219729445.54
0.6308120963200001,2562885775179371.5,3126547761226351.5,218574946856205.6,243786496413933.6,156509299253.60025,302671056874.70526,4432899157377.33,96408463263327.97
0.7434283382464002,2779412422537588.0,3413999860072711.0,237041357224645.25,264382916785833.1,205736036541.1882,397872018385.18475,5827210101126.992,126732345368595.08
0.8582969050113283,2981021058110592.0,3687132287530249.5,254235489419801.66,283560307929557.2,260044914284.32077,502902411511.6388,7365483867518.952,160187000876977.5
0.9754628431115548,3170511821132403.0,3949161816812463.0,270396152478938.16,301585024335522.25,319299116053.4074,617497836454.7882,9043848263566.352,196688173649524.0
1.094972099973786,3349901504598684.0,4202409703370545.0,285695347989580.6,318648907132073.5,383406858638.3997,741480985768.5378,10859706654863.523,236179349150938.22
1.2168715419732616,3520698182008164.5,4448617680567136.0,300261691549067.6,334895407095801.0,452308761079.31555,874737219247.3152,12811380236558.602,278623973697217.47
1.3412089728127268,3684063403285823.0,4689134159161999.0,314194245595367.7,350435013031698.25,525969721658.17114,1017198856281.4088,14897877980347.508,324000450690824.0
1.4680331522689813,3840913511685432.0,4925030276378501.0,327571160188822.0,365354889226778.4,604373439196.0604,1168834581747.9512,17118741474213.594,372298765782312.7
1.597393815314361,3991985851825267.0,5157175564222634.0,340455319544677.0,379725173282485.9,687518575083.5211,1329642024737.9292,19473936231426.77,423518122738957.9
1.729341691620648,4137883670546339.5,5386289156091072.0,352898171389341.94,393603247168453.25,775415980444.5248,1499642397031.5652,21963773166539.09,477665235442923.6
1.863928525453061,4279107529167647.5,5612975535884236.0,364942405945193.94,407036725215084.8,868086641002.2117,1678876519464.2095,24588850398365.582,534753061997483.2
2.001207095962122,4416077867892114.5,5837750166006788.0,376623880329190.2,420065600482118.5,965560120888.6606,1867401813153.755,27350009184286.22,594799846185032.6
2.1412312378813647,4549151587716685.0,6061058284158313.0,387973032736105.3,432723822060980.4,1067873362675.0771,2065289979594.7058,30248299943661.027,657828378358607.5
2.284055862638992,4678634479827179.0,6283288966908070.0,399015942475755.25,445040477382108.0,1175069747636.697,2272625184004.901,33284955651867.164,723865416639513.2
2.4297369798917723,4804790705962264.0,6504785837762356.0,409775138503014.0,457040694004948.3,1287198349984.5974,2489502613779.085,36461370728142.95,792941227600221.0
2.578331719489608,4927850141786191.0,6725855347964058.0,420270225695145.56,468746338133302.7,1404313338255.144,2716027321531.8975,39779084091527.875,865089217598094.1
2.7298983538794,5048014143742678.0,6946773269773369.0,430518376676225.75,480176563169295.5,1526473490119.977,2952313287491.6177,43239765429417.305,940345633978133.8
2.884496320956988,5165460134109243.0,7167789852137274.0,440534722852119.7,491348245852323.5,1653741795862.8984,3198482653378.029,46845203977684.336,1018749320896656.6
3.0421862473761276,5280345287303257.0,7389133960918929.0,450332668796000.3,502276336907389.75,1786185132069.47,3454665092079.498,50597299289727.86,1100341518398400.8
3.2030299723236504,5392809523744369.0,7611016438177388.0,459924147579001.4,512974145826914.44,1923873991573.1636,3720997286142.336,54498053599204.71,1185165696150166.0
3.3670905717701234,5502977963873343.0,7833632853707491.0,469319830060483.6,523453574301595.44,2066882258966.1099,3997622494398.2715,58549565473648.28,1273267415245062.5
3.5344323832055258,5610962956726863.0,8057165778514398.0,478529297894436.9,533725309182253.6,2215287023387.0815,4284690190705.192,62754024524282.73,1364694212972463.8
3.7051210308696363,5716865769888981.0,8281786678503541.0,487561187656469.44,543798983231170.75,2369168422094.082,4582355762247.262,67113706988166.91,1459495506554404.2
3.879223451487029,5820778007454029.0,8507657503718812.0,496423311774363.44,553683310001383.1,2528609509685.0806,4890780257463.345,71630972037221.19,1557722512684659.2
4.0568079205167695,5922782807676766.0,8734932031473478.0,505122760669301.5,563386197759410.1,2693696148867.654,5210130175677.633,76308258698053.36,1659428180345407.0
4.237944078927105,6022955860769871.0,8963757008998347.0,513665989558432.44,572914846300052.1,2864516919478.01,5540577292054.04,81148083289165.58,1764667134869294.5
4.422702960505647,6121366278809702.0,9194273131602756.0,522058892644508.1,582275829693459.1,3041163043074.8594,5882298512703.055,86153037299811.2,1873495631599504.8
4.61115701971576,6218077343206587.0,9426615884983960.0,530306866863674.25,591475167385907.5,3223728320923.6626,6235475755719.336,91325785648661.34,1985971517802475.2
4.803380160110075,6313147150171591.0,9660916274641062.0,538414866933912.0,600518385597804.2,3412309083576.92,6600295854680.8,96669065271484.5,2102154201728034.0
4.9994477633122765,6406629170697074.0,9897301460931360.0,546387453112802.7,609410570590085.2,3607004150566.658,6976950481742.087,102185683995839.83,2222104627903243.5
5.199436718578522,6498572738493768.0,1.0135895314837924e+16,554228832811108.25,618156415077711.6,3807914798976.087,7365636087939.393,107878519667892.02,2345885257900528.5
5.403425452950093,6589023476894342.0,1.0376818906779452e+16,561942897001098.6,626760258837526.8,4015144739860.153,7766553858716.076,113750519502187.77,2473560055945693.5
5.611493962009095,6678023673793950.0,1.062019093860842e+16,569533252193257.5,635226124373312.1,4228800101650.1255,8179909682998.723,119804699629940.2,2605194478833305.0
5.823723841249277,6765612612143158.0,1.0866128127198216e+16,577003248622270.6,643557748352888.6,4448989419813.102,8605914134414.894,126044144825185.33,2740855469700486.0
6.040198318074262,6851826862252429.0,1.1114745546607228e+16,584356005176122.9,651758609412676.8,4675823632149.002,9044782463461.402,132472008391366.17,2880611455279020.0
6.261002284435747,6936700541147521.0,1.1366156934666044e+16,591594431515137.0,659831952828041.4,4909416079200.391,9496734599609.965,139091512193515.42,3024532346303032.5
6.486222330124463,7020265543381772.0,1.1620474968898932e+16,598721247756756.6,667780812468627.9,5149882509327.916,9961995162487.414,145905946823391.8,3172689540796542.5
6.715946776726952,7102551747028440.0,1.187781151592648e+16,605739002043510.2,675608030392702.6,5397341088067.96,10440793481392.035,152918671886763.7,3325155930005599.0
6.950265712261491,7183587198010481.0,1.2138277857865064e+16,612650086263545.4,683316274380968.8,5651912411444.425,10933363622512.582,160133116403568.0,3482005906772544.0
7.18927102650672,7263398275458808.0,1.2401984898715546e+16,619456750153141.5,690908053665749.8,5913719522951.259,11439944423305.588,167552779312963.94,3643315376178644.0
7.433056447036854,7342009840399168.0,1.2669043353299612e+16,626161113977441.6,698385733074359.5,6182887933961.784,11960779533560.787,175181230076402.75,3809161768304752.0
7.681717575977592,7419445369743014.0,1.2939563920938552e+16,632765179957802.9,705751545774567.1,6459545647353.371,12496117462748.482,183022109372777.66,3979624052980275.5
7.935351927497144,7495727077282979.0,1.3213657445763584e+16,639270842590886.2,713007604783909.9,6743823184164.402,13046211633297.988,191079129880492.9,4154782756407842.0
8.194058966047088,7570876023163751.0,1.3491435065291776e+16,645679897984818.2,720155913382773.5,7035853613124.1,13611320439500.418,199356077141993.16,4334719979565824.5
8.45794014536803,7644912213102998.0,1.3773008348682022e+16,651994052321245.2,727198374552476.0,7335772582916.397,14191707311771.791,207856810506864.72,4519519418303737.0
8.72709894827539,7717854688471963.0,1.4058489425903064e+16,658214929537806.1,734136799543888.1,7643718357057.257,14787640786044.795,216585264150128.66,4709266385056169.0
9.0016409272409,7789721608203044.0,1.4347991108888162e+16,664344078313614.6,740972915668647.8,7959831851279.169,15399394578087.62,225545448162777.03,4904047832110698.0
9.281673745785717,7860530323371857.0,1.4641627005616036e+16,670382978429956.1,747708373393542.2,8284256673330.846,16027247662574.463,234741449711989.25,5103952376372809.0
9.567307220701432,7930297445196508.0,1.4939511627944166e+16,676333046569592.9,754344752808729.0,8617139165110.442,16671484356754.068,244177434268770.72,5309070325578719.0
9.85865336511546,7999038907108838.0,1.524176049392036e+16,682195641610482.9,760883569532057.5,8958628447061.623,17332394408582.266,253857646901066.47,5519493705912258.0
10.155826432417769,8066770021474246.0,1.5548490225214386e+16,687972069463125.9,767326280104385.9,9308876464769.85,18010273089200.824,263786413630622.72,5735316290988069.0
10.458942961066125,8133505531471102.0,1.585981864023756e+16,693663587495072.0,773674286924429.2,9668038037703.633,18705421289660.74,273968142852114.34,5956633632167474.0
10.768121820287448,8199259658582629.0,1.6175864843453306e+16,699271408581252.1,779928942766279.9,10036270910053.475,19418145621800.543,284407326813220.56,6183543090178084.0
11.083484256693197,8264046146103718.0,1.6496749311328528e+16,704796704814458.8,786091554917867.0,10413735803624.69,20148758523200.793,295108543154515.3,6416143868011110.0
11.405153941827061,8327878299022021.0,1.682259397532433e+16,710240610906573.2,792163388974509.4,10800596472747.965,20897578366147.797,306076456508180.25,6654537045074172.0
11.733257020663602,8390769020593564.0,1.7153522302285742e+16,715604227307917.9,798145672318064.1,11197019761174.45,21664929570546.656,317315820154682.3,6898825612579809.0
12.067922161076874,8452730845900363.0,1.7489659372549424e+16,720888623069212.4,804039597308985.2,11603175660926.35,22451142720733.37,328831477736662.4,7149114510152533.0
12.409280604298411,8513775972647750.0,1.7831131956059802e+16,726094838468092.1,809846324215825.5,12019237373078.4,23256554686141.477,340628365029418.7,7405510663639500.0
12.75746621638438,8573916289433088.0,1.8178068586752636e+16,731223887420028.2,815566983904207.2,12445381370447.535,24081508745784.89,352711511767405.3,7668123024111707.0
13.112615540712067,8633163401695218.0,1.8530599635441384e+16,736276759691388.0,821202680305187.2,12881787462172.395,24926354716526.91,365086043526303.94,7937062608044586.0
13.474867851526309,8691528655533201.0,1.888885738141899e+16,741254422930829.2,826754492680932.2,13328638860165.098,25791449085105.76,377757183660281.56,8212442538668453.0
13.844365208556836,8749023159565629.0,1.9252976082969004e+16,746157824533565.6,832223477704028.2,13786122247421.713,26677155143897.242,390730255294100.94,8494378088480354.0
14.221252512727972,8805657804985497.0,1.962309204696156e+16,750987893351718.9,837610671365123.1,14254427848178.836,27583843130394.184,404010683369830.7,8782986722910812.0
14.605677562982532,8861443283951757.0,1.9999343697694736e+16,755745541262863.8,842917090722377.6,14733749499906.078,28511890370389.89,417603996747970.3,9078388145139452.0
14.997791114242183,8916390106446138.0,2.038187164512873e+16,760431664607641.4,848143735504918.6,15224284727125.615,29461681424855.29,431515830362814.0,9380704342055222.0
15.397746936527026,8970508615712434.0,2.077081875264735e+16,765047145506501.9,853291589581446.8,15726234817051.89,30433608240501.117,445751927431981.5,9690059631357430.0
15.805701875257567,9023809002385696.0,2.1166330204470784e+16,769592853064692.6,858361622304225.1,16239804897046.52,31428070304023.03,460318141720049.94,1.0006580709795086e+16
16.221815912762718,9076301317409364.0,2.1568553572833964e+16,774069644473919.9,863354789737803.8,16765204013883.031,32445474800027.06,475220439856278.25,1.0330396702542762e+16
16.64625223101797,9127995483831128.0,2.1977638885036324e+16,778478366018329.1,868272035781037.2,17302645214819.654,33486236772637.31,490464903706453.3,1.066163921371197e+16
17.079177275638333,9178901307559846.0,2.2393738690460484e+16,782819853991918.9,873114293190323.6,17852345630477.957,34550779290791.062,506057732798940.25,1.1000442377998194e+16
17.5207608211511,9229028487160574.0,2.2817008127651188e+16,787094935533900.4,877882484511311.6,18414526559526.902,35639533617226.14,522005246805023.2,1.1346942913463602e+16
17.97117603757412,9278386622757792.0,2.324760499153908e+16,791304429388011.6,882577522925797.4,18989413555173.04,36752939381171.72,538313888073692.06,1.1701280175457436e+16
18.430599558325603,9326985224112376.0,2.368568980088836e+16,795449146591364.6,887200313020035.6,19577236513457.926,37891444754752.25,554990224221045.2,1.2063596211675334e+16
18.899211549492115,9374833717932618.0,2.413142586604255e+16,799529891097941.0,891751751480148.1,20178229763366.195,39055506633119.73,572040950774523.6,1.243403581836087e+16
19.37719578048196,9421941454475040.0,2.458497935703787e+16,803547460341576.6,896232727720029.4,20792632158746.926,40245590818328.555,589472893872214.4,1.2812746597651904e+16
19.864739696091597,9468317713487316.0,2.5046519372149356e+16,807502645742762.4,900644124446639.2,21420687172053.26,41462172206972.21,607293013017487.0,1.3199879016076054e+16
20.36203449001343,9513971709541164.0,2.5516218006932516e+16,811396233163487.5,904986818167280.1,22062642989905.676,42705734981602.055,625508403889292.9,1.3595586464199756e+16
20.869275179813698,9558912596800642.0,2.5994250423817956e+16,815229003313893.1,909261679643161.4,22718752610485.164,43976772805948.41,644126301208431.0,1.4000025317435394e+16
21.38666068340997,9603149473267386.0,2.648079492231471e+16,819001732114319.9,913469574293224.2,23389273942762.785,45275789023971.31,663154081660173.2,1.4413354998012894e+16
21.91439389707817,9646691384541956.0,2.69760330098753e+16,822715191016100.0,917611362551916.2,24074469907574.727,46603296862764.49,682599266873630.8,1.4835738038121374e+16
22.452681775019734,9689547327137968.0,2.7480149473472596e+16,826370147284204.0,921687900184448.1,24774608540550.457,47959819639342.0,702469526458296.1,1.526734014422782e+16
23.00173541052013,9731726251382752.0,2.7993332451936556e+16,829967364244615.8,925700038562699.8,25489963096904.254,49345890971338.02,722772681098196.5,1.5708330262580014e+16
23.561770118730532,9773237063936932.0,2.8515773509096456e+16,833507601499215.6,929648624904899.0,26220812158100.41,50762054991651.2,743516705704178.2,1.615888064590151e+16
24.133005521105144,9814088629962332.0,2.9047667707774256e+16,836991615110674.9,933534502481824.5,26967439740402.797,52208866567069.33,764709732624801.8,1.6619166921287134e+16
24.715665631527248,9854289774966542.0,2.9589213684668784e+16,840420157759765.4,937358510792275.1,27730135405321.273,53686891520908.2,786360054916418.4,1.7089368159307574e+16
25.309978944157795,9893849286350168.0,3.014061372617536e+16,843793978877313.1,941121485710237.9,28509194371967.34,55196706859705.125,808476129672978.9,1.7569666944333036e+16
25.91617852304095,9932775914681460.0,3.07020738451772e+16,847113824752909.1,944824259606144.6,29304917631332.133,56738901004006.34,831066581416194.5,1.806024944608513e+16
26.53450209350177,9971078374721474.0,3.127380385884879e+16,850380438622341.8,948467661444369.8,30117612062501.63,58314074023289.46,854140205546684.1,1.8561305492428132e+16
27.165192135371807,1.0008765346221042e+16,3.1856017467508304e+16,853594560735562.0,952052516859069.6,30947590550823.105,59922837875066.8,877705971856735.5,1.9073028643410012e+16
27.808495978079243,1.0045845474510704e+16,3.2448932334554496e+16,856756928406991.9,955579648210254.4,31795172108038.723,61565816648213.57,901773028105411.1,1.959561626656492e+16
28.464665897640828,1.0082327370901402e+16,3.3052770167523684e+16,859868276049708.6,959049874621941.1,32660681994402.53,63243646810571.03,926350703656693.0,2.0129269613488904e+16
29.133959215593645,1.011821961291529e+16,3.3667756800301284e+16,862929335195116.1,962464012004087.4,33544451842797.273,64956977460870.87,951448513181416.2,2.0674193897701708e+16
29.816638399905518,1.015353074436218e+16,3.4294122276521464e+16,865940834499479.9,965822873059882.8,34446819784868.875,66706470585036.85,977076160423768.0,2.1230598373806228e+16
30.51297116790363,1.0188269275278468e+16,3.4932100934186856e+16,868903499738702.8,969127267279914.1,35368130579197.125,68492801316913.19,1003243542033143.6,2.179869641796052e+16
31.223230591261704,1.022244368174236e+16,3.5581931491542176e+16,871818053792579.2,972378000924608.6,36308735741519.46,70316658203477.266,1029960751462222.1,2.2378705609675412e+16
31.947695203086937,1.0256062405580176e+16,3.624385713423096e+16,874685216619734.8,975575876996286.4,37268993677029.38,72178743474593.58,1057238082932053.2,2.2970847814951164e+16
32.686649107148675,1.0289133853976012e+16,3.691812560376858e+16,877505705224349.9,978721695202033.9,38249269814767.414,74079773317365.92,1085086035465140.6,2.3575349270769012e+16
33.44038208929165,1.0321666398997312e+16,3.760498928736044e+16,880280233615692.1,981816251908587.9,39249936744126.81,76020478155152.33,1113515316987318.2,2.4192440670952228e+16
34.20918973107749,1.0353668377047934e+16,3.830470530909497e+16,883009512761464.5,984860340090281.5,40271374353491.664,78001602931300.98,1142536848499449.5,2.482235725341111e+16
34.993373525699035,1.0385148088258604e+16,3.901753562254347e+16,885694250535830.4,987854749271092.1,41313969971032.586,80023907397674.34,1172161768319862.8,2.54653388887894e+16
35.793240996213015,1.0416113795825734e+16,3.974374710479145e+16,888335151663026.6,990800265461736.2,42378118507678.38,82088166408025.53,1202401436398549.0,2.612163017052668e+16
36.60910581613728,1.044657372530731e+16,4.048361165193427e+16,890932917657301.4,993697671092688.2,43464222602287.375,84195170216295.34,1233267438704056.5,2.6791480506354344e+16
37.44128793246003,1.047653606388446e+16,4.123740627606267e+16,893488246759946.0,996547744943946.0,44572692769040.05,86345724779900.62,1264771591684290.2,2.747514421124105e+16
38.29011369110923,1.0506008959597162e+16,4.200541320376616e+16,896001833874114.1,999351262072327.8,45703947547076.31,88540652068079.14,1296925946802038.5,2.8172880601805376e+16
39.15591596493141,1.0535000520561306e+16,4.278791997618409e+16,898474370498038.1,1002108993737001.8,46858413652399.984,90780790375370.89,1329742795146549.2,2.8884954092213292e+16
40.03903428423004,1.0563518814174412e+16,4.358521955062702e+16,900906544657301.9,1004821707323923.1,48036526132072.79,93066994640303.94,1363234672122123.0,2.9611634291576852e+16
40.93981496991464,1.059157186631589e+16,4.4397610403800616e+16,903299040836631.4,1007490166269775.8,49238728520723.41,95400136769360.62,1397414362214872.8,3.035319610287337e+16
41.85861126931294,1.0619167660548666e+16,4.522539663665358e+16,905652539911802.0,1010115129986013.0,50465472999392.93,97781105966304.94,1432294903838876.8,3.110991982340252e+16
42.7957834946992,1.064631413732697e+16,4.606888808087882e+16,907967719082071.6,1012697353783511.4,51717220556741.35,100210809066941.8,1467889594262794.0,3.188209124679979e+16
43.751699164593184,1.067301919321578e+16,4.692840040709254e+16,910245251803623.4,1015237588798317.5,52994441152638.54,102690170879394.78,1504211994618235.2,3.2670001766624604e+16
44.72673314788505,1.0699290680126282e+16,4.780425523471643e+16,912485807724359.0,1017736581918933.9,54297613884163.195,105220134529978.45,1541275934991041.0,3.3473948481541692e+16
