t(s),Total solute volume 1,Total retention volume 1,Total 1 volume 1,Total 2 volume 1,Total 3 volume 1,Total 4 volume 1,Total 5 volume 1,Total 6 volume 1
0.1,858476762157242.6,970941579421749.6,55300119698977.766,57164697565528.79,0.0,0.0,0.0,0.0
0.202,1266865843174900.5,1485050319178925.0,81607139480954.56,84358722707770.17,120573700221.96608,207463640907.831,2549778178303.047,49340798295865.29
0.30604000000000003,1559135946603031.5,1893197110185575.2,100434174126770.55,103820556672840.89,299714988165.8895,515732470754.3655,6338512765032.611,122652472558981.58
0.41216080000000005,1791692840552793.5,2252391430038960.0,115414689230672.94,119306176317119.23,521753085723.18646,897859035946.6024,11035022287970.541,213523089528736.47
0.5204040160000001,1986165106892867.5,2583702486364706.0,127941923637159.69,132255796933801.5,778851172273.8734,1340371734794.1733,16473747462664.875,318746688531143.25
0.6308120963200001,2153586419915548.8,2897511601239768.0,138726628688302.22,143404134577951.56,1066162848735.0214,1834942789787.6428,22552346980394.645,436340965439052.75
0.7434283382464002,2300515836933426.0,3199797583701797.5,148191316292685.4,153187947175635.7,1380361897559.3464,2375859238736.4863,29200615677634.973,564945646486119.1
0.8582969050113283,2431244602612598.5,3494364233772161.0,156612413669487.16,161892982362338.84,1719022474410.7224,2958956846936.2617,36367382291665.836,703568873514724.8
0.9754628431115548,2548770836411491.5,3783806910283512.0,164183049360415.97,169718880478373.06,2080305481216.8066,3581080694585.0283,44013880107456.32,851458877749970.5
1.094972099973786,2655291627014124.0,4069991790910885.5,171044752260289.72,176811942409493.12,2462780045987.434,4239778157953.319,52109973733358.055,1008030937289677.0
1.2168715419732616,2752476386174995.5,4354317254663941.0,177305060131381.06,183283331815174.5,2865313170650.606,4933109140317.543,60631826875922.3,1172822227355495.8
1.3412089728127268,2841630020673516.0,4637867037144386.0,183048030579398.56,189219940507733.34,3286997226468.383,5659521398914.159,69560370142076.055,1345462156616271.5
1.4680331522689813,2923795967528522.5,4921505149052472.0,188340878227557.8,194691249414872.22,3727100030843.1646,6417764709591.795,78880246153707.56,1525651942987373.5
1.597393815314361,2999824263578827.0,5205937419393881.0,193238359524795.8,199753861232369.3,4185029175391.074,7206829541540.558,88579055888611.23,1713150020452345.2
1.729341691620648,3070418215994496.0,5491752910197347.0,197785779099553.4,204454608144395.3,4660305762490.773,8025901912872.6455,98646803882103.6,1907761295401436.8
1.863928525453061,3136167409417987.5,5779452668569462.0,202021115966263.06,208832749720222.28,5152544586709.488,8874329330057.844,109075479647703.42,2109329039900520.5
2.001207095962122,3197571672190084.5,6069470224784961.0,205976567347176.6,212921568789757.75,5661438868954.183,9751594557069.186,119858735323835.97,2317728647708078.5
2.1412312378813647,3255058875398961.0,6362186544553070.0,209679695225873.53,216749556655894.28,6186748291461.023,10657295061300.639,130991633087286.75,2532862740832296.0
2.284055862638992,3308998413027353.0,6657941156177303.0,213154294691968.16,220341310717572.78,6728289479827.668,11591126667990.42,142470444288682.88,2754657277303916.5
2.4297369798917723,3359711587449455.0,6957040578437190.0,216421062939096.2,223718226024656.34,7285928334370.644,12552870395294.04,154292487677890.94,2983058415616427.5
2.578331719489608,3407479732363802.5,7259764804938837.0,219498122516302.66,226899036172016.6,7859573782738.105,13542381733915.14,166455997672935.8,3218029960697113.0
2.7298983538794,3452550651722520.0,7566372363877167.0,222401436101716.3,229900242058308.4,8449172641030.13,14559581833526.44,178960016063450.2,3459551263456602.0
2.884496320956988,3495143785162331.0,7877104316804842.0,225145139241842.25,232736455844378.3,9054705350872.096,15604450196125.236,191804302234555.5,3707615478774736.0
3.0421862473761276,3535454396526735.0,8192187455801609.0,227741810161756.56,235420679860763.7,9676182416786.908,16677018574318.436,204989258199651.7,3962228110061595.0
3.2030299723236504,3573657003287516.5,8511836887134241.0,230202690676637.34,237964534967796.38,10313641409318.922,17777365843222.97,218515865599372.47,4223405785350375.5
3.3670905717701234,3609908209195667.5,8836258139820316.0,232537868661395.62,240378449177637.56,10967144429543.951,18905613666569.23,232385632461817.8,4491175222227677.5
3.5344323832055258,3644349062777191.0,9165648902327166.0,234756429976859.66,242671814703023.3,11636775953086.066,20061922816261.918,246600547994378.97,4765572348106343.0
3.7051210308696363,3677107035431133.5,9500200465349220.0,236866585892047.7,244853119675890.8,12322640988736.361,21246490033844.633,261163044036245.53,5046641549291293.0
3.879223451487029,3708297691628468.0,9840098930179058.0,238875780672628.34,246930059363445.94,13024863499741.389,22459545344619.566,276075962074794.0,5334435027595358.0
4.0568079205167695,3738026107852085.5,1.0185526228591426e+16,240790782984163.22,248909630653283.56,13743585045848.291,23701349752405.016,291342524940834.56,5629012247362785.0
4.237944078927105,3766388084951119.5,1.0536660990008868e+16,242617763987791.9,250798212782264.12,14478963612014.553,24972193256361.496,306966312462968.44,5930439458956332.0
4.422702960505647,3793471189453994.5,1.0893679284062396e+16,244362364418044.12,252601636676014.03,15231172595850.104,26272393141911.04,322951240491491.8,6238789287285112.0
4.61115701971576,3819355652353090.0,1.1256755260824708e+16,246029752479450.47,254325244797661.28,16000399930751.568,27602292506186.273,339301542805681.5,6554140375951862.0
4.803380160110075,3844115148406132.5,1.1626061706506332e+16,247624674046459.5,255973943040367.94,16786847325608.977,28962258985188.79,356021755501160.6,6876577079201431.0
4.9994477633122765,3867817474712414.0,1.2001770528927246e+16,249151496374983.84,257552245912712.97,17590729605123.354,30352683655269.547,373116703520792.4,7206189195145933.0
5.199436718578522,3890525143932831.5,1.2384053184350774e+16,250614246315593.3,259064316040338.97,18412274137343.027,31773980085959.477,390591489046883.5,7543071734791849.0
5.403425452950093,3912295904823607.0,1.2773081055127368e+16,252016643844508.0,260513998827523.25,19251720337122.367,33226583524790.14,408451481516767.9,7887324722253042.0
5.611493962009095,3933183200588990.0,1.316902578589002e+16,253362131589097.25,261904852978202.44,20109319235933.477,34710950197708.742,426702309060365.44,8239053022239733.0
5.823723841249277,3953236573810476.0,1.3572059584688304e+16,254653900912036.97,263240177459616.25,20985333109886.164,36227556711147.85,445349851188458.3,8598366191496679.0
6.040198318074262,3972502025290754.0,1.3982355494352194e+16,255894915026789.9,264523035397190.53,21880035158997.504,37776899543850.45,464400232585477.06,8965378351349129.0
6.261002284435747,3991022332990276.0,1.4400087638496466e+16,257087929542414.97,265756275312052.56,22793709231741.332,39359494618253.02,483859817881569.8,9340208078920154.0
6.486222330124463,4008837336281754.5,1.4825431445856796e+16,258235510774253.66,266942550049119.66,23726649589739.8,40975876942661.28,503735207296279.94,9722978314922994.0
6.715946776726952,4025984189960463.0,1.5258563856062138e+16,259340052106404.9,268084333691267.25,24679160708156.625,42626600316657.89,524033233060974.44,1.0113816286218192e+16
6.950265712261491,4042497591795381.5,1.5699663509465772e+16,260403788649787.47,269183936711622.2,25651557107946.438,44312237093201.51,544760956539725.75,1.0512853441568126e+16
7.18927102650672,4058409986861160.5,1.614891092325933e+16,261428810404498.0,270243519579729.34,26644163216613.98,46033377991743.49,565925665978970.2,1.0920225399226592e+16
7.433056447036854,4073751751435134.5,1.6606488655763516e+16,262417074105830.53,271265105006980.0,27657313254568.18,47790631957429.016,587534874825412.4,1.1336071905178192e+16
7.681717575977592,4088551358859723.5,1.7072581460515392e+16,263370413908554.56,272250588991142.1,28691351144521.633,49584626062080.39,609596320559363.8,1.1760536800990008e+16
7.935351927497144,4102835529446484.5,1.754737643154006e+16,264290551043224.22,273201750798253.7,29746630441699.656,51416005443206.87,632117963997431.6,1.219376800036974e+16
8.194058966047088,4116629366223922.0,1.8031063141004324e+16,265179102560582.1,274120262001862.44,30823514282894.94,53285433277750.04,655107989024215.5,1.2635917473633092e+16
8.45794014536803,4129956478097010.0,1.8523833770284316e+16,266037589265072.38,275007694684042.75,31922375352636.586,55193590787681.5,678574802717680.2,1.3087141239380188e+16
8.72709894827539,4142839091787456.5,1.902588323534323e+16,266867442925648.44,275865528889328.06,33043595864945.24,57141177274921.04,702527035837086.5,1.354759936276386e+16
9.0016409272409,4155298153752583.0,1.9537409307198028e+16,267670012841036.56,276695159411340.12,34187567559320.355,59128910183344.43,726973543646300.0,1.4017455959804054e+16
9.281673745785717,4167353423134223.0,2.0058612728153572e+16,268446571827182.34,277497901982117.94,35354691709759.76,61157525185921.414,751923407048368.9,1.4496879207265994e+16
9.567307220701432,4179023556662348.5,2.05896973243997e+16,269198321686453.78,278274998925725.78,36545379145742.81,63227776295254.63,777385934010276.9,1.498604135767388e+16
9.85865336511546,4190326186329079.0,2.113087011549049e+16,269926398211129.56,279027624330447.75,37760050284227.76,65340435995991.37,803370661259187.9,1.5485118759080402e+16
10.155826432417769,4201277990553732.0,2.1682341421166092e+16,270631875767607.75,279756888787566.56,38999135171810.34,67496295397764.62,829887356233781.2,1.5994291879253852e+16
10.458942961066125,4211894759477508.5,2.2244324965920624e+16,271315771502469.75,280463843739239.2,40263073536288.65,69696164407474.305,856946019276147.8,1.651374533398154e+16
10.768121820287448,4222191454954605.0,2.281703798167408e+16,271979049206892.94,281149485473213.66,41552314846946.49,71940871919857.47,884556886051501.6,1.7043667919221088e+16
11.083484256693197,4232182265743718.5,2.340070130886567e+16,272622622871906.34,281814758797956.6,42867318382947.69,74231266025423.19,912730430184407.0,1.7584252646859288e+16
11.405153941827061,4241880658349526.0,2.399553949625034e+16,273247359963416.0,282460560428100.6,44208553309285.92,76568214234936.16,941477366101648.0,1.8135696783863412e+16
11.733257020663602,4251299423915084.0,2.4601780899650428e+16,273854084442858.03,283087742106952.44,45576498759794.234,78952603719726.12,970808652073000.8,1.869820189463306e+16
12.067922161076874,4260450721524196.0,2.5219657779886104e+16,274443579556583.88,283697113489925.7,46971643926762.266,81385341567193.98,1000735493442295.2,1.927197388637912e+16
12.409280604298411,4269346118235333.0,2.5849406400085916e+16,275016590414711.28,284289444810340.94,48394488156752.79,83867355050956.8,1031269346042044.9,1.9857223057375764e+16
12.75746621638438,4277996626135810.5,2.6491267122558292e+16,275573826378024.28,284865469346814.1,49845541052246.51,86399591915147.38,1062421919785842.9,2.0454164147944388e+16
13.112615540712067,4286412736675814.0,2.71454845053853e+16,276115963269653.97,285425885709500.56,51325322578774.92,88983020672439.1,1094205182433452.9,2.106301639404574e+16
13.474867851526309,4294604452516023.0,2.7812307398885456e+16,276643645426593.56,285971359960786.3,52834363177233.586,91618630915437.97,1126631363524233.5,2.168400358336521e+16
13.844365208556836,4302581317099716.5,2.849198904207668e+16,277157487604629.56,286502527584451.5,54373203881090.29,94307433641109.64,1159712958475140.8,2.2317354113790496e+16
14.221252512727972,4310352442139790.0,2.9184787159259176e+16,277658076748964.78,287019995315987.06,55942396438227.36,97050461587983.73,1193462732840139.0,2.2963301054188092e+16
14.605677562982532,4317926533193023.5,2.9890964056826852e+16,278145973641619.53,287524342845546.44,57542503437178.555,99848769585890.6,1227893726728356.2,2.3622082207395284e+16
14.997791114242183,4325311913477522.0,3.0610786720403404e+16,278621714435674.0,288016124403921.5,59174098437535.13,102703434918046.7,1263019259378762.8,2.4293940175351972e+16
15.397746936527026,4332516546075119.5,3.134452691239405e+16,279085812085467.22,288495870240957.8,60837766104315.65,105615557695321.5,1298852933889635.8,2.4979122426303184e+16
15.805701875257567,4339548054647128.5,3.2092461270032624e+16,279538757681036.5,288964088004990.44,62534102346106.16,108586261242559.45,1335408642101360.2,2.5677881364009428e+16
16.221815912762718,4346413742780400.0,3.285487140399863e+16,279981021694322.97,289421264031072.56,64263714456786.67,111616692496857.36,1372700569631597.5,2.6390474398907572e+16
16.64625223101797,4353120612070276.5,3.3632043997670476e+16,280413055144015.5,289867864545085.75,66027221260677.586,114708022417715.11,1410743201062041.2,2.711716402117062e+16
17.079177275638333,4359675379037415.5,3.4424270907076884e+16,280835290685268.66,290304336790212.06,67825253260940.695,117861446409017.88,1449551325276442.8,2.7858217875617604e+16
17.5207608211511,4366084490967017.0,3.523184926160209e+16,281248143630019.0,290731110081641.3,69658452791082.875,121078184752812.53,1489140040949644.5,2.8613908838429856e+16
17.97117603757412,4372354140751607.5,3.605508156549538e+16,281652012903098.8,291148596794932.4,71527474169416.6,124359483054868.81,1529524762187896.8,2.9384515095633532e+16
18.430599558325603,4378490280811205.0,3.689427580023191e+16,282047281938931.2,291557193292934.5,73432983856335.38,127706612702042.78,1570721224320688.2,3.0170320223309764e+16
18.899211549492115,4384498636158841.0,3.774974552776703e+16,282434319523161.75,291957280795802.3,75375660614267.69,131120871331454.8,1612745489844757.2,3.097161326949878e+16
19.37719578048196,4390384716673600.0,3.862180999472137e+16,282813480583248.0,292349226198238.44,77356195670179.02,134603583311538.06,1655613954521052.2,3.178868883776349e+16
19.864739696091597,4396153828638085.0,3.9510794237533336e+16,283185106931662.4,292733382837756.56,79375292880492.66,138156100235005.45,1699343353625601.8,3.262184717238468e+16
20.36203449001343,4401811085592966.0,4.041702918860842e+16,283549527965103.94,293110091217471.5,81433668898302.33,141779801423812.62,1743950768355525.0,3.3471394245155252e+16
20.869275179813698,4407361418556490.5,4.134085178349611e+16,283907061322808.1,293479679686599.44,83532053342750.89,145476094446194.44,1789453632391460.8,3.4337641843749676e+16
21.38666068340997,4412809585653673.5,4.22826050691163e+16,284258013506819.5,293842465081649.2,85671188970457.94,149246415645881.84,1835869738617980.2,3.5220907661639844e+16
21.91439389707817,4418160181195680.5,4.324263831306238e+16,284602680466860.06,294198753331012.7,87851831848862.62,153092230683594.3,1883217246003579.2,3.612151538953275e+16
22.452681775019734,4423417644247275.5,4.422130711399551e+16,284941348152213.06,294548840025448.1,90074751531370.33,157015035090943.1,1931514686642157.2,3.703979480830606e+16
23.00173541052013,4428586266717138.0,4.521897351315245e+16,285274293032870.1,294893010956810.8,92340731234170.17,161016354836857.94,1980780972957825.2,3.7976081883416776e+16
23.561770118730532,4433670201002969.0,4.6236006106978584e+16,285601782592009.4,295231542627125.0,94650568014605.16,165097746906693.7,2031035405075194.5,3.8930718860759896e+16
24.133005521105144,4438673467221336.0,4.7272780160898824e+16,285924075791710.5,295564702730009.75,97005072950965.05,169260799894150.62,2082297678357368.0,3.990405436395317e+16
24.715665631527248,4443599960049519.5,4.832967772423905e+16,286241423513686.8,295892750606270.6,99405071323575.8,173507134606183.4,2134587891113964.8,4.089644349302592e+16
25.309978944157795,4448453455204949.5,4.9407087746302e+16,286554068976666.9,296215937675345.5,101851402797052.66,177838404681043.9,2187926552481618.8,4.1908247924485336e+16
25.91617852304095,4453237615585690.5,5.050540619360672e+16,286862248131944.94,296534507844205.4,104344921603587.2,182256297219659.22,2242334590479541.0,4.293983601274216e+16
26.53450209350177,4457955997094045.5,5.1625036168292024e+16,287166190038516.7,296848697895125.94,106886496727126.22,186762533430501.47,2297833360242933.5,4.3991582892863736e+16
27.165192135371807,4462612054163355.0,5.276638802768824e+16,287466117219092.25,297158737853718.75,109477012088307.11,191358869288163.06,2354444652436871.5,4.506387058463862e+16
27.808495978079243,4467209145006987.5,5.392987950505166e+16,287762245998227.3,297464851338445.25,112117366730000.9,196047096205818.9,2412190701853822.0,4.61570880979184e+16
28.464665897640828,4471750536607062.5,5.511593583146339e+16,288054786823670.8,297767255892817.9,114808475003318.12,200829041721789.34,2471094196197553.0,4.727163153921726e+16
29.133959215593645,4476239409459194.0,5.632498985888349e+16,288343944572011.0,298066163301336.25,117551266753919.16,205706570200416.12,2531178285056839.0,4.8407904219539704e+16
29.816638399905518,4480678862088442.5,5.755748218435229e+16,288629918839571.4,298361779890204.4,120346687508474.25,210681583547467.25,2592466589071961.5,4.9566316763406216e+16
30.51297116790363,4485071915350611.0,5.881386127533313e+16,288912904219495.4,298654306813745.06,123195698661105.28,215756021940298.12,2654983209297454.5,5.0747287219050504e+16
31.223230591261704,4489421516532237.5,6.009458359617713e+16,289193090565840.1,298943940327412.5,126099277659642.66,220931864573000.1,2718752736764567.5,5.1951241169754536e+16
31.947695203086937,4493730543261283.5,6.140011373570213e+16,289470663245502.06,299230872048197.0,129058418191515.9,226211130416781.06,2783800262246904.0,5.317861184629203e+16
32.686649107148675,4498001807240436.5,6.273092453586221e+16,289745803378696.25,299515289203225.3,132074130369102.3,231595878995809.16,2850151386232839.5,5.442984024044217e+16
33.44038208929165,4502238057813391.5,6.408749722149405e+16,290018688068685.56,299797374867229.8,135147440914333.88,237088211178787.6,2917832229108607.5,5.57053752195431e+16
34.20918973107749,4506441985374428.0,6.547032153111214e+16,290289490621415.56,300077308189588.4,138279393342375.14,242690269986502.5,2986869441555693.0,5.70056736420422e+16
34.993373525699035,4510616224630524.0,6.6879895848732e+16,290558380755645.7,300355264611543.7,141471048144162.5,248404241415610.38,3057290215166643.0,5.83312004740079e+16
35.793240996213015,4514763357724909.0,6.831672733669179e+16,290825524804160.44,300631416074195.6,144723482967589.97,254232355278943.78,3129122293283087.5,5.9682428906558936e+16
36.60910581613728,4518885917230250.0,6.9781332069442184e+16,291091085906581.6,300905931217815.0,148037792797129.12,260176886062585.84,3202393982060349.0,6.105984047416763e+16
37.44128793246003,4522986389019242.0,7.127423516827255e+16,291355224194274.94,301178975572990.44,151415090131643.8,266240153800014.5,3277134161762643.5,6.246392517379167e+16
38.29011369110923,4527067215019851.0,7.27959709369345e+16,291618096967841.8,301450711744095.5,154856505160170.72,272424524963591.5,3353372298293323.0,6.389518158478558e+16
39.15591596493141,4531130795862000.0,7.43470829981276e+16,291879858867601.94,301721299585526.44,158363185935413.94,278732413373678.0,3431138454964374.0,6.535411698953895e+16
40.03903428423004,4535179493422141.0,7.592812443080053e+16,292140662037513.06,301990896371144.0,161936298544695.3,285166281125689.56,3510463304509969.5,6.684124749478936e+16
40.93981496991464,4539215633271652.0,7.753965790822619e+16,292400656282883.3,302259656957309.75,165577027278098.22,291728639535369.06,3591378141348257.0,6.835709815355254e+16
41.85861126931294,4543241507034884.0,7.918225583679872e+16,292659989222270.6,302527733939901.2,169286574793530.66,298422050102595.1,3673914894096511.5,6.9902203087608904e+16
42.7957834946992,4547259374662001.0,8.085650049550274e+16,292918806433891.75,302795277805659.3,173066162278409.44,305249125494029.3,3758106138344025.0,7.147710561048468e+16
43.751699164593184,4551271466621788.0,8.256298417599704e+16,293177251596870.9,303062437078203.06,176917029607680.75,312212530544922.75,3843985109687873.5,7.30823583508597e+16
