t(s),Total solute volume 1,Total retention volume 1,Total 1 volume 1,Total 2 volume 1,Total 3 volume 1,Total 4 volume 1,Total 5 volume 1,Total 6 volume 1
0.1,919935341976466.9,1072551036543860.6,72903600131805.52,79712094435588.67,0.0,0.0,0.0,0.0
0.202,1385987911029642.0,1615921696065383.2,109837620145021.31,120095396897940.78,1318231.9058369137,2472445.870500485,34587614.60789273,729614485.371416
0.30604000000000003,1740947262297850.2,2029769375629924.0,137967656574230.67,150852508106884.7,3344722.6129447976,6273286.744730431,87758698.5679664,1851274252.6212604
0.41216080000000005,2041193074606527.2,2379826966006631.5,161761720892263.84,176868709095043.53,5941224.382919075,11143227.86945261,155885793.6291226,3288442548.7692122
0.5204040160000001,2307835505074535.0,2690706727477237.0,182892763789439.47,199973188075997.4,9046395.548380585,16967218.122308463,237359399.13508117,5007164250.881162
0.6308120963200001,2551391894882990.5,2974670790932064.5,202194269973510.34,221077269215398.6,12627344.199503584,23683566.14910131,331316490.35380304,6989232764.55546
0.7434283382464002,2777974915331848.0,3238845898408628.0,220150660170070.8,240710613475455.8,16665276.086513491,31257021.86387129,437263940.3569649,9224245016.58093
0.8582969050113283,2991500381654441.5,3487797486000779.0,237072257307095.6,259212524960450.5,21149598.459168624,39667717.73534657,554923814.6509166,11706337662.14347
0.9754628431115548,3194651623717814.5,3724654040313008.0,253171711556051.7,276815513322078.53,26075015.250544135,48905720.57611867,684157153.9168952,14432579174.192112
1.094972099973786,3389360808701325.0,3951668270809127.0,268602144486882.47,293687000211734.75,31439918.549444076,58968014.62312729,824921769.1515815,17402079481.42447
1.2168715419732616,3577073174262423.0,4170525178244128.5,283478089180049.44,309952214997636.06,37245422.16490444,69856688.91225451,977246884.1699206,20615455024.7634
1.3412089728127268,3758902869068845.5,4382523748514271.0,297887840372641.44,325707698295780.94,43494745.13056798,81577780.99257106,1141216959.8996358,24074487514.886837
1.4680331522689813,3935730166043665.5,4588690293172981.0,311901158473262.06,341029725465715.7,50192800.18061553,94140505.08078337,1316960896.7552922,27781896146.270245
1.597393815314361,4108264902356503.0,4789852413842153.0,325574297093370.56,355979803664943.75,57345909.26679342,107556718.49119411,1504644570.3368282,31741180131.11297
1.729341691620648,4277089444990981.0,4986689095575666.0,338953408008927.2,370608394801228.44,64961601.49624171,121840542.65232134,1704465529.6970646,35956506854.73965
1.863928525453061,4442688708757836.5,5179765704724208.0,352076920046314.9,384957516583574.4,73048466.60394001,137008088.2830354,1916649152.7342057,40432630770.38782
2.001207095962122,4605471690350284.0,5369559095390494.0,364977245626368.7,399062608441041.9,81616047.06097631,153077253.0331931,2141445815.3159902,45174833679.55759
2.1412312378813647,4765787271961315.0,5556476034792868.0,377682033179134.44,412953900901006.3,90674757.81353752,170067570.94786215,2379128785.3822446,50188880306.39718
2.284055862638992,4923936051471504.0,5740866996026043.0,390215104669845.06,426657440671034.44,100235826.2656332,188000099.900233,2629992648.204792,55480985077.29134
2.4297369798917723,5080179353694218.0,5923036664230163.0,402597169727614.9,440195871460325.25,110311247.41618061,206897337.4477353,2894352129.269347,61057787288.60485
2.578331719489608,5234746200984950.0,6103252063593015.0,414846378056557.3,453589037980716.4,120913750.56367688,226783158.3840534,3172541220.668941,66926332677.2411
2.7298983538794,5387838779946230.0,6281748930957749.0,426978752664581.8,466854459634875.75,132056774.99993315,247682769.1508388,3464912543.3533716,73094059966.76352
2.884496320956988,5539636781908266.0,6458736776371579.0,439008533840446.0,480007706617508.44,143754452.80647638,269622675.5710269,3771836895.7392197,79568791344.93343
3.0421862473761276,5690300887790932.0,6634402946074022.0,450948455324258.3,493062701877518.06,156021597.35207912,292630661.27506477,4093702951.906545,86358726096.89023
3.2030299723236504,5839975594419212.0,6808915917688919.0,462809968289039.1,506031966017300.0,168873696.4357476,316735774.840061,4430917081.683693,93472436809.64969
3.3670905717701234,5988791527942507.0,6982427997434499.0,474603424676006.6,518926817749773.4,182326909.2703336,341968324.132322,4783903271.502689,100918867702.42812
3.5344323832055258,6136867353426151.0,7155077546555203.0,486338228530227.8,531757539376194.2,196398066.73758113,368359877.37575144,5153103309.200757,108707361364.10852
3.7051210308696363,6284311363560995.0,7326990833427783.0,498022961890840.0,544533514397552.06,211104674.12689206,395943265.9379348,5538976146.282633,116847554308.88794
3.879223451487029,6431222809408439.0,7498283585332067.0,509665490270129.56,557263342898474.56,226464916.74071673,424752598.3559541,5941999105.288253,125349538404.43216
4.0568079205167695,6577693023062595.0,7669062297195388.0,521273051609914.3,569954938774893.8,242497667.05545542,454823271.43428767,6362667363.446217,134223759680.16823
4.237944078927105,6723806370157347.0,7839425342166781.0,532852331769696.6,582615612281257.4,259222493.9580121,486191988.14985317,6801494370.451597,143481049632.41855
4.422702960505647,6869641062799439.0,8009463919420636.0,544409528950490.5,595252140470910.4,276659673.5665407,518896777.94718206,7259012132.382381,153132631214.67343
4.61115701971576,7015269857057800.0,8179262867365393.0,555950408969876.3,607870827633308.8,294830201.5342254,552977019.8151295,7735771534.52681,163190125647.78052
4.803380160110075,7160760654391718.0,8348901364855595.0,567480352924347.9,620477557407579.9,313755806.714758,588473467.9175527,8232342699.938792,173665559983.83414
4.9994477633122765,7306177022676043.0,8518453538663067.0,579004398479847.9,633077837929192.2,333458966.0922668,625428279.5955783,8749315381.170755,184571375369.96725
5.199436718578522,7451578649558175.0,8687988992054362.0,590527275799672.0,645676841113172.0,353962920.8980172,663885045.5957562,9287299383.14455,195920435969.01996
5.403425452950093,7597021738569332.0,8857573266626129.0,602053438935735.1,658279436977029.2,375291693.85202724,703888822.4080577,9846925015.538107,207726038502.8649
5.611493962009095,7742559356571378.0,9027268247403762.0,613587093363257.5,670890223746897.4,397470107.48086226,745486166.6223477,10428843573.409212,220001922391.40106
5.823723841249277,7888241739644119.0,9197132519485890.0,625132220221911.9,683513554362585.5,420523803.4736238,788725171.2320995,11033727845.05936,232762280466.2101
6.040198318074262,8034116563326666.0,9367221683130272.0,636692597732066.0,696153559893887.1,444479263.04724646,833655503.8310694,11662272646.37966,246021770242.85147
6.261002284435747,8180229182159286.0,9537588633047652.0,648271820178143.5,708814170296811.2,469363828.29968035,880328446.6629283,12315195381.11758,259795525739.9808
6.486222330124463,8326622842683476.0,9708283806751152.0,659873314788596.9,721499132869958.4,495205724.5360711,928796938.4957428,12993236626.672693,274099169837.01746
6.715946776726952,8473338873409862.0,9879355406053276.0,671500356790587.0,734212028715199.9,522034083.5584457,979115618.3036358,13697160745.173304,288948827165.1247
6.950265712261491,8620416854729944.0,1.0050849595179534e+16,683156082875258.6,746956287460446.2,549878967.9141672,1031340870.7466832,14427756519.709177,304361137528.8725
7.18927102650672,8767894771304460.0,1.022281067845277e+16,694843503274306.2,759735200464064.4,578771396.1024866,1085530873.4477856,15185837815.703138,320353269858.21606
7.433056447036854,8915809149093414.0,1.0395281260071308e+16,706565512619413.9,772551932688490.1,608743368.7421007,1141745646.0720053,15972244267.497282,336942936692.40155
7.681717575977592,9064195178884248.0,1.056830238814602e+16,718324899731691.6,785409533403882.8,639827895.7057911,1200047101.2197156,16787841990.313856,354148409199.1464
7.935351927497144,9213086827915886.0,1.0741913684859118e+16,730124356467729.2,798310945860337.0,672059024.230977,1260499097.1501856,17633524317.822227,371988532734.01135
8.194058966047088,9362516940979158.0,1.0916153464353856e+16,741966485731654.2,811259016048179.5,705471868.0175933,1323167492.356928,18510212565.61109,390482742946.24475
8.45794014536803,9512517332188586.0,1.1091058839748594e+16,753853808747928.2,824256500649980.4,740102637.3268987,1388120202.0204256,19418856820.92347,409651082438.67096
8.72709894827539,9663118868464630.0,1.126666582048678e+16,765788771677200.6,837306074274250.8,775988670.0969739,1455427256.3676908,20360436759.06772,429514217990.2992
9.0016409272409,9814351545632070.0,1.1443009401078556e+16,777773751646992.0,850410336049349.1,813168464.092517,1525160860.9717627,21335962486.966297,450093458351.43994
9.281673745785717,9966244557925372.0,1.1620123642156592e+16,789811062259908.2,863571815646101.2,851681710.1083447,1597395459.0275226,22346475414.352116,471410772622.05426
9.567307220701432,1.0118826361595144e+16,1.1798041744654282e+16,801902958634347.9,876792978789266.5,891569326.2476965,1672207795.6433198,23393049153.164925,493488809224.9973
9.85865336511546,1.0272124733224356e+16,1.19767961178174e+16,814051642025999.2,890076232310632.2,932873493.2979101,1749676984.190928,24476790445.742,516350915486.6878
10.155826432417769,1.0426166823291604e+16,1.2156418441674718e+16,826259264072643.8,903423928790243.2,975637691.2276754,1829884574.7589765,25598840122.43543,540021157838.5579
10.458942961066125,1.0580979205455108e+16,1.2336939724519892e+16,838527930699850.5,916838370826852.9,1019906736.8313438,1912914624.7578905,26760374089.326664,564524342653.4196
10.768121820287448,1.0736587921976516e+16,1.2518390355893832e+16,850859705720744.6,930321814973876.6,1065726822.5472814,1998853771.7267528,27962604346.746014,589886037731.6632
11.083484256693197,1.0893018525657154e+16,1.270080015550102e+16,863256614159396.5,943876475373141.1,1113145556.4784946,2087791308.395189,29206780039.336838,616132594452.9279
11.405153941827061,1.1050296118616388e+16,1.288419841844583e+16,875720645323967.1,957504527115053.5,1162212003.6451375,2179819260.0557303,30494188538.442566,643291170609.6217
11.733257020663602,1.120844538820769e+16,1.306861395713104e+16,888253755652986.4,971208109350670.5,1212976728.4997182,2275032464.304425,31826156557.623722,671389753939.3538
12.067922161076874,1.1367490640334282e+16,1.3254075140126536e+16,900857871355574.5,984989328178517.9,1265491838.7371595,2373528653.2101645,33204051302.15094,700457186374.0892
12.409280604298411,1.1527455830399636e+16,1.3440609928280594e+16,913534890864249.4,998850259326438.1,1319811030.4330897,2475408537.9750247,34629281653.34628,730523189024.4626
12.75746621638438,1.1688364592103818e+16,1.3628245908320408e+16,926286687116970.9,1012792950646769.9,1375989634.5449443,2580775896.1509066,36103299388.68363,761618387918.4359
13.112615540712067,1.18502402642739e+16,1.381701032416181e+16,939115109683418.8,1026819424441214.6,1434084664.8117895,2689737661.4794,37627600438.58873,793774340514.1614
13.474867851526309,1.2013105915898848e+16,1.4006930106125966e+16,952021986748982.1,1040931679630076.6,1494154867.0899794,2802404016.424724,39203726180.91125,827023563007.5594
13.844365208556836,1.2176984369521586e+16,1.4198031898241842e+16,965009126968548.4,1055131693779207.6,1556260770.1629524,2918888487.4715977,40833264774.078064,861399558455.8666
14.221252512727972,1.2341898223126476e+16,1.4390342083795102e+16,978078321201038.4,1069421424996518.1,1620464738.0648694,3039308043.2623878,42517852529.96449,896936845739.0947
14.605677562982532,1.2507869870646506e+16,1.4583886809268966e+16,991231344134590.8,1083802813708948.6,1686831023.9589186,3163783195.650127,44259175327.558,933670989381.9924
14.997791114242183,1.2674921521203558e+16,1.4778692006808756e+16,1004469955811321.6,1098277784329607.1,1755425825.6124828,3292438103.7466555,46058970068.52132,971638630259.9048
15.397746936527026,1.2843075217183434e+16,1.497478341532858e+16,1017795903059744.9,1112848246823982.2,1826317342.5126753,3425400681.0473547,47919026175.79323,1010877517212.5367
15.805701875257567,1.3012352851238968e+16,1.517218660036973e+16,1031210920842238.1,1127516098183242.5,1899575834.6669285,3562802705.716362,49841187136.405396,1051426539590.444
16.221815912762718,1.3182776182304992e+16,1.537092697280764e+16,1044716733524214.6,1142283223811944.2,1975273683.1348963,3704779934.118963,51827352089.722145,1093325760759.7621
16.64625223101797,1.3354366850702352e+16,1.5571029806497952e+16,1058315056071100.9,1157151498836777.5,2053485452.3389902,3851472217.690021,53879477462.35045,1136616452591.436
17.079177275638333,1.3527146392400896e+16,1.5772520254943164e+16,1072007595178642.4,1172122789342448.8,2134287954.2025287,4003023623.2301626,55999578651.0017,1181341130961.998
17.5207608211511,1.3701136252504692e+16,1.5975423367053392e+16,1085796050341602.5,1187198953540177.5,2217760314.1656537,4159582556.72397,58189731754.62267,1227543592293.7085
17.97117603757412,1.3876357798018764e+16,1.6179764102070636e+16,1099682114865498.8,1202381842873923.8,2303984039.130739,4321301890.776954,60452075357.15257,1275268951162.6077
18.430599558325603,1.4052832329949432e+16,1.6385567343717438e+16,1113667476825553.4,1217673303068892.0,2393043087.3903565,4488339095.771154,62788812362.29917,1324563679003.9045
18.899211549492115,1.4230581094788296e+16,1.6592857913627782e+16,1127753819976758.8,1233075175126590.5,2485023940.5924716,4660856374.841561,65202211881.76517,1375475643944.94
19.37719578048196,1.4409625295423558e+16,1.680166058411194e+16,1141942824618611.0,1248589296270314.0,2580015677.7988915,4839020802.778666,67694611178.399796,1428054151796.6768
19.864739696091597,1.4589986101520368e+16,1.7012000090303108e+16,1156236168417712.8,1264217500844593.0,2678110051.694558,5023004468.965155,70268417665.7833,1482349988235.6462
20.36203449001343,1.4771684659407584e+16,1.7223901141730132e+16,1170635527191310.5,1279961621171864.8,2779401567.006994,5212984624.457815,72926110965.79932,1538415462209.084
20.869275179813698,1.4954742101505402e+16,1.7437388433356224e+16,1185142575654401.5,1295823488369392.2,2883987561.1964874,5409143833.328491,75670245025.78856,1596304450596.8457
21.38666068340997,1.5139179555325724e+16,1.7652486656120718e+16,1199758988132999.8,1311804933129137.8,2991968287.479431,5611670128.381007,78503450296.91792,1656072444164.5554
21.91439389707817,1.5325018152074146e+16,1.7869220507018128e+16,1214486439245868.2,1327907786463133.2,3103447000.248821,5820757171.364188,81428435975.44545,1717776594843.4358
22.452681775019734,1.5512279034880822e+16,1.8087614698745304e+16,1229326604556731.8,1344133880416629.0,3218530042.9574904,6036604417.80381,84447992308.60103,1781475764373.0215
23.00173541052013,1.5700983366683088e+16,1.830769396894489e+16,1244281161199043.8,1360485048751202.5,3337326938.531241,6259417286.579881,87564992966.84586,1847230574343.949
23.561770118730532,1.589115233778393e+16,1.8529483089071492e+16,1259351788474925.8,1376963127599631.5,3459950482.380974,6489407334.37814,90782397484.32262,1915103457679.0142
24.133005521105144,1.6082807173104482e+16,1.8753006872903388e+16,1274540168429942.8,1393569956094349.2,3586516838.0841775,6726792435.148601,94103253769.34169,1985158711591.365
24.715665631527248,1.6275969139149524e+16,1.897829018472098e+16,1289847986405119.0,1410307376971001.2,3717145635.8081975,6971796964.70602,97530700686.80399,2057462552059.83
25.309978944157795,1.647065955070176e+16,1.920535794717033e+16,1305276931567417.0,1427177237148487.2,3851960073.5488334,7224651990.611303,101067970714.48975,2132083169862.1685
25.91617852304095,1.6666899777257856e+16,1.9434235148827708e+16,1320828697419817.2,1444181388286658.5,3991087021.259932,7485595467.474621,104718392675.19733,2209090788207.842
26.53450209350177,1.6864711249218388e+16,1.966494685147903e+16,1336504982291843.2,1461321687322668.0,4134657127.950634,7754872437.825086,108485394546.74573,2288557722012.8545
27.165192135371807,1.7064115463840576e+16,1.9897518197124056e+16,1352307489811325.8,1478599996986771.2,4282804931.8287535,8032735238.693362,112372506351.89278,2370558438859.885
27.808495978079243,1.726513399096019e+16,2.01319744147137e+16,1368237929357830.5,1496018186298129.2,4435668973.5696945,8319443714.056618,116383363130.26195,2455169621687.6743
28.464665897640828,1.7467788478486468e+16,2.0368340826624104e+16,1384298016498140.0,1513578131040931.0,4593391912.791802,8615265433.297413,120521707994.38892,2542470233254.227
29.133959215593645,1.7672100657670594e+16,2.0606642854869584e+16,1400489473403770.2,1531281714220923.5,4756120647.819671,8920475915.829245,124791395272.03423,2632541582418.9683
29.816638399905518,1.787809234814504e+16,2.084690602704876e+16,1416814029250334.5,1549130826502046.5,4924006438.817812,9235358862.043596,129196393736.91905,2725467392289.266
30.51297116790363,1.808578546272675e+16,2.108915598201922e+16,1433273420598180.8,1567127366622655.5,5097205034.377246,9560206390.733252,133740789930.05318,2821333870276.966
31.223230591261704,1.8295202011973624e+16,2.133341847528519e+16,1449869391753484.8,1585273241790310.0,5275876801.637963,9895319283.147182,138428791573.82535,2920229780110.6055
31.947695203086937,1.8506364108477716e+16,2.1579719384081e+16,1466603695108498.2,1603570368053779.5,5460186860.029182,10241007233.83123,143264731081.01004,3022246515848.7646
32.686649107148675,1.871929397087411e+16,2.182808471212523e+16,1483478091459227.2,1622020670650442.5,5650305218.708975,10597589108.406725,148253069160.82663,3127478177939.216
33.44038208929165,1.8934013927538336e+16,2.2078540594013416e+16,1500494350298450.5,1640626084326618.8,5846406917.782622,10965393208.437014,153398398524.13745,3236021651368.004
34.20918973107749,1.915054641993727e+16,2.2331113299209856e+16,1517654250081284.0,1659388553627958.2,6048672173.37735,11344757543.526428,158705447689.81,3347976685941.1313
34.993373525699035,1.9368914005592584e+16,2.2585829235589104e+16,1534959578460013.8,1678310033156204.8,6257286526.647568,11736030110.791279,164179084894.2024,3463445978739.6177
35.793240996213015,1.958913936060651e+16,2.2842714952469904e+16,1552412132484271.0,1697392487788057.8,6472440996.780633,12139569181.834438,169824322105.5949,3582535258786.8125
36.60910581613728,1.981124528169152e+16,2.3101797143073364e+16,1570013718761889.2,1716637892851050.8,6694332238.068528,12555743597.345503,175646319145.2913,3705353373963.741
37.44128793246003,2.0035254687635732e+16,2.3363102646325104e+16,1587766153575007.2,1736048234250506.0,6923162701.10402,12984933069.436676,181650387916.91852,3832012380204.9243
38.29011369110923,2.0261190620125052e+16,2.3626658447910108e+16,1605671262945247.2,1755625508540781.0,7159140798.15256,13427528491.811,187841996745.277,3962627633002.7803
39.15591596493141,2.0489076243833764e+16,2.3892491680477164e+16,1623730882640878.5,1775371722933133.0,7402481072.742371,13883932257.841644,194226774825.84402,4097317881244.0483
40.03903428423004,2.071893484568221e+16,2.4160629622874732e+16,1641946858118010.8,1795288895231368.2,7653404373.504249,14354558586.621988,200810516785.76938,4236205363395.402
40.93981496991464,2.0950789833149536e+16,2.4431099698287332e+16,1660321044386851.0,1815379053685656.8,7912138032.280864,14839833857.023489,207599187356.86575,4379415906049.248
41.85861126931294,2.11846647315174e+16,2.470392947112839e+16,1678855305793302.0,1835644236753706.0,8178916046.511084,15340196949.771683,214598926160.75238,4527079024832.444
42.7957834946992,2.142058317990788e+16,2.4979146642529384e+16,1697551515704939.8,1856086492757431.0,8453979265.879344,15856099597.521364,221816052605.88037,4679328027672.399
43.751699164593184,2.1658568925966796e+16,2.525677904425238e+16,1716411556089698.8,1876707879422262.5,8737575583.201965,16388006742.878922,229257070895.70612,4836300120404.826
44.72673314788505,2.1898645819032064e+16,2.553685463083864e+16,1735437316974471.0,1897510463285209.0,9029960129.50305,16936396904.281952,236928675146.76553,4998136514696.837
