t(s),Total solute volume 1,Total retention volume 1,Total 1 volume 1,Total 2 volume 1,Total 3 volume 1,Total 4 volume 1,Total 5 volume 1,Total 6 volume 1
0.1,1252217186918146.0,2056959543180943.2,321479351742078.75,483263004520719.3,0.0,0.0,0.0,0.0
0.202,1883603670067062.8,3094558157043520.0,483574018417079.56,726931440860651.9,145724377.12102613,446008603.94752467,12976158939.868525,435459806805.29236
0.30604000000000003,2365078033572154.0,3886145891716345.5,607182024867597.5,912744875041028.9,369602592.2681907,1131221801.8899376,32917142722.102448,1106540268448.8496
0.41216080000000005,2772355175671489.5,4556048138897009.0,711741518047133.5,1069923675919214.8,656387828.9055333,2008972434.7344394,58462479827.76652,1966641419073.5632
0.5204040160000001,3134000138579349.5,5151166270751903.0,804585947746769.9,1209491835802790.5,999296394.3362275,3058497685.671736,89007569642.13339,2995283259274.7446
0.6308120963200001,3464267271267301.5,5694903933828512.0,889374806191659.1,1336950477819398.2,1394683654.467167,4268642490.6898775,124227643374.7475,4181487580637.1655
0.7434283382464002,3771446696804870.5,6200872450708289.0,968236401078378.9,1455498975415745.8,1840460992.4170065,5633014268.740546,163936597683.80444,5518967336351.45
0.8582969050113283,4060850915761315.0,6677794749373044.0,1042534600675342.4,1567187560261354.2,2335444935.7152076,7147990794.885844,208028981277.7119,7004160258021.578
0.9754628431115548,4336120968345092.0,7131649938812740.0,1113204162377149.4,1673421404129783.8,2879036355.3926854,8811738329.047514,256451406732.19293,8635261779299.583
1.094972099973786,4599878800583466.0,7566744369313701.0,1180918213447659.2,1775212383932103.5,3471042761.5639296,10623667719.5966,309186715874.21655,10411689924121.248
1.2168715419732616,4854085557173902.0,7986299852299231.0,1246180234869726.0,1873317356219627.0,4111571496.300545,12584107501.330683,366244463117.0315,12333763893868.121
1.3412089728127268,5100252964273321.0,8392800677739971.0,1309378329250809.5,1968319735282428.8,4800961571.133832,14694095272.333193,427654842312.11523,14402499034257.135
1.4680331522689813,5339575221464783.0,8788210125884748.0,1370819081199272.2,2060680393677955.2,5539738141.813306,16955238356.169317,493464630642.4825,16619469935597.826
1.597393815314361,5573015088617395.0,9174111780567304.0,1430749658241794.8,2150770885381372.2,6328581013.887453,19369617407.865715,563734382655.9404,18986715745661.973
1.729341691620648,5801362198031307.0,9551805246490190.0,1489372781190492.0,2238895949953414.8,7168302250.707138,21939717879.428905,638536435298.689,21506672859528.188
1.863928525453061,6025273799313534.0,9922373028574402.0,1546857184498172.0,2325309237043781.0,8059829913.862991,24668380254.729053,717953459320.5352,24182126049430.26
2.001207095962122,6245303991464854.0,1.0286728513001126e+16,1603345120956879.0,2410224587810863.0,9004196069.105486,27558763339.62052,802077390708.8228,27016172418409.062
2.1412312378813647,6461925177720361.0,1.0645651182378936e+16,1658957869758725.8,2493824314900646.5,10002527841.767815,30614316885.582573,891008633811.1088,30012194520666.695
2.284055862638992,6675544127117960.0,1.0999812978551212e+16,1713799859952070.0,2576265401022067.0,11056040705.365213,33838761048.374104,984855463415.6061,33173840193945.273
2.4297369798917723,6886514209437386.0,1.1349798384751586e+16,1767961811494374.2,2657684220727035.0,12166033440.852674,37236070960.01861,1083733575672.2784,36505007412705.7
2.578331719489608,7095144859787912.0,1.1696119960978e+16,1821523165077962.5,2738200193039934.5,13333884370.011662,40810465200.476074,1187765752526.5095,40009832970083.2
2.7298983538794,7301709001337521.0,1.2039230528363694e+16,1874553987753295.5,2817918646081222.0,14561048577.820732,44566397296.26554,1297081614261.0667,43692684131524.15
2.884496320956988,7506448938842976.0,1.2379532844020054e+16,1927116485963831.5,2896933091533271.5,15849055915.125387,48508549607.32405,1411817441554.3127,47558152632895.13
3.0421862473761276,7709581090326622.0,1.2717387369293058e+16,1979266220300504.0,2975327050717083.5,17199509626.483288,52641829127.31989,1532116053234.4922,51611050556870.97
3.2030299723236504,7911299824441361.0,1.3053118570549242e+16,2031053090661186.2,3053175535530792.0,18614085486.267326,56971364839.574776,1658126729313.927,55856407736256.24
3.3670905717701234,8111780601269864.0,1.3387020077042736e+16,2082522142582162.8,3130546260565490.5,20094531353.813793,61502506355.54321,1790005171355.0654,60299470416165.15
3.5344323832055258,8311182564692153.0,1.3719358938983954e+16,2133714232771769.0,3207500643567009.0,21642667078.793118,66240823625.20818,1927913494037.0852,64945700968268.414
3.7051210308696363,8509650698659901.0,1.4050379170175984e+16,2184666582686623.0,3284094637598039.0,23260384703.191696,71192107555.3042,2072020243146.8596,69800778496028.65
3.879223451487029,8707317633534366.0,1.4380304716615428e+16,2235413242269376.8,3360379428150733.0,24949648917.785545,76362371406.45686,2222500436241.884,74870600204381.14
4.0568079205167695,8904305169254813.0,1.4709341960627802e+16,2285985480988838.0,3436402020976828.5,26712497739.765762,81757852867.19444,2379535623015.0356,80161283433698.34
4.237944078927105,9100725567574718.0,1.5037681846264578e+16,2336412119593384.5,3512205740795111.0,28551043384.957706,87385016723.54929,2543313962995.094,85679168278253.42
4.422702960505647,9296682654601852.0,1.5365501693631358e+16,2386719813163950.5,3587830656790184.0,30467473313.36468,93250558059.14622,2714030318688.213,91430820725291.03
4.61115701971576,9492272766462090.0,1.56929667560066e+16,2436933293892555.5,3663313947568624.0,32464051430.930138,99361405933.4268,2891886362636.494,97423036263321.8
4.803380160110075,9687585564411320.0,1.6020231562949772e+16,2487075580344414.0,3738690215731761.0,34543119433.718864,105724727495.77255,3077090697164.2,103662843918191.47
4.9994477633122765,9882704740661402.0,1.6347441084297016e+16,2537168158663349.5,3813991760272245.0,36707098283.36615,112347932501.39589,3269858985818.262,110157510683428.72
5.199436718578522,1.0077708632216158e+16,1.6674731743427528e+16,2587231140160678.0,3889248813469219.0,38958489804.77793,119238678201.4034,3470414095699.82,116914546317797.4
5.403425452950093,1.0272670756873382e+16,1.7002232303032104e+16,2637283398922089.0,3964489747745407.5,41299878398.80429,126404874584.75587,3678986250038.417,123941708488190.56
5.611493962009095,1.0467660283048192e+16,1.7330064642510242e+16,2687342692424395.5,4039741256984051.5,43733932864.02833,133854689954.1966,3895813190487.0728,131247008240279.14
5.823723841249277,1.0662742443067026e+16,1.7658344442833464e+16,2737425767639846.5,4115028516029870.0,46263408322.98733,141596556821.81317,4121140348720.8867,138838715782853.39
6.040198318074262,1.085797889796487e+16,1.7987181792056382e+16,2787548454689726.0,4190375321473695.0,48891148249.11497,149639178112.8769,4355221027008.805,146725366574716.78
6.261002284435747,1.1053428060503576e+16,1.8316681722502708e+16,2837725749772310.5,4265804216313616.5,51620086591.50656,157991533669.0858,4598316587500.199,154915767705430.78
6.486222330124463,1.124914538205827e+16,1.8646944688895036e+16,2887971888814622.0,4341336600671876.5,54453249995.29472,166662887044.44452,4850696650029.278,163419004563274.75
6.715946776726952,1.144518360813806e+16,1.897806699525332e+16,2938300413071813.0,4416992830406950.0,57393760115.999794,175662792588.7718,5112639298291.538,172244447785513.25
6.950265712261491,1.1641593006583126e+16,1.931014117719623e+16,2988724227711765.5,4492792305180684.0,60444836026.71445,185001102815.3436,5384431294290.845,181401760487549.97
7.18927102650672,1.1838421571877252e+16,1.9643256345295452e+16,3039255654267855.5,4568753547307811.0,63609796717.4023,194687976050.47208,5666368300992.691,190900905768820.56
7.433056447036854,1.2035715208516192e+16,1.9977498494309104e+16,3089906477714768.5,4644894272522593.0,66892063685.95724,204733884363.9349,5958755113152.615,200752154494358.5
7.681717575977592,1.2233517895952076e+16,2.0312950782435116e+16,3140687988814377.5,4721231453635010.0,70295163620.98323,215149621780.136,6261905896315.891,210966093351934.9
7.935351927497144,1.2431871837283712e+16,2.064969378415028e+16,3191611022288720.0,4797781377914391.0,73822731176.53568,225946312770.7304,6576144434009.989,221553633185494.72
8.194058966047088,1.263081759356617e+16,2.0987805719712396e+16,3242685991301037.0,4874559698922808.0,77478511839.30183,237135421030.18225,6901804383172.728,232526017606341.9
8.45794014536803,1.283039420536223e+16,2.1327362663994096e+16,3293922918661441.0,4951581483424961.0,81266364888.91989,248728758536.38925,7239229537877.975,243894831884173.75
8.72709894827539,1.3030639302945604e+16,2.166843873696678e+16,3345331465119223.5,5028861253918516.0,85190266452.32138,260738494899.08737,7588774101438.1455,255672012120641.12
9.0016409272409,1.323158920638465e+16,2.2011106277855924e+16,3396920955057078.5,5106413027258948.0,89254312653.15472,273177166999.27505,7950802966977.72,267869854708623.03
9.281673745785717,1.3433279016579964e+16,2.235543600473564e+16,3448700399863098.5,5184250349793304.0,93462722857.50806,286057688923.3746,8325692006585.935,280501026080869.9
9.567307220701432,1.3635742698196554e+16,2.2701497161110704e+16,3500678519221745.0,5262386329365922.0,97819843017.2787,299393362196.2709,8713828369169.285,293578572752097.8
9.85865336511546,1.3839013155316658e+16,2.3049357650849056e+16,3552863760536055.5,5340833664514762.0,102330149112.67473,313197886317.7582,9115610787135.83,307115931658989.44
10.155826432417769,1.4043122300540864e+16,2.3399084162663324e+16,3605264316667863.5,5419604671139326.0,106998250695.44583,327485369607.29785,9531449892053.879,321126940802916.5
10.458942961066125,1.4248101118179426e+16,2.375074228520297e+16,3657888142160780.5,5498711306887883.0,111828894534.55164,342270340362.30096,9961768539436.855,335625850200535.0
10.768121820287448,1.4453979722101922e+16,2.4104396613694028e+16,3710742968091821.5,5578165193483095.0,116826968366.07498,357567758335.4907,10407002142816.047,350627333147683.5
11.083484256693197,1.4660787408749016e+16,2.446011084896155e+16,3763836315681025.5,5657977637180637.0,121997504749.28375,373393026537.1389,10867599017270.432,366146497802331.9
11.405153941827061,1.4868552705753304e+16,2.4817947889573772e+16,3817175508773747.0,5738159647533204.0,127345685030.83098,389762003368.29254,11344020732590.645,382198899092551.9
11.733257020663602,1.5077303416567524e+16,2.5177969917769964e+16,3870767685298079.0,5818721954613815.0,132876843419.16643,406691015091.33716,11836742476262.838,398800550955786.44
12.067922161076874,1.5287066661455972e+16,2.554023847976177e+16,3924619807788373.5,5899675024835277.0,138596471171.31277,424196868644.4619,12346253426462.873,415967938915856.8
12.409280604298411,1.5497868915165574e+16,2.5904814560936212e+16,3978738673056565.5,5981029075488649.0,144510220894.23724,442296864806.8797,12873057135261.105,433718033004465.3
12.75746621638438,1.5709736041561514e+16,2.6271758656434412e+16,4033130921084057.0,6062794088109848.0,150623910963.10858,461008811721.80786,13417671922240.6,452068301034071.4
13.112615540712067,1.5922693325481878e+16,2.664113083753176e+16,4087803043199719.5,6144979820773242.0,156943530058.81836,480351038784.47437,13980631278741.576,471036722229311.75
13.474867851526309,1.613676550204003e+16,2.701299081420285e+16,4142761389602644.5,6227595819400219.0,163475241827.18723,500342410902.5787,14562484282947.465,490641801224249.06
13.844365208556836,1.6351976783581168e+16,2.738739799421803e+16,4198012176282608.5,6310651428162376.0,170225389662.36163,521002343136.8681,15163796026035.918,510902582433004.8
14.221252512727972,1.6568350884477842e+16,2.7764411539082956e+16,4253561491385846.0,6394155799050830.0,177200501616.9526,542350815729.6331,15785148049621.861,531838664801458.75
14.605677562982532,1.678591104393264e+16,2.814409041710555e+16,4309415301069069.0,6478117900676229.0,184407295441.52878,564408389529.1348,16427138794726.453,553470216947892.9
14.997791114242183,1.7004680046938562e+16,2.8526493453845996e+16,4365579454880663.5,6562546526358085.0,191852683756.14304,587196221818.139,17090384062508.963,575817992700626.5
15.397746936527026,1.7224680243534902e+16,2.8911679380184836e+16,4422059690704146.5,6647450301555967.0,199543779356.6148,610736082554.9207,17775517487005.414,598903347040876.2
15.805701875257567,1.7445933566481932e+16,2.929970687821937e+16,4478861639295761.5,6732837690690634.0,207487900658.34192,635050371035.2002,18483191020121.75,622748252459190.5
16.221815912762718,1.7668461547467314e+16,2.9690634625184544e+16,4535990828445175.0,6818717003398649.0,215692577280.484,660162132983.7385,19214075429132.81,647375315734013.0
16.64625223101797,1.7892285331946816e+16,3.0084521335573748e+16,4593452686785457.0,6905096400259609.0,224165555773.39453,686095078084.3604,19968860806944.86,672807795141029.6
17.079177275638333,1.8117425692711828e+16,3.048142580162142e+16,4651252547276257.0,6991983898032316.0,232914805492.21875,712873597957.3771,20748257095382.26,699069618102173.8
17.5207608211511,1.834390304226902e+16,3.0881406932297484e+16,4709395650381981.0,7079387374432374.0,241948524619.65475,740522784593.5499,21552994621763.93,726185399283189.9
17.97117603757412,1.857173744410874e+16,3.128452379094811e+16,4767887146964784.0,7167314572481006.0,251275146340.87457,769068449253.7955,22383824649037.234,754180459148935.0
18.430599558325603,1.8800948622933936e+16,3.16908356317093e+16,4826732100910536.0,7255773104452524.0,260903345173.68738,798537141844.0345,23241519939744.934,783080842985597.2
18.899211549492115,1.9031555973912172e+16,3.2100401934808996e+16,4885935491504105.0,7344770455445120.0,270842043457.04037,828956170774.6925,24126875334099.188,812913340399229.6
19.37719578048196,1.926357857101187e+16,3.2513282440863084e+16,4945502215569571.0,7434313986597818.0,281100418001.00336,860353623314.4569,25040708342445.156,843705505300073.5
19.864739696091597,1.9497035174475052e+16,3.2929537184266252e+16,5005437089388529.0,7524410937974619.0,291687906901.4266,892758386448.0605,25983859752396.523,875485676382268.5
20.36203449001343,1.9731944237477292e+16,3.3349226525766276e+16,5065744850410062.0,7615068431134553.0,302614216522.4814,926200168247.9393,26957194250930.76,908282998108675.5
20.869275179813698,1.9968323912019556e+16,3.3772411184309356e+16,5126430158763286.0,7706293471405691.0,313889328650.3568,960709519769.7285,27961601061733.9,942127442210625.0
21.38666068340997,2.0206192054094644e+16,3.419915226823295e+16,5187497598583615.0,7798092949878786.0,325523507821.3722,996317857481.6483,28997994598087.83,977049829712511.0
21.91439389707817,2.0445566228165348e+16,3.462951130588154e+16,5248951679162577.0,7890473645135683.0,337527308827.8555,1033057486237.9731,30067315131596.37,1013081853491261.5
22.452681775019734,2.0686463710991196e+16,3.5063550275712492e+16,5310796835930163.0,7983442224726090.0,349911584405.11414,1070961622806.7786,31170529477047.707,1050256101380744.8
23.00173541052013,2.0928901494835196e+16,3.5501331635956596e+16,5373037431278112.0,8077005246405150.0,362687493102.8758,1110064419962.347,32308631693714.703,1088606079831375.4
23.561770118730532,2.117289629008154e+16,3.594291835389419e+16,5435677755231971.0,8171169159143740.0,375866507344.6033,1150400991152.585,33482643803395.547,1128166238135071.8
24.133005521105144,2.1418464527291744e+16,3.638837393480135e+16,5498722025978913.0,8265940303921829.0,389460421678.0958,1192007435751.9768,34693616525499.668,1168971993226012.2
24.715665631527248,2.1665622358724864e+16,3.683776245062143e+16,5562174390258079.0,8361324914315416.0,403481361220.82605,1234920864910.5312,35942630029485.61,1211059755067466.0
25.309978944157795,2.1914385659346252e+16,3.729114856840982e+16,5626038923619492.0,8457329116885538.0,417941790303.4594,1279179428009.3745,37230794704959.03,1254466952635246.8
25.91617852304095,2.216477002734617e+16,3.774859757860107e+16,5690319630557221.0,8553958931378686.0,432854521315.0247,1324822339733.5588,38559251949739.59,1299232060508156.5
26.53450209350177,2.2416790784189536e+16,3.821017542314133e+16,5755020444522167.0,8651220270745829.0,448232723753.2329,1371889907772.7812,39929174976208.37,1345394626076056.8
27.165192135371807,2.2670462974215468e+16,3.867594872352972e+16,5820145227819331.0,8749118940987986.0,464089933483.4195,1420423561160.6404,41341769636245.29,1392995297376031.0
27.808495978079243,2.292580136380545e+16,3.9145984808808456e+16,5885697771394055.0,8847660640835106.0,480440062209.5994,1470465879263.218,42798275265069.1,1442075851567253.2
28.464665897640828,2.318282044013533e+16,3.962035174353961e+16,5951681794511829.0,8946850961264483.0,497297407161.15424,1522060621427.583,44299965544291.625,1492679224055071.5
29.133959215593645,2.3441534409528068e+16,4.009911835580613e+16,6018100944335256.0,9046695384865010.0,514676660998.6183,1575252757300.9873,45848149384497.695,1544849538275013.8
29.816638399905518,2.370195719542139e+16,4.058235426527116e+16,6084958795402399.0,9147199285052874.0,532592921942.078,1630088497831.443,47444171827661.42,1598632136147058.2
30.51297116790363,2.396410243596422e+16,4.107012991132951e+16,6152258849009661.0,9248367925143950.0,551061704125.6454,1686615326960.2322,49089414969709.25,1654073609210918.0
31.223230591261704,2.422798348125484e+16,4.156251658138395e+16,6220004532502716.0,9350206457287934.0,570098948181.4766,1744882034017.108,50785298903540.32,1711221830452700.5
31.947695203086937,2.449361339023347e+16,4.20595864392765e+16,6288199198478806.0,9452719921269098.0,589721032056.8077,1804938746828.6506,52533282682808.67,1770125986833425.5
32.686649107148675,2.4761004927240256e+16,4.256141255390531e+16,6356846123903030.0,9555913243177892.0,609944782067.4009,1866836965550.3015,54334865306777.625,1830836612529803.5
33.44038208929165,2.503017055825024e+16,4.306806892805576e+16,6425948509141850.0,9659791233958030.0,630787484190.8232,1930629597232.4885,56191586726545.41,1893405622897597.8
34.20918973107749,2.5301122446796784e+16,4.357963052747367e+16,6495509476916331.0,9764358587833120.0,652266895602.9485,1996370991131.2188,58105028872944.69,1957886349167726.8
34.993373525699035,2.5573872449591052e+16,4.409617331020803e+16,6565532071177772.0,9869619880616234.0,674401256460.9891,2064116974773.2834,60076816706415.75,2024333573885325.8
35.793240996213015,2.584843211185074e+16,4.461777425624972e+16,6636019255908283.0,9975579567907008.0,697209301936.372,2133924890786.2312,62108619289144.164,2092803567101722.2
36.60910581613728,2.6124812662345004e+16,4.514451139749106e+16,6706973913848709.0,1.0082241983179354e+16,720710274500.7345,2205853634503.0654,64202150879755.11,2163354123329205.2
37.44128793246003,2.6403025008165144e+16,4.567646384803293e+16,6778398845156257.0,1.0189611335763516e+16,744923936468.1917,2279963692351.4717,66359172050850.83,2236044599268344.0
38.29011369110923,2.6683079729231628e+16,4.621371183486253e+16,6850296765994078.0,1.0297691708725992e+16,769870582797.1031,2356317181037.243,68581490829671.02,2310935952317402.5
39.15591596493141,2.6964987072543696e+16,4.675633672892629e+16,6922670307055145.0,1.0406487056650396e+16,795571054154.3423,2434977887531.2856,70870963862152.6,2388090779873267.5
40.03903428423004,2.724875694618242e+16,4.730442107662198e+16,6995522012022608.0,1.0516001203323048e+16,822046750245.1732,2516011309869.6294,73229497600656.89,2467573359433067.0
40.93981496991464,2.7534398913074124e+16,4.785804863173215e+16,7068854335968636.0,1.0626237839326126e+16,849319643411.6271,2599484698775.285,75659049515633.39,2549449689505445.0
41.85861126931294,2.7821922184523116e+16,4.8417304387823576e+16,7142669643694241.0,1.0737200519541852e+16,877412292502.2944,2685467100110.888,78161629331465.9,2633787531340314.0
42.7957834946992,2.811133561352247e+16,4.898227461113257e+16,7216970208011781.0,1.084889266057083e+16,906347857016.2886,2774029398170.6416,80739300286763.86,2720656451485513.5
