t(s),Total solute volume 1,Total retention volume 1,Total 1 volume 1,Total 2 volume 1,Total 3 volume 1,Total 4 volume 1,Total 5 volume 1,Total 6 volume 1
0.1,1198922522623410.5,1797285705327306.5,247551059597552.8,350812123106343.5,0.0,0.0,0.0,0.0
0.202,1804460030888292.0,2705061073505544.0,372581204581515.44,527996159375299.06,10363701.635601861,28968179.481881045,736477763.2890493,22902850793.184048
0.30604000000000003,2266113559610177.0,3397154992344005.0,467902478430256.25,663078838946127.4,26290295.2078505,73485675.25220431,1868421082.8964455,58147160386.79449
0.41216080000000005,2656682263394743.5,3982697032646261.0,548546303211868.6,777361657538438.1,46695481.53833618,130521621.01259214,3318700981.708852,103312583123.08376
0.5204040160000001,3003563811012313.5,4502757501107746.0,620169693546763.0,878861343636641.2,71097625.1608117,198729754.5035931,5053076405.661642,157330008239.85654
0.6308120963200001,3320422653409125.5,4977819967517474.0,685594057275675.2,971576200365798.6,99238441.36550666,277388122.8070758,7053186671.043285,219626653643.0419
0.7434283382464002,3615204138184537.0,5419794838282202.0,746459933484813.1,1057831085659306.9,130970362.14116901,366084246.6870464,9308541885.378067,289875357052.56934
0.8582969050113283,3892999365639415.0,5836313910558943.0,803818522125378.4,1139115686985454.8,166210241.54328352,464585718.22306305,11813231605.610155,367891781125.12585
0.9754628431115548,4157297575970513.0,6232607753751390.0,858390274357456.8,1216450977620033.5,204916543.46492064,572776436.4090465,14564303133.541416,453583807282.48047
1.094972099973786,4410611504519284.0,6612443140695505.0,910694014620653.4,1290572199470980.8,247076708.13565227,690621294.2230473,17560863450.17313,546923523134.46185
1.2168715419732616,4654820783380888.0,6978637818172536.0,961117845494502.0,1362029344517295.5,292699561.2113385,818144960.6696918,20803539622.389297,647930395701.8447
1.3412089728127268,4891374514453810.0,7333364169860874.0,1009960974566472.8,1431246428938040.8,341810471.3358898,955418345.3018531,24294134588.41876,756660539143.5045
1.4680331522689813,5121417652828250.0,7678338668264033.0,1057459809814865.2,1498558473674267.0,394448117.68436486,1102549562.9301746,28035397388.21098,873199551583.3027
1.597393815314361,5345873492005431.0,8014945521876018.0,1103804990987747.0,1564235640114772.5,450662255.42221177,1259677687.6867347,32030864329.10573,997657563783.9692
1.729341691620648,5565499533021273.0,8344320424062987.0,1149152925345025.2,1628499577747387.5,510512128.6133658,1426968316.8234951,36284746173.806,1130165722681.4392
1.863928525453061,5780926520349797.0,8667409068531091.0,1193633847711726.2,1691534846305898.0,574065319.3924681,1604610353.94625,40801846338.810555,1270873641659.6675
2.001207095962122,5992686446780040.0,8985009129052410.0,1237357602867535.5,1753497110170254.0,641396900.6608189,1792813640.651085,45587500667.709885,1419947523365.6152
2.1412312378813647,6201233106912547.0,9297801069442076.0,1280417889390588.8,1814519152446818.2,712588805.8587614,1991807194.9276543,50647532634.45796,1577568763485.023
2.284055862638992,6406957483626259.0,9606371208087608.0,1322895436623608.8,1874715377143739.0,787729357.7870739,2201837894.1324544,55988219851.92634,1743932906892.351
2.4297369798917723,6610199468613764.0,9911229287210858.0,1364860424705967.5,1934185238672077.2,866912916.4982527,2423169490.783311,61616269043.96331,1919248867588.431
2.578331719489608,6811256929023899.0,1.0212822063929812e+16,1406374356635450.2,1993015894801489.8,950239618.0818052,2656081882.418525,67538797478.18872,2103738349996.4946
2.7298983538794,7010392818165490.0,1.0511543969365346e+16,1447491526471798.0,2051284287296149.5,1037815184.0880584,2900870578.903117,73763319419.74947,2297635426738.766
2.884496320956988,7207840821421204.0,1.080774557203235e+16,1488260185093389.0,2109058793944028.8,1129750786.7721674,3157846325.76218,80297736552.73862,2501186240063.338
3.0421862473761276,7403809889292185.0,1.110174037304896e+16,1528723476171015.8,2166400554953816.0,1226162959.1488085,3427334852.7679543,87150331586.72362,2714648802530.609
3.2030299723236504,7598487913872169.0,1.1393810317358174e+16,1568920195278711.8,2223364548713973.2,1327173541.5652783,3709676724.602313,94329764458.96675,2938292878588.8823
3.3670905717701234,7792044738181902.0,1.168421030492008e+16,1608885411254950.8,2280000472342583.5,1432909658.4712832,4005227275.9241066,101845070682.98846,3172399933034.3486
3.5344323832055258,7984634640264594.0,1.197317191458462e+16,1648650979113573.0,2336353468549063.0,1543503720.5141647,4314356617.225588,109705661497.22992,3417263135564.5835
3.7051210308696363,8176398399651372.0,1.226090650195116e+16,1688245966723337.0,2392464730294726.0,1659093448.1707568,4637449700.887532,117921325544.5054,3673187413032.458
3.879223451487029,8367465028724253.0,1.2547607794923752e+16,1727697012296194.8,2448372007400277.0,1779821913.945061,4974906439.1289015,126502231871.08127,3940489542819.412
4.0568079205167695,8557953232929241.0,1.2833454082827302e+16,1767028625889106.2,2504110033813233.5,1905837600.7861059,5327141867.294899,135458934078.658,4219498282132.4507
4.237944078927105,8747972649875057.0,1.3118610074086876e+16,1806263445250572.0,2559710890175827.5,2037294474.8636692,5694586347.277689,144802375496.87683,4510554529099.284
4.422702960505647,8937624906813150.0,1.3403228481675898e+16,1845422454166981.2,2615204313250252.0,2174352071.2166324,6077685806.918241,154543895270.78882,4814011512371.933
4.61115701971576,9127004527935196.0,1.368745138345362e+16,1884525169799493.5,2670617961399447.5,2317175591.0860333,6476902012.069248,164695235278.8434,5130235006607.139
4.803380160110075,9316199716700226.0,1.3971411395186982e+16,1923589804217382.5,2725977643500943.5,2465936009.981236,6892712868.658558,175268547813.7624,5459603571716.038
4.9994477633122765,9505293033560656.0,1.4255232686788856e+16,1962633404333462.0,2781307517253610.0,2620810195.717186,7325612752.623936,186276403972.13293,5802508814194.958
5.199436718578522,9694361985651852.0,1.4539031866604216e+16,2001671973662036.2,2836630261724507.0,2781981035.814086,7776112866.017093,197731802709.45837,6159355669189.094
5.403425452950093,9883479542004474.0,1.4822918754068516e+16,2040720578698853.2,2891967228103221.5,2949637573.7757726,8244741617.925464,209648180526.27927,6530562702217.676
5.611493962009095,1.0072714585442082e+16,1.5106997057471534e+16,2079793442227981.8,2947338571929828.0,3123975153.8657694,8732045029.146273,222039421758.28873,6916562429716.419
5.823723841249277,1.0262132310406268e+16,1.5391364970681292e+16,2118904025463992.5,3002763369501083.5,3305195574.085033,9238587159.785952,234919869449.4004,7317801657741.896
6.040198318074262,1.0451794574403002e+16,1.5676115700359476e+16,2158065100617793.5,3058259720705715.5,3493507247.1264043,9764950559.15572,248304336791.7729,7734741838339.091
6.261002284435747,1.0641760209504176e+16,1.5961337933315272e+16,2197288815214891.2,3113844840171744.0,3689125369.1403003,10311736737.500874,262208119121.0376,8167859443205.838
6.486222330124463,1.0832085299313606e+16,1.6247116252104376e+16,2236586749282736.0,3169535138308419.5,3892272096.196869,10879566659.243393,276647006458.569,8617646354399.661
6.715946776726952,1.1022823425962862e+16,1.6533531505718172e+16,2275969966349941.5,3225346293578800.5,4103176728.373017,11469081257.536776,291637296595.69617,9084610271928.338
6.950265712261491,1.121402589100881e+16,1.6820661141165812e+16,2315449059056679.0,3281293317135589.0,4322075901.429558,12080941970.037346,307195808717.4155,9569275138147.535
7.18927102650672,1.1405741913527024e+16,1.7108579500890046e+16,2355034190056740.0,3337390610784688.0,4549213786.07665,12715831295.885265,323339897565.4245,10072181578960.332
7.433056447036854,1.159801880821871e+16,1.7397358090237168e+16,2394735128792531.5,3393652019100230.5,4784842294.852864,13374453373.968084,340087468142.3504,10593887361876.553
7.681717575977592,1.1790902145944946e+16,1.768706581860272e+16,2434561284641957.0,3450090876397937.0,5029221296.66959,14057534582.609125,357456990960.75964,11134967871043.742
7.935351927497144,1.1984435898767894e+16,1.7977769217369508e+16,2474521736866205.0,3506720049175113.0,5282618839.092988,14765824160.88436,375467517842.1604,11696016599412.174
8.194058966047088,1.2178662571293962e+16,1.8269532637328292e+16,2514625261729190.0,3563551974542406.5,5545311378.457047,15500094851.82845,394138698272.5982,12277645658239.293
8.45794014536803,1.2373623319873824e+16,1.8562418427914212e+16,2554880357109777.0,3620598695102528.0,5817584017.918514,16261143567.83986,413490796322.7436,12880486304179.482
8.72709894827539,1.2569358061011346e+16,1.8856487100283692e+16,2595295264885794.5,3677871890671329.5,6099730753.581345,17049792078.640804,433544708141.51685,13505189484241.33
9.0016409272409,1.2765905570158568e+16,1.9151797475998844e+16,2635877991333018.5,3735382907185845.0,6392054728.833038,17866887722.192657,454321980033.41095,14152426398928.965
9.281673745785717,1.2963303571926732e+16,1.9448406822862756e+16,2676636325751779.0,3793142783100594.5,6694868497.050339,18713304139.003117,475844827130.65735,14822889083913.72
9.567307220701432,1.3161588822614894e+16,1.974637097925778e+16,2717577857507296.5,3851162273535980.5,7008494292.843816,19589942030.30266,498136152672.3242,15517291010613.73
9.85865336511546,1.3360797185849232e+16,2.0045744468175716e+16,2758709991647531.0,3909451872410762.5,7333264312.024369,20497729940.599487,521219567903.33307,16236367706085.72
10.155826432417769,1.3560963702030654e+16,2.03465806019875e+16,2800039963242568.5,3968021832762951.0,7669521000.48632,21437625065.157894,545119412607.2283,16980877392659.672
10.458942961066125,1.3762122652207484e+16,2.0648931578875236e+16,2841574850572949.5,4026882185439252.0,8017617352.212898,22410614082.976322,569860776287.3558,17751601647773.188
10.768121820287448,1.3964307616918338e+16,2.0952848571746356e+16,2883321587279370.0,4086042756312905.5,8377917216.621806,23417714015.87072,595469520011.8832,18549346084486.246
11.083484256693197,1.4167551530488848e+16,2.1258381810354804e+16,2925286973573849.0,4145513182171271.0,8750795615.478468,24459973114.303135,621972298938.8704,19374941053181.37
11.405153941827061,1.4371886731212816e+16,2.1565580657274204e+16,2967477686600930.5,4205302925399067.5,9136639069.615803,25538471770.620293,649396585538.352,20229242364977.58
11.733257020663602,1.4577345007799832e+16,2.1874493678297652e+16,3009900290028143.0,4265421287569283.5,9535845935.709446,26654323460.39918,677770693529.1262,21113132037409.047
12.067922161076874,1.4783957642431432e+16,2.218516870777729e+16,3052561242936163.5,4325877422041705.0,9948826753.367542,27808675712.623333,707123802548.6772,22027519062942.977
12.409280604298411,1.4991755450731734e+16,2.2497652909362256e+16,3095466908071838.0,4386680345658475.0,10376004602.80471,29002711109.44462,737485983575.3641,22973340200932.973
12.75746621638438,1.5200768818925434e+16,2.281199283254531e+16,3138623559520497.0,4447838949616849.5,10817815473.379656,30237648316.30993,768888225122.8013,23951560793627.12
13.112615540712067,1.541102773842938e+16,2.3128234465387532e+16,3182037389848374.0,4509362009590870.0,11274708643.286488,31514743143.26445,801362460226.9485,24963175606872.46
13.474867851526309,1.5622561838098344e+16,2.344642328375276e+16,3225714516760609.5,4571258195166668.0,11747147070.698866,32835289638.26901,834941594247.3009,26009209696179.76
13.844365208556836,1.5835400414323392e+16,2.3766604297350044e+16,3269660989315924.5,4633536078649405.0,12235607796.67851,34200621213.39885,869659533504.1849,27090719298835.758
14.221252512727972,1.6049572459162634e+16,2.4088822092853936e+16,3313882793735006.5,4696204143294567.0,12740582360.167332,35612111804.81972,905551214774.9653,28208792752772.883
14.605677562982532,1.62651066866662e+16,2.4413120874345932e+16,3358385858836003.0,4759270791010831.0,13262577225.39477,37071177067.466576,942652635672.6666,29364551442927.848
14.997791114242183,1.6482031557541572e+16,2.473954450129771e+16,3403176061127425.0,4822744349577147.0,13802114222.042038,38579275605.37894,981000885931.305,30559150775848.055
15.397746936527026,1.6700375302292476e+16,2.506813652429591e+16,3448259229585743.5,4886633079413522.0,14359730998.515059,40137910238.67925,1020634179622.9545,31793781183323.02
15.805701875257567,1.6920165942951618e+16,2.5398940218689464e+16,3493641150142810.5,4950945179939980.0,14935981488.689379,41748629308.20604,1061591888332.3721,33069669155846.742
16.221815912762718,1.7141431313516424e+16,2.573199861632451e+16,3539327569905289.5,5015688795556304.0,15531436392.501614,43413028018.85154,1103914575315.7456,34388078306738.703
16.64625223101797,1.7364199079187662e+16,2.6067354535518028e+16,3585324201127092.0,5080872021271330.0,16146683670.772137,45132749822.678314,1147644030671.002,35750310467777.055
17.079177275638333,1.7588496754501618e+16,2.6405050609405016e+16,3631636724953207.0,5146502908008511.0,16782329054.65646,46909487842.924995,1192823307547.8528,37157706817223.35
17.5207608211511,1.7814351720438124e+16,2.67451293127857e+16,3678270794952200.5,5212589467611881.0,17438996570.133587,48744986340.04344,1239496759426.61,38611649041142.03
17.97117603757412,1.804179124058059e+16,2.708763298758668e+16,3725232040452825.0,5279139677574549.0,18117329077.951756,50641042220.9425,1287710078495.6777,40113560528947.47
18.430599558325603,1.827084247639651e+16,2.743260386704024e+16,3772526069699171.5,5346161485509848.0,18817988829.463818,52599506592.64522,1337510335158.4392,41664907604134.16
18.899211549492115,1.8501532501702044e+16,2.778008409867737e+16,3820158472837253.0,5413662813383833.0,19541658038.79798,54622286361.60698,1388946018701.1753,43267200791177.8
19.37719578048196,1.8733888316368244e+16,2.813011576622314e+16,3868134824745068.0,5481651561525730.0,20289039471.820583,56711345879.970055,1442067079154.54,44921996119617.49
19.864739696091597,1.8967936859322696e+16,2.848274091047456e+16,3916460687717099.5,5550135612432362.0,21060857052.3615,58868708640.07128,1496924970382.0044,46630896466363.55
20.36203449001343,1.9203705020894276e+16,2.883800154923511e+16,3965141614013314.5,5619122834380258.0,21857856486.186707,61096459018.55393,1553572694429.69,48395552937300.4
20.869275179813698,1.9441219654547292e+16,2.9195939696374732e+16,4014183148281901.5,5688621084859115.0,22680805903.213764,63396744071.47518,1612064847172.888,50217666289285.64
21.38666068340997,1.968050758804458e+16,2.955659738007802e+16,4063590829864320.0,5758638213838259.0,23530496518.482197,65771775381.83308,1672457665295.5737,52098988393675.97
21.91439389707817,1.9921595634079296e+16,2.9920016660338684e+16,4113370194990427.5,5829182066877515.0,24407743312.40333,68223830960.98725,1734809074640.3105,54041323742544.65
22.452681775019734,2.0164510600408972e+16,3.0286239645754316e+16,4163526778871019.0,5900260488092574.0,25313385730.82891,70755257205.4725,1799178739966.7205,56046530998782.37
23.00173541052013,2.0409279299525384e+16,3.0655308509670868e+16,4214066117694382.5,5971881322984292.0,26248288405.49282,73368470910.76164,1865628116158.109,58116524591309.49
23.561770118730532,2.0655928557888664e+16,3.102726550572324e+16,4264993750532953.5,6044052421140796.0,27213341895.394722,76065961343.56458,1934220500916.5066,60253276356660.62
24.133005521105144,2.090448522475454e+16,3.1402152982813972e+16,4316315221166009.5,6116781638820391.0,28209463449.71045,78850292374.29716,2005021088987.8096,62458817228234.414
24.715665631527248,2.115497618061966e+16,3.1780013399570576e+16,4368036079823338.5,6190076841422647.0,29237597792.82931,81724104671.40062,2078097027959.6018,64735238974539.484
25.309978944157795,2.140742834530847e+16,3.2160889338317536e+16,4420161884855068.0,6263945905854638.0,30298717932.134357,84690117959.22955,2153517475675.509,67084695987799.97
25.91617852304095,2.1661868685723476e+16,3.254482351859722e+16,4472698204331903.5,6338396722798874.0,31393825989.158882,87751133341.28313,2231353659311.036,69509407124322.02
26.53450209350177,2.1918324223279748e+16,3.293185881027231e+16,4525650617580183.0,6413437198888442.0,32523954054.768387,90910035690.58943,2311678936157.0884,72011657598060.17
27.165192135371807,2.2176822041041268e+16,3.332203824623829e+16,4579024716655435.0,6489075258795399.0,33690165069.034237,94169796109.11005,2394568856158.519,74593800928860.25
27.808495978079243,2.2437389290578228e+16,3.37154050347748e+16,4632826107758126.0,6565318847237125.0,34893553726.48497,97533474458.07738,2480101226256.356,77258260946892.39
28.464665897640828,2.2700053198559628e+16,3.411200257156071e+16,4687060412595017.0,6642175930905298.0,36135247407.43502,101004221961.22635,2568356176583.6924,80007533854831.81
29.133959215593645,2.296484107309744e+16,3.4511874451377964e+16,4741733269689116.0,6719654500322435.0,37416407136.11408,104585283882.93391,2659416228566.3013,82844190349381.36
29.816638399905518,2.3231780309856316e+16,3.491506447952633e+16,4796850335640996.0,6797762571629377.0,38738228566.334114,108280002283.33553,2753366364980.7246,85770877803771.92
30.51297116790363,2.350089839794064e+16,3.5321616682970116e+16,4852417286344536.0,6876508188308144.0,40101942995.45373,112091818852.53798,2850294102023.538,88790322512923.16
31.223230591261704,2.3772222925572452e+16,3.573157532123744e+16,4908439818159258.0,6955899422843093.0,41508818407.417496,116024277826.09883,2950289563447.211,91905332002984.44
31.947695203086937,2.4045781585570684e+16,3.614498489709001e+16,4964923649041606.0,7035944378324327.0,42960160545.66858,120081028984.01003,3053445556819.31,95118797407024.31
32.686649107148675,2.432160218064238e+16,3.656189016698113e+16,5021874519637460.0,7116651189995859.0,44457314016.751854,124265830735.46535,3159857651963.0396,98433695908680.1
33.44038208929165,2.4599712628495396e+16,3.6982336151318984e+16,5079298194337904.0,7198028026751706.0,46001663425.44776,128582553291.764,3269624261638.9736,101853093255626.84
34.20918973107749,2.488014096678211e+16,3.740636814455004e+16,5137200462299865.0,7280083092582338.0,47594634542.29685,133035181929.75084,3382846724528.9175,105380146344766.56
34.993373525699035,2.516291535788215e+16,3.783403172507754e+16,5195587138433718.0,7362824627974207.0,49237695504.39632,137627820348.25763,3499629390584.779,109018105881096.08
35.793240996213015,2.5448064093532348e+16,3.82653727650293e+16,5254464064359257.0,7446260911264519.0,50932358050.3743,142364694120.07938,3620079708806.571,112770319112253.06
36.60910581613728,2.573561559931117e+16,3.870043743988739e+16,5313837109331608.0,7530400259953339.0,52680178790.466,147250154242.06363,3744308317515.4526,116640232640788.67
37.44128793246003,2.6025598438984124e+16,3.9139272237992344e+16,5373712171138461.0,7615251031975102.0,54482760512.644226,152288680785.9823,3872429137189.3613,120631395316273.83
38.29011369110923,2.631804131871685e+16,3.958192396993389e+16,5434095176970042.0,7700821626931464.0,56341753525.77503,157484886652.89322,4004559465930.2764,124747461209389.66
39.15591596493141,2.6612973091162228e+16,4.002843977783852e+16,5494992084262908.0,7787120487287066.0,58258857040.79572,162843521433.7818,4140820077634.0264,128992192670210.92
40.03903428423004,2.6910422759425828e+16,4.047886714456638e+16,5556408881518775.0,7874156099529994.0,60235820590.93845,168369475379.34183,4281335322935.334,133369463472938.92
40.93981496991464,2.721041948091576e+16,4.093325390282497e+16,5618351589099524.0,7961936995298224.0,62274445492.04234,174067783481.81314,4426233233002.188,137883262049402.61
41.85861126931294,2.751299257108221e+16,4.139164824421108e+16,5680826259999129.0,8050471752473768.0,64376586344.02837,179943629671.87405,4575645626255.989,142537694813693.84
42.7957834946992,2.78181715070493e+16,4.1854098728190616e+16,5743838980593697.0,8139768996245492.0,66544152574.632324,186002351133.6565,4729708218095.1,147336989580361.84
43.751699164593184,2.8125985931145156e+16,4.232065429102266e+16,5807395871370365.0,8229837400141958.0,68779110026.51846,192249442741.01337,4888560733701.918,152285499078654.22
