t(s),Total solute volume 1,Total retention volume 1,Total 1 volume 1,Total 2 volume 1,Total 3 volume 1,Total 4 volume 1,Total 5 volume 1,Total 6 volume 1
0.1,988500314890707.8,1201179625827040.0,98333854761724.14,114345456174609.27,0.0,0.0,0.0,0.0
0.202,1430378608417468.5,1862534970961672.5,142290943855949.4,165460034860921.72,154145913270.68207,317859324142.5069,5125289783367.057,118808088806549.66
0.30604000000000003,1729382700144348.0,2405295477285816.0,172035218769345.7,200047540380515.0,376438066987.30774,776268076450.5162,12516973238280.777,290160338609889.75
0.41216080000000005,1955314374098856.5,2896445486434570.0,194510408931103.0,226182343319978.03,644785523266.684,1329685554976.6917,21440701727247.16,497023187279142.06
0.5204040160000001,2135447183438585.8,3360336906203491.0,212429627935293.72,247019330884866.47,948297997325.774,1955664136287.3806,31534520783344.94,731002281027787.6
0.6308120963200001,2283828071132996.5,3808770107593720.0,227190235031307.25,264183392934779.38,1280446859037.7788,2640748648445.7983,42581477022979.875,987065735964169.2
0.7434283382464002,2408821914820000.5,4248437035738168.0,239624350001076.12,278642142480352.62,1636928769362.115,3376071781094.083,54438594413581.74,1261897033472701.8
0.8582969050113283,2515875773778150.0,4683537816184379.0,250273834420188.7,291025671872545.8,2014745961198.6826,4155457935386.789,67006299538727.19,1553186032678187.5
0.9754628431115548,2608758104298140.5,5116906298275203.0,259513566100397.0,301769899899933.4,2411735073084.3276,4974451864118.728,80212758895471.9,1859265782144054.5
1.094972099973786,2690192677924657.5,5550563056830567.0,267614499893666.0,311189900720349.7,2826297908256.966,5829763616630.508,94004928942356.83,2178904987824653.8
1.2168715419732616,2762214573032093.5,5986014151194412.0,274779080957636.38,319521083432796.8,3257235622809.532,6718926717212.987,108343044434103.84,2511180206997764.0
1.3412089728127268,2826384463359930.5,6424424492375128.0,281162561711695.94,326943980052020.06,3703640897167.1816,7640075882444.372,123197034256969.12,2855392736214892.5
1.4680331522689813,2883924714024550.5,6866724235197705.0,286886540371366.9,333599988508804.3,4164824850379.2944,8591796363777.182,138544092180084.55,3211012278898743.5
1.597393815314361,2935809580140658.5,7313677079166015.0,292047933710415.5,339601806437888.75,4640265861518.492,9573018453088.277,154366975832752.72,3577637498729693.0
1.729341691620648,2982827095008582.0,7765925775648676.0,296725133562715.9,345040590136824.44,5129572773408.855,10582941638204.766,170652783769746.06,3954967658759191.0
1.863928525453061,3025622771586486.5,8224023409723683.0,300982354149386.4,349991009763993.56,5632457852757.624,11620978871770.166,187392056852123.22,4342781780647166.5
2.001207095962122,3064731218058919.0,8688455484319531.0,304872777126579.75,354514906491363.9,6148716550634.694,12686714859424.832,204578105681197.03,4740923045551406.0
2.1412312378813647,3100599488124137.5,9159655874949536.0,308440874421129.3,358663993565121.3,6678212112630.916,13779874345961.768,222206499244108.6,5149286933136457.0
2.284055862638992,3133604638213158.0,9638018591704022.0,311724154784407.3,362481887249124.9,7220863716078.947,14900297672886.895,240274670806833.34,5567812079261513.0
2.4297369798917723,3164067137007397.5,1.0123906607106642e+16,314754497741884.75,366005657980136.0,7776637216496.733,16047921715279.871,258781610545652.16,5996473144899811.0
2.578331719489608,3192261249448562.0,1.0617658588966644e+16,317559186571783.56,369267031545342.4,8345537853368.325,17222764858245.092,277727623315162.2,6435275195374182.0
2.7298983538794,3218423177220908.5,1.1119594110465882e+16,320161718102500.25,372293330738276.25,8927604446921.31,18424915047502.566,297114135985557.6,6884249228924223.0
2.884496320956988,3242757511057125.5,1.1630017735644292e+16,322582444573916.7,375108221733761.44,9522904743089.496,19654520207445.293,316943542954568.56,7343448590374399.0
3.0421862473761276,3265442395994562.5,1.214922226236067e+16,324839087465822.8,377732311582497.06,10131531652219.1,20911780502166.13,337219081376872.1,7812946073786550.0
3.2030299723236504,3286633703737624.5,1.2677491325841092e+16,326947152555429.3,380183630851973.0,10753600190293.56,22196942045275.348,357944729755139.44,8292831566705343.0
3.3670905717701234,3306468430806250.5,1.321510151123734e+16,328920267957765.6,382478026709640.1,11389244977327.105,23510291758903.64,379125125061764.1,8783210123965687.0
3.5344323832055258,3325067487066962.0,1.3762324085121094e+16,330770461522662.06,384629485488170.06,12038618181306.73,24852153151816.758,400765494681537.25,9284200385028638.0
3.7051210308696363,3342537999942273.0,1.4319426428332018e+16,332508390052481.1,386650399226474.7,12701887821152.607,26222882838291.66,422871600299471.9,9795933268151864.0
3.879223451487029,3358975230667490.0,1.4886673232678332e+16,334143529927162.2,388551787334039.6,13379236361035.742,27622867658302.965,445449691485257.8,1.0318550889245076e+16
4.0568079205167695,3374464177423219.0,1.5464327509377178e+16,335684336580348.0,390343482034385.06,14070859542721.67,29052522289108.605,468506467202129.1,1.0852205664305228e+16
4.237944078927105,3389080923956679.0,1.605265144628307e+16,337138378657288.75,392034284367770.25,14776965413591.764,30512287260967.324,492049043833017.3,1.1397059562793762e+16
4.422702960505647,3402893779977834.5,1.6651907142826482e+16,338512451458962.56,393632096107305.75,15497773516483.467,32002627307219.195,516084928599075.9,1.195328348585959e+16
4.61115701971576,3415964250158132.5,1.7262357245426704e+16,339812673335959.6,395144031848554.5,16233514214103.562,33524029992597.34,540621997465477.75,1.2521056748411884e+16
4.803380160110075,3428347861240402.5,1.7884265501440856e+16,341044567967567.7,396576514686039.8,16984428125958.617,35077004574336.246,565668476801954.2,1.3100566648044584e+16
4.9994477633122765,3440094871059612.0,1.851789724608124e+16,342213134893610.9,397935358229718.4,17750765659847.78,36662081059098.62,591232928201831.6,1.3692008106977536e+16
5.199436718578522,3451250878787892.0,1.916351983391615e+16,343322910220295.9,399225837195486.8,18532786623223.54,38279809425464.945,617324235971746.8,1.429558337569206e+16
5.403425452950093,3461857352167438.0,1.9821403024359492e+16,344378019068186.75,400452748393224.25,19330759902335.355,39930758987110.11,643951596891017.0,1.4911501788950178e+16
5.611493962009095,3471952084667396.5,2.0491819328814676e+16,345382221049180.4,401620463608719.94,20144963199170.246,41615517876119.32,671124511909321.0,1.5539979566504754e+16
5.823723841249277,3481569593235141.5,2.117504432575529e+16,346338949833931.6,402732975613840.06,20975682817901.523,43334692629398.516,698852779507962.0,1.618123965211712e+16
6.040198318074262,3490741465486067.0,2.1871356948920024e+16,347251347689541.4,403793938327938.56,21823213493938.844,45088907863980.21,727146490495763.0,1.6835511585562814e+16
6.261002284435747,3499496663695992.5,2.258103975291227e+16,348122295720048.44,404806701982388.75,22687858259800.05,46878806029354.06,756016024048248.0,1.7503031403176424e+16
6.486222330124463,3507861791754408.5,2.3304379159775424e+16,348954440422371.5,405774344000598.0,23569928342949.305,48705047226860.336,785472044829533.4,1.818404156319867e+16
6.715946776726952,3515861330250240.0,2.4041665689534424e+16,349750217072111.44,406699696191696.4,24469743091512.01,50568309087757.37,815525501061730.6,1.8878790892779396e+16
6.950265712261491,3523517844049402.0,2.4793194177214364e+16,350511870372928.06,407585368762234.0,25387629924405.996,52469286702882.234,846187623427694.8,1.958753455397484e+16
7.18927102650672,3530852166053546.5,2.5559263978458476e+16,351241472736447.75,408433771572585.7,26323924302953.938,54408692597901.516,877469924710443.0,2.0310534026484612e+16
7.433056447036854,3537883560272482.5,2.6340179165544252e+16,351940940504361.75,409247133000479.1,27278969721480.324,56387256749058.32,909384200087110.8,2.104805710520935e+16
7.681717575977592,3544629866880042.5,2.7136248715330064e+16,352612048378261.8,410027516720421.4,28253117714761.45,58405726635075.14,941942528007561.2,2.18003779109939e+16
7.935351927497144,3551107631535131.0,2.7947786690441028e+16,353256442284218.0,410776836663009.8,29246727880505.92,60464867321512.29,975157271598026.0,2.2567776913158616e+16
8.194058966047088,3557332220925336.5,2.8775112414821572e+16,353875650866804.25,411496870380513.9,30260167915301.47,62565461574414.305,1009041080538783.9,2.3350540962620412e+16
8.45794014536803,3563317926215975.0,2.961855064462049e+16,354471095779985.44,412189271013421.0,31293813662683.555,64708310000535.44,1043606893372234.9,2.4148963334575636e+16
8.72709894827539,3569078055856906.0,3.047843173524978e+16,355044100919333.6,412855578025920.1,32348049172167.03,66894231211815.73,1078867940203970.1,2.496334377985964e+16
9.0016409272409,3574625019002668.0,3.1355091805344988e+16,355595900720484.6,413497226855594.1,33423266768241.266,69124062012114.02,1114837745764674.0,2.5793988584221276e+16
9.281673745785717,3579970400635377.0,3.2248872898261816e+16,356127647632200.2,414115557603305.25,34519867128460.984,71398657604477.27,1151530132805277.0,2.6641210634852736e+16
9.567307220701432,3585125029337263.5,3.316012314166447e+16,356640418858228.6,414711822872834.4,35638259369884.9,73718891817472.61,1188959225801620.0,2.750532949360718e+16
9.85865336511546,3590099038538220.5,3.4089196905694996e+16,357135222450079.2,415287194855734.0,36778861143207.8,76085657349310.44,1227139454948260.0,2.838667147641021e+16
10.155826432417769,3594901921959706.5,3.503645496015284e+16,357613002822466.25,415842771744838.25,37942098734022.27,78499866028665.72,1266085560423830.2,2.928556973843929e+16
10.458942961066125,3599542583886212.5,3.6002264631065464e+16,358074645754192.44,416379583549448.1,39128407170712.81,80962449091260.0,1305812596913010.0,3.020236436470063e+16
10.768121820287448,3604029384818592.5,3.698699995698968e+16,358520982929654.9,416898597376317.5,40338230338555.5,83474357471397.7,1346335938372117.2,3.1137402465683004e+16
11.083484256693197,3608370182996626.0,3.799104184534299e+16,358952796069412.75,417400722232800.8,41572021099643.78,86036562107766.73,1387671283027318.5,3.209103827780944e+16
11.405153941827061,3612572372220254.0,3.9014778229037336e+16,359370820692561.9,417886813401849.94,42830241418314.3,88650054262912.48,1429834658596133.5,3.306363326844531e+16
11.733257020663602,3616642916348697.5,4.005860422365554e+16,359775749548636.1,418357676432728.0,44113362491782.83,91315845855888.03,1472842427724128.8,3.405555624525371e+16
12.067922161076874,3620588380813105.0,4.112292228539081e+16,360168235752409.7,418814070786250.1,45421864885739.57,94034969807651.03,1516711293630169.2,3.5067183469715456e+16
12.409280604298411,3624414961439927.5,4.220814236994579e+16,360548895651188.5,419256713168952.7,46756238674682.56,96808480398852.72,1561458305954583.8,3.6098898774657576e+16
12.75746621638438,3628128510849250.0,4.331468209257295e+16,360918311450859.2,419686280586738.6,48116983586794.6,99637453639724.45,1607100866805519.5,3.715109368565402e+16
13.112615540712067,3631734562662901.5,4.444296688941734e+16,361277033624054.6,420103413145162.5,49504609153193.414,102522987651811.89,1653656736999735.0,3.822416754618047e+16
13.474867851526309,3635238353731545.0,4.559343018031546e+16,361625583121262.9,420508716620572.06,50919634861406.266,105466203061363.7,1701144042494719.5,3.931852764642459e+16
13.844365208556836,3638644844567746.0,4.676651353318544e+16,361964453403456.7,420902764823710.2,52362590312935.77,108468243404215.69,1749581281009818.0,4.043458935566352e+16
14.221252512727972,3641958738151754.0,4.796266683013738e+16,362294112312857.0,421286101775089.1,53834015384802.9,111530275542051.31,1798987328834501.5,4.1572776258136296e+16
14.605677562982532,3645184497259576.0,4.9182348435420904e+16,362615003796693.0,421659243709433.3,55334460394961.65,114653490089952.39,1849381447822589.8,4.2733520292347544e+16
14.997791114242183,3648326360447494.5,5.0426025365320296e+16,362927549497300.0,422022680924689.7,56864486271500.24,117839101855181.44,1900783292571618.8,4.3917261893752584e+16
15.397746936527026,3651388356813169.0,5.1694173460098696e+16,363232150220530.3,422376879489535.56,58424664725544.02,121088350287167.62,1953212917787102.0,4.512445014077581e+16
15.805701875257567,3654374319641731.0,5.29872775580868e+16,363529187293229.25,422722282821896.7,60015578427793.06,124402499938686.16,2006690785831598.2,4.635554290413188e+16
16.221815912762718,3657287899034224.5,5.430583167200616e+16,363819023819493.2,423059313149753.75,61637821188631.48,127782840938249.23,2061237774459189.5,4.761100699941651e+16
16.64625223101797,3660132573606397.0,5.565033916761108e+16,364102005844429.0,423388372864401.9,63291998141750.94,131230689473742.72,2116875184735937.5,4.889131834294432e+16
17.079177275638333,3662911661337010.5,5.7021312944729816e+16,364378463433333.0,423709845775350.4,64978725931241.31,134747388287359.89,2173624749147505.5,5.019696211081794e+16
17.5207608211511,3665628329637631.5,5.8419275620778504e+16,364648711673401.8,424024098275134.1,66698632902102.984,138334307181902.6,2231508639895150.5,5.15284329012132e+16
17.97117603757412,3668285604708676.5,5.984475971682217e+16,364913051604452.4,424331480421592.4,68452359294140.766,141992843538534.88,2290549477381698.0,5.288623489987296e+16
18.430599558325603,3670886380240579.0,6.129830784624736e+16,365171771084502.56,424632326944385.0,70240557439202.93,145724422846086.4,2350770338889319.5,5.4270882048803304e+16
18.899211549492115,3673433425513578.0,6.278047290611668e+16,365425145595510.6,424926958181926.44,72063891961733.52,149530499242016.88,2412194767451051.5,5.568289821817076e+16
19.37719578048196,3675929392944554.0,6.429181827126105e+16,365673438994127.1,425215680954392.25,73923039982605.56,153412556065165.75,2474846780918418.0,5.712281738140183e+16
19.864739696091597,3678376825125089.5,6.58329179911747e+16,365916904211817.6,425498789377829.75,75818691326208.73,157372106420418.88,2538750881227307.0,5.859118379348592e+16
20.36203449001343,3680778161390850.5,6.7404356989765896e+16,366155783908375.06,425776565624090.9,77751548730761.75,161410693755444.47,2603932063865051.5,6.008855217249131e+16
20.869275179813698,3683135743958953.5,6.900673126802117e+16,366390311082454.56,426049280630774.4,79722328061828.08,165529892449641.44,2670415827541086.5,6.161548788429641e+16
21.38666068340997,3685451823666826.0,7.064064810963267e+16,366620709642453.94,426317194765067.06,81731758529004.55,169731308415476.28,2738228184064398.0,6.3172567130549416e+16
21.91439389707817,3687728565342877.0,7.230672628964202e+16,366847194940784.6,426580558445000.9,83780582905765.22,174016579712374.38,2807395668430665.5,6.476037713986444e+16
22.452681775019734,3689968052837018.5,7.400559628614717e+16,367069974274291.3,426839612721366.2,85869557752426.95,178387377173349.06,2877945349122391.5,6.637951636226618e+16
23.00173541052013,3692172293736549.5,7.573790049511958e+16,367289247353380.3,427094589823220.1,87999453642223.14,182845405044559.8,2949904838625312.5,6.803059466689426e+16
23.561770118730532,3694343223790764.5,7.750429344837797e+16,367505206742174.06,427345713669712.75,90171055390451.52,187392401637992.84,3023302304164676.0,6.971423354298231e+16
24.133005521105144,3696482711065842.5,7.930544203476024e+16,367718038271822.2,427593200350699.5,92385162286671.92,192030139997477.47,3098166478664952.5,7.143106630412277e+16
24.715665631527248,3698592559849533.5,8.114202572453506e+16,367927921428935.2,427837258578421.44,94642588329934.12,196760428578238.44,3174526671936737.0,7.318173829583325e+16
25.309978944157795,3700674514323896.0,8.301473679709528e+16,368135029720943.0,428078090112352.44,96944162466993.47,201585111940212.12,3252412782094726.0,7.49669071064362e+16
25.91617852304095,3702730262022661.5,8.492428057196966e+16,368339531020019.9,428315890159133.3,99290728833499.4,206506071455352.3,3331855307210851.0,7.67872427812683e+16
26.53450209350177,3704761437088499.0,8.687137564318939e+16,368541587887118.0,428550847749355.1,101683146998113.3,211525226029150.66,3412885357206588.5,7.864342804023069e+16
27.165192135371807,3706769623344376.0,8.885675411704491e+16,368741357877490.06,428783146092839.6,104122292209529.56,216644532836623.97,3495534665988738.5,8.053615849869506e+16
27.808495978079243,3708756357191897.5,9.088116185326747e+16,368938993829021.94,429012962913914.75,106609055646357.77,221865988072996.84,3579835603833083.0,8.246614289178022e+16
28.464665897640828,3710723130348765.5,9.294535870966542e+16,369134644134535.1,429240470768063.9,109144344669830.12,227191627719347.53,3665821190020346.5,8.44341033020045e+16
29.133959215593645,3712671392436331.0,9.505011879024662e+16,369328452999201.5,429465837341244.75,111729083079293.7,232623528323463.84,3753525105729081.0,8.644077539033798e+16
29.816638399905518,3714602553427482.0,9.719623069685248e+16,369520560684051.5,429689225733054.75,114364211370437.8,238163807796181.0,3842981707190217.0,8.848690863065094e+16
30.51297116790363,3716517985964475.0,9.938449778433472e+16,369711103736540.1,429910794724838.8,117050686996214.12,243814626223460.6,3934226039108020.5,9.057326654758114e+16
31.223230591261704,3718419027555218.0,1.0161573841929469e+17,369900215209044.2,430130699033761.94,119789484630393.72,249578186694503.4,4027293848352573.5,9.270062695781934e+16
31.947695203086937,3720306982656547.0,1.0389078624241034e+17,370088024866079.3,430349089553767.75,122581596433709.52,255456736146158.62,4122221597928603.0,9.486978221482549e+16
32.686649107148675,3722183124651487.5,1.0621049043437109e+17,370274659381015.8,430566113584329.7,125428032322519.48,261452566223930.03,4219046481226037.0,9.708153945698162e+16
33.44038208929165,3724048697728031.0,1.0857571598543763e+17,370460242522961.4,430781915047757.6,128329820239934.72,267568014159873.56,4317806436557516.0,9.933672085918128e+16
34.20918973107749,3725904918665524.5,1.1098734396864664e+17,370644895334472.1,430996634695849.75,131288006429335.33,273805463667675.22,4418540161988160.0,1.0163616388786568e+17
34.993373525699035,3727752978534936.5,1.1344627181666949e+17,370828736300693.1,431210410306569.06,134303655710211.95,280167345855221.25,4521287130463262.0,1.0398072155949862e+17
35.793240996213015,3729594044318509.0,1.159534136023404e+17,371011881510471.1,431423376871400.0,137377851756244.44,286656140154976.5,4626087605239441.0,1.0637126270248922e+17
36.60910581613728,3731429260454049.0,1.1850970032286218e+17,371194444809983.94,431635666773977.6,140511697375544.64,293274375272473.1,4732982655625111.0,1.0880867222255109e+17
37.44128793246003,3733259750308680.5,1.2111608018769638e+17,371376537949344.75,431847409960579.4,143706314792968.38,300024630153250.1,4842014173035929.0,1.1129385137149565e+17
38.29011369110923,3735086617586732.5,1.2377351891014035e+17,371558270722652.2,432058734102969.3,146962845934406.8,306909534968554.1,4953224887371491.0,1.1382771801945333e+17
39.15591596493141,3736910947675767.0,1.2648300000259518e+17,371739751101895.94,432269764754109.4,150282452712953.8,313931772120150.3,5066658383719133.0,1.164112069305112e+17
40.03903428423004,3738733808934934.5,1.2924552507552194e+17,371921085365114.3,432480625497188.1,153666317316848.53,321094077264571.3,5182359119391251.0,1.1904527004175205e+17
40.93981496991464,3740556253929182.0,1.3206211414007797e+17,372102378219172.3,432691438088387.6,157115642499072.3,328399240357156.5,5300372441302306.0,1.2173087674568277e+17
41.85861126931294,3742379320612823.5,1.349338059144313e+17,372283732917503.44,432902322593793.2,160631651868491.06,335850106716229.75,5420744603692151.0,1.2446901417603019e+17
42.7957834946992,3744204033465699.0,1.3786165813373616e+17,372465251373125.9,433113397520821.25,164215590182409.6,343449578107776.06,5543522786202187.0,1.2726068749688427e+17
43.751699164593184,3746031404584926.0,1.4084674786375987e+17,372647034267255.8,433324779944513.3,167868723640399.84,351200613850967.6,5668755112311041.0,1.3010692019516064e+17
