t(s),Total solute volume 1,Total retention volume 1,Total 1 volume 1,Total 2 volume 1,Total 3 volume 1,Total 4 volume 1,Total 5 volume 1,Total 6 volume 1
0.1,1392571168361754.5,6037270240607699.0,1452613831222594.2,3192085241023349.0,0.0,0.0,0.0,-0.09582846306271511
0.202,2064650752408520.5,8952919705743280.0,2153671651878233.0,4732651400245400.0,475947197.3938419,2604368863.1461124,140742516500.7581,1802078378566.2786
0.30604000000000003,2584174569165968.5,1.1208573490888346e+16,2695595685863165.0,5923519849541111.0,1203340022.6319842,6586131163.283415,361775668565.78125,4913821178347.331
0.41216080000000005,3024912530951772.0,1.3123783726515606e+16,3155336846502573.0,6933792589253090.0,2134057239.994856,11681200344.605549,646146689287.9203,9081797861294.92
0.5204040160000001,3416653503325319.0,1.482756220036865e+16,3563968418276665.5,7831752848682863.0,3246247294.7302985,17769866327.11108,986694417906.7214,14179719552271.56
0.6308120963200001,3774537157791313.0,1.6385471441338482e+16,3937282851328577.5,8652104311870027.0,4528108250.410685,24787488574.07244,1379645689041.0703,20138159062702.184
0.7434283382464002,4107433145423573.0,1.783592157040166e+16,4284532229070519.0,9415178283469880.0,5972844261.0054245,32696848066.354813,1822844341244.6934,26916398404106.89
0.8582969050113283,4421047413810330.0,1.9203624458979744e+16,4611668521759762.0,1.013405411694769e+16,7576576388.647972,41476700883.41531,2315060317011.7583,34490292867652.754
0.9754628431115548,4719299954169931.0,2.0505560444272132e+16,4922780738249300.0,1.0817717337533048e+16,9337309851.319138,51116121193.564186,2855656722251.0137,42846304166561.15
1.094972099973786,5005017999143473.0,2.17539801123708e+16,5220818012442944.0,1.1472648614236354e+16,11254360874.731705,61611362163.27392,3444407311357.4546,51978213513639.65
1.2168715419732616,5280318478847103.0,2.295806029695285e+16,5507988549700132.0,1.2103700438331308e+16,13328011724.64441,72963966733.94914,4081387399890.825,61885150695953.21
1.3412089728127268,5546834363172877.0,2.412488402386159e+16,5785995728321425.0,1.2714615952496084e+16,15559290285.518476,85179560537.86699,4766904471478.404,72570336548898.42
1.4680331522689813,5805856208847326.0,2.5260053279232596e+16,6056185749675693.0,1.330835340946853e+16,17949822664.78471,98267044748.21117,5501451915536.711,84040242458100.83
1.597393815314361,6058424708405824.0,2.6368089626724332e+16,6319644177595533.0,1.3887298315697186e+16,20501731088.798153,112238036963.22127,6285677049817.618,96304008207901.72
1.729341691620648,6305393465184210.0,2.7452705921147576e+16,6577261420027944.0,1.4453407326117532e+16,23217561194.214085,127106473065.00737,7120358385079.358,109373027398542.88
1.863928525453061,6547472904972796.0,2.8516996362130356e+16,6829778534019260.0,1.5008308899791192e+16,26100229128.199978,142888317552.2409,8006389102831.153,123260645697575.5
2.001207095962122,6785261808728870.0,2.956357296355764e+16,7077820118017559.0,1.5553375580149762e+16,29152982427.603188,159601349325.27222,8944764846639.795,137981937483061.28
2.1412312378813647,7019270473546565.0,3.059466578767408e+16,7321918471469375.0,1.6089777085271476e+16,32379370747.599655,177265001405.24884,9936574592067.762,153553538422436.53
2.284055862638992,7249938062604363.0,3.1612198029530976e+16,7562531692841208.0,1.661852007795405e+16,35783223800.5444,195900240134.4308,10982993767357.705,169993518900054.16
2.4297369798917723,7477645828751327.0,3.261784324438874e+16,7800057473364267.0,1.7140478477216448e+16,39368634685.47336,215529473893.93835,12085279054994.482,187321287893139.3
2.578331719489608,7702727348656868.0,3.3613069639297476e+16,8034843772447790.0,1.7656416917323648e+16,43139947324.99478,236176484311.96823,13244764472757.268,205557519964769.38
2.7298983538794,7925476552278722.0,3.4599174825474944e+16,8267197193351730.0,1.8167009153173092e+16,47101747086.288216,257866374906.76163,14462858445784.945,224724100103627.6
2.884496320956988,8146154100294494.0,3.557731342332242e+16,8497389635592593.0,1.8672852678833516e+16,51258853910.09398,280625533462.0952,15741041658602.016,244844082555804.47
3.0421862473761276,8364992505744384.0,3.654851923492448e+16,8725663637414736.0,1.917448046752681e+16,55616317444.754555,304481605381.34686,17080865530235.096,265941660785506.28
3.2030299723236504,8582200288635638.0,3.751372323359186e+16,8952236709527970.0,1.967237049493577e+16,60179413805.91247,329463475942.70715,18483951194166.332,288042146408539.7
3.3670905717701234,8797965377038464.0,3.847376829443464e+16,9177304882847736.0,2.016695353529739e+16,64953643672.063255,355601259868.7003,19951988892850.293,311171955454660.3
3.5344323832055258,9012457914702288.0,3.942942135840951e+16,9401045637166602.0,2.06586195971037e+16,69944731492.09964,382926296984.2198,21486737717096.773,335358600691357.25
3.7051210308696363,9225832596600580.0,4.038138355514446e+16,9623620337400208.0,2.114772327670704e+16,75158625630.17197,411471153006.65216,23090025635960.766,360630689022054.75
3.879223451487029,9438230625551968.0,4.133029868754976e+16,9845176274571556.0,2.163458824334476e+16,80601499310.3393,441269624715.05316,24763749774359.617,387017923183088.8
4.0568079205167695,9649781362125592.0,4.227676039061225e+16,1.0065848386854942e+16,2.211951102110113e+16,86279752251.86395,472356748900.74744,26509876904475.227,414551107124946.4
4.237944078927105,9860603724343504.0,4.322131820885764e+16,1.0285760719628952e+16,2.2602764197346516e+16,92200012907.90938,504768814621.6688,28330444123820.02,443262154587350.0
4.422702960505647,1.0070807381803032e+16,4.416448278552022e+16,1.050502767108542e+16,2.3084599159939788e+16,98369141237.47478,538543378376.24274,30227559698158.6,473184100474262.6
4.61115701971576,1.0280493779744576e+16,4.510673031709932e+16,1.0723755060451844e+16,2.3565248444626876e+16,104794231953.83261,573719281886.1722,32203404051654.79,504351114710584.7
4.803380160110075,1.0489757021566052e+16,4.604850639659196e+16,1.0942041048556904e+16,2.4044927757966424e+16,111482618203.38731,610336672235.8109,34260230889925.633,536798518322210.75
4.9994477633122765,1.0698684632814036e+16,4.6990229345022024e+16,1.1159976934762376e+16,2.452383772857263e+16,118441875637.39133,648437024162.4375,36400368444332.59,570562801528842.8
5.199436718578522,1.0907358225385694e+16,4.793229311230444e+16,1.1377647849803402e+16,2.5002165429618812e+16,125679826845.8168,688063164329.333,38626220827970.74,605681643677337.4
5.403425452950093,1.1115854077278678e+16,4.887506981378408e+16,1.1595133360535178e+16,2.548008570775676e+16,133204546128.24384,729259297444.0125,40940269495545.96,642193934874344.5
5.611493962009095,1.1324243640517848e+16,4.9818911957081176e+16,1.1812507999759942e+16,2.5957762347401656e+16,141024364581.16913,772071034108.8384,43345074800741.055,680139799202293.2
5.823723841249277,1.1532593987717734e+16,5.076415440448201e+16,1.2029841732043654e+16,2.6435349094355596e+16,149147875484.877,816545420311.7048,45843277645830.44,719560619423432.9
6.040198318074262,1.1740968205986632e+16,5.171111610853829e+16,1.2247200364604096e+16,2.6912990558726136e+16,157583939976.0911,862730968481.3375,48437601219260.625,760499063093715.8
6.261002284435747,1.1949425745456788e+16,5.266010165238568e+16,1.24646459108683e+16,2.739082301383739e+16,166341692995.1947,910677690045.8373,51130852817710.02,802999110022428.1
6.486222330124463,1.2158022728562674e+16,5.3611402621269864e+16,1.2682236913086216e+16,2.786897510516696e+16,175430549498.95392,960437129444.7676,53925925749805.17,847106081025260.5
6.715946776726952,1.2366812225237512e+16,5.456529882764733e+16,1.2900028729392474e+16,2.834756848115924e+16,184860210931.46396,1012062399555.0051,56825801319230.13,892866667928388.5
6.950265712261491,1.2575844498411086e+16,5.552205940882886e+16,1.3118073789889524e+16,2.8826718355963004e+16,194640671947.57187,1065608218498.8275,59833550885436.1,940328964789402.5
7.18927102650672,1.2785167223540692e+16,5.648194381331491e+16,1.3336421825644002e+16,2.9306534012646468e+16,204782227384.30722,1121130947809.7993,62952338000557.73,989542500308020.8
7.433056447036854,1.2994825685364734e+16,5.744520268962847e+16,1.355512007392352e+16,2.9787119254201944e+16,215295479476.9507,1178688631937.9897,66185420621482.6,1040558271405421.2
7.681717575977592,1.320486295461415e+16,5.841207868948711e+16,1.3774213462527538e+16,3.026857280860851e+16,226191345317.31216,1238341039081.2407,69536153396311.92,1093428777956197.1
7.935351927497144,1.3415320047036574e+16,5.938280719551094e+16,1.399374477566801e+16,3.0750988693352508e+16,237481064552.58322,1300149703333.5066,73007990024698.53,1148208058661242.8
8.194058966047088,1.362623606676678e+16,6.035761698227407e+16,1.4213754803521512e+16,3.1234456544064812e+16,249176207323.83926,1364177968145.217,76604485691766.5,1204951728053719.5
8.45794014536803,1.3837648335804918e+16,6.133673081833275e+16,1.4434282477290112e+16,3.1719061911315256e+16,261288682443.84503,1430491031093.7896,80329299575498.64,1263717014633440.0
8.72709894827539,1.404959251113377e+16,6.232036601586527e+16,1.4655364991368484e+16,3.2204886529071828e+16,273830745814.35745,1499155989965.3,84186197427642.7,1324562800127859.0
9.0016409272409,1.4262102690809406e+16,6.330873493371104e+16,1.4877037914008698e+16,3.2692008557885016e+16,286815009083.5557,1570241890150.7864,88179054228327.78,1387549659880362.0
9.281673745785717,1.4475211510191346e+16,6.430204543886552e+16,1.5099335287699606e+16,3.318050280546935e+16,300254448544.6319,1643819773362.8806,92311856914701.81,1452739904368585.5
9.567307220701432,1.4688950229334404e+16,6.530050133087009e+16,1.5322289720326668e+16,3.367044092702553e+16,314162414276.9128,1719962727680.1765,96588707184011.4,1520197621857520.8
9.85865336511546,1.4903348812440094e+16,6.630430273299449e+16,1.5545932468049128e+16,3.416189160736143e+16,328552639531.1857,1798745938928.637,101013824371638.42,1589988722193700.0
10.155826432417769,1.5118436000158818e+16,6.731364645365023e+16,1.5770293510719542e+16,3.465492072662508e+16,343439250361.17816,1880246743410.5342,105591548404687.84,1662180981748302.2
10.458942961066125,1.5334239375440964e+16,6.832872632107331e+16,1.5995401620574188e+16,3.5149591511250612e+16,358836775503.3368,1964544681992.8503,110326342831797.56,1736844089518277.8
10.768121820287448,1.5550785423555092e+16,6.934973349396584e+16,1.6221284424839142e+16,3.5645964671533904e+16,374760156507.29913,2051721555568.1177,115222797929900.0,1814049694395726.5
11.083484256693197,1.576809958682155e+16,7.03768567504851e+16,1.6447968462823706e+16,3.6144098527094216e+16,391224758119.5878,2141861481901.6006,120285633888723.86,1893871453616845.5
11.405153941827061,1.5986206314548546e+16,7.141028275770679e+16,1.6675479238009572e+16,3.664404912133935e+16,408246378923.23535,2235050953879.664,125519704073872.58,1976385082402571.5
11.733257020663602,1.620512910860484e+16,7.245019632345723e+16,1.6903841265588542e+16,3.714587032592901e+16,425841262236.1657,2331378899174.7456,130929998369357.31,2061668404803983.8
12.067922161076874,1.642489056501665e+16,7.349678063220848e+16,1.7133078115852874e+16,3.764961393612377e+16,444026107271.2886,2430936741343.193,136521646600499.42,2149801405766122.8
12.409280604298411,1.6645512411934838e+16,7.455021746655522e+16,1.736321245379958e+16,3.8155329757815144e+16,462818080561.34735,2533818462372.525,142299922038151.9,2240866284424621.8
12.75746621638438,1.6867015544283196e+16,7.561068741563275e+16,1.7594266075272518e+16,3.86630656869474e+16,482234827651.6505,2640120666695.387,148270244985210.97,2334947508650102.5
13.112615540712067,1.7089420055366344e+16,7.667837007170336e+16,1.7826259939933186e+16,3.917286778196984e+16,502294485063.8877,2749942646687.5796,154438186446421.4,2432131870855785.0
13.474867851526309,1.7312745265687832e+16,7.775344421601314e+16,1.8059214201321484e+16,3.968478032989485e+16,523015692534.28845,2863386449668.1094,160809471882482.34,2532508545084200.5
13.844365208556836,1.753700974920452e+16,7.883608799491563e+16,1.829314823424171e+16,4.019884590647857e+16,544417605529.41425,2980556946419.2354,167389985049498.44,2636169145389416.0
14.221252512727972,1.7762231357220512e+16,7.99264790871652e+16,1.8528080659687384e+16,4.07151054309918e+16,566519908042.9283,3101561901244.853,174185771924809.94,2743207785531415.5
14.605677562982532,1.7988427240105684e+16,8.102479486319365e+16,1.876402936749539e+16,4.123359821600344e+16,589342825676.6794,3226512043585.5024,181203044720262.3,2853721139999600.5
14.997791114242183,1.8215613867004924e+16,8.213121253711635e+16,1.9001011536905764e+16,4.175436201255869e+16,612907139009.4944,3355521141208.454,188448185983968.34,2967808506382858.5
15.397746936527026,1.8443807043689748e+16,8.324590931213954e+16,1.9239043655182604e+16,4.227743305109973e+16,637234197257.0048,3488706074991.3574,195927752791629.22,3085571869103607.0
15.805701875257567,1.867302192869048e+16,8.43690625199849e+16,1.9478141534441816e+16,4.2802846078442984e+16,662345932225.9143,3626186915317.781,203648481028475.06,3207115964533617.5
16.221815912762718,1.8903273047832692e+16,8.550084975489402e+16,1.9718320326814596e+16,4.333063439110166e+16,688264872565.9993,3768087000102.989,211617289762880.3,3332548347509606.0
16.64625223101797,1.9134574307294124e+16,8.664144900272686e+16,1.995959453806693e+16,4.386082986521376e+16,715014158323.1969,3914533014468.1,219841285712713.38,3461979459266590.0
17.079177275638333,1.936693900528414e+16,8.779103876562307e+16,2.0201978039782964e+16,4.439346298331529e+16,742617555797.035,4065655072080.5225,228327767805458.94,3595522696807354.5
17.5207608211511,1.960037984244313e+16,8.894979818266338e+16,2.044548408021271e+16,4.492856285817746e+16,771099472705.6394,4221586798178.5015,237084231833152.34,3733294483726150.5
17.97117603757412,1.9834908931047856e+16,9.011790714692611e+16,2.069012529387423e+16,4.546615725390751e+16,800484973661.5023,4382465414297.0317,246118375203144.38,3875414342505224.5
18.430599558325603,2.0070537803103744e+16,9.129554641930576e+16,2.0935913709994852e+16,4.6006272604498376e+16,830799795961.1348,4548431824712.356,255438101785701.6,4022004968302441.5
18.899211549492115,2.030727741739747e+16,9.248289773943781e+16,2.1182860759867788e+16,4.65489340299945e+16,862070365691.617,4719630704621.582,265051526859426.22,4173192304248458.5
19.37719578048196,2.0545138165578144e+16,9.36801439340375e+16,2.143097728319577e+16,4.709416535043189e+16,894323814157.0618,4896210590073.842,274966982155467.34,4329105618272019.0
19.864739696091597,2.078412987732988e+16,9.488746902294784e+16,2.1680273533486436e+16,4.764198909769435e+16,927587994627.7932,5078323969668.48,285193021001457.75,4489877581471553.0
20.36203449001343,2.1024261824693376e+16,9.61050583231689e+16,2.1930759182560264e+16,4.819242652542003e+16,961891499415.1011,5266127378035.786,295738423566092.75,4655644348051684.0
20.869275179813698,2.1265542725591e+16,9.733309855111586e+16,2.218244332422753e+16,4.874549761708108e+16,997263677274.1547,5459781491114.605,306612202205243.0,4826545636842722.0
21.38666068340997,2.150798074660445e+16,9.85717779233486e+16,2.243533447718612e+16,4.930122109235173e+16,1033734651137.7034,5659451223241.0625,317823606910448.2,5002724814421538.0
21.91439389707817,2.175158350505221e+16,9.98212862559844e+16,2.268944058718829e+16,4.985961441186942e+16,1071335336182.9231,5865305826061.487,329382130860618.44,5184328979851629.0
22.452681775019734,2.1996358070410012e+16,1.010818150630094e+17,2.2944769028522204e+16,5.042069378049124e+16,1110097458233.7573,6077518989282.288,341297516077725.75,5371509051060646.0
23.00173541052013,2.224231096511421e+16,1.0235355765367606e+17,2.3201326604850384e+16,5.09844741491358e+16,1150053572500.8564,6296268943268.434,353579759187229.06,5564419852872741.0
23.561770118730532,2.2489448164786964e+16,1.0363670922917418e+17,2.345911954944427e+16,5.1550969215298904e+16,1191237082661.152,6521738563501.523,366239117283941.6,5763220206713871.0
24.133005521105144,2.273777509791838e+16,1.049314669787443e+17,2.3718153524852732e+16,5.212019142232508e+16,1233682260278.8435,6754115476907.521,379286113903989.1,5968073022006866.0
24.715665631527248,2.2987296645038852e+16,1.0623803017540064e+17,2.3978433622038876e+16,5.2692151957511064e+16,1277424264569.533,6993592170063.302,392731545103480.94,6179145389273823.0
25.309978944157795,2.3238017137414228e+16,1.075566002714158e+17,2.423996435901868e+16,5.326686074911404e+16,1322499162508.9111,7240366099290.025,406586485644450.8,6396608674962685.0
25.91617852304095,2.3489940355293104e+16,1.088873809937155e+17,2.4502749679033004e+16,5.3844326462334456e+16,1368943949287.352,7494639802640.533,420862295288572.75,6620638618014497.0
26.53450209350177,2.374306952573482e+16,1.1023057843932426e+17,2.476679294828173e+16,5.442455649433771e+16,1416796569111.4553,7756621013786.811,435570625199112.8,6851415428187882.0
27.165192135371807,2.3997407320045816e+16,1.1158640117099533e+17,2.503209695324988e+16,5.500755696837721e+16,1466095936353.4485,8026522777812.189,450723424451507.0,7089123886156726.0
27.808495978079243,2.4252955850849612e+16,1.1295506031315418e+17,2.5298663897650744e+16,5.559333272707812e+16,1516881957049.1135,8304563568912.194,466332946652904.8,7333953445396798.0
28.464665897640828,2.450971666881564e+16,1.1433676964827778e+17,2.55664953990142e+16,5.618188732493962e+16,1569195550744.6453,8590967410006.232,482411756670941.7,7586098335876688.0
29.133959215593645,2.4767690759070896e+16,1.1573174571383077e+17,2.5835592484943468e+16,5.67732230201095e+16,1623078672692.6968,8885963994261.455,498972737471957.75,7845757669568136.0
29.816638399905518,2.5026878537317076e+16,1.1714020789986907e+17,2.6105955589064516e+16,5.736734076548351e+16,1678574336397.5017,9189788808528.428,516029097068794.1,8113135547790267.0
30.51297116790363,2.528727984567563e+16,1.1856237854742539e+17,2.6377584546692652e+16,5.7964240199181656e+16,1735726636508.8145,9502683258687.043,533594375578228.44,8388441170401972.0
31.223230591261704,2.5548893948282468e+16,1.1999848304778262e+17,2.6650478590236604e+16,5.85639196344502e+16,1794580772064.1187,9824894796899.766,551682452388049.3,8671888946856311.0
31.947695203086937,2.5811719526652984e+16,1.214487499427391e+17,2.6924636344364188e+16,5.9166376049037144e+16,1855183070078.2007,10156677050767.447,570307553433687.2,8963698609130160.0
32.686649107148675,2.6075754674838084e+16,1.2291341102596654e+17,2.7200055820949196e+16,5.977160507408939e+16,1917581009479.075,10498289954381.871,589484258584230.6,9264095326541838.0
33.44038208929165,2.6340996894391476e+16,1.2439270144556262e+17,2.7476734413821812e+16,6.037960098261566e+16,1981823245388.7656,10849999881267.191,609227509137591.5,9573309822469490.0
34.20918973107749,2.660744308916727e+16,1.2588685980789074e+17,2.775466889334192e+16,6.0990356677562584e+16,2047959633747.3027,11212079779201.297,629552615424489.5,9891578492981506.0
34.993373525699035,2.6875089559968116e+16,1.2739612828280563e+17,2.803385540081644e+16,6.160386367954632e+16,2116041256277.9053,11584809306905.805,650475264520850.8,1.0219143527390736e+16
35.793240996213015,2.7143931999062296e+16,1.2892075271035674e+17,2.8314289442779904e+16,6.22201121142847e+16,2186120445791.0789,11968474972592.541,672011528068112.1,1.0556253030743302e+16
36.60910581613728,2.741396548458905e+16,1.304609827090597e+17,2.8595965885158972e+16,6.283909069977324e+16,2258250811824.9204,12363370274351.674,694177870200847.0,1.0903161148251512e+16
37.44128793246003,2.7685184474870824e+16,1.3201707178582933e+17,2.8878878947339e+16,6.346078673324775e+16,2332487266618.797,12769795842365.969,716991155581036.9,1.1260128191681772e+16
38.29011369110923,2.7957582802651456e+16,1.3358927744765933e+17,2.9163022196154056e+16,6.408518607797602e+16,2408886051417.0215,13188059582932.69,740468657538210.9,1.1627420767705222e+16
39.15591596493141,2.8231153669278068e+16,1.3517786131514086e+17,2.9448388539817788e+16,6.471227314992269e+16,2487504763098.9526,13618476824273.998,764628066314581.6,1.2005311908220296e+16
