t(s),Total solute volume 1,Total retention volume 1,Total 1 volume 1,Total 2 volume 1,Total 3 volume 1,Total 4 volume 1,Total 5 volume 1,Total 6 volume 1
0.1,1389665646485961.5,7115728075414663.0,1732020487244934.5,3994041941683769.0,0.0,0.0,0.0,0.004426733051481951
0.202,2041496333324142.2,1.0509327906830724e+16,2544435711073032.0,5867488053361767.0,18383100769.218296,108108905500.91634,5517044235264.366,50264272830252.23
0.30604000000000003,2540891845254494.5,1.3163198914565414e+16,3166861534579555.5,7302808646196403.0,46218277088.712685,271908903384.70657,14238647263521.324,138080114090966.1
0.41216080000000005,2958731794886383.0,1.543233367988821e+16,3687639853594617.0,8503728423353920.0,81538217389.52628,479774716028.3716,25411175313018.996,256261119806845.44
0.5204040160000001,3324528812109816.5,1.746354833869532e+16,4143554013583345.0,9555070612258764.0,123388278494.9167,726081475253.0842,38696378739033.81,400849052250612.94
0.6308120963200001,3653492433957652.5,1.9332067508198604e+16,4553560556882355.0,1.0500549308398996e+16,171208365250.4019,1007530121692.8339,53902500921416.32,569383969551253.6
0.7434283382464002,3954612981925218.5,2.1082117633534492e+16,4928864648972059.0,1.136600377569654e+16,224635688723.6679,1321984001643.5461,70906810020284.84,760182797230025.2
0.8582969050113283,4233715973637632.5,2.274222052262891e+16,5276726973830495.0,1.2168177240511694e+16,283422267839.5996,1667982677535.1777,89625701762392.89,972023227941332.8
0.9754628431115548,4494828761987180.5,2.4332019748380416e+16,5602167057126756.0,1.2918644787133336e+16,347393787403.5546,2044499555275.3193,110000392633698.7,1203986856156777.2
1.094972099973786,4740871864406969.0,2.586572509707253e+16,5908824910610649.0,1.3625800323395424e+16,416426520913.2631,2450805959212.0923,131989055612086.78,1455371710567266.2
1.2168715419732616,4974042032927096.0,2.7354015664795976e+16,6199438474826066.0,1.429595757026198e+16,490433258522.85126,2886388256043.7715,155562074124609.2,1725638691141646.5
1.3412089728127268,5196039880358935.0,2.8805166952293896e+16,6476127322973398.0,1.493400428657442e+16,569354173968.6536,3350894069299.215,180698978137068.78,2014376236006804.0
1.4680331522689813,5408212829903154.0,3.0225755961092148e+16,6740570827379923.0,1.5543813123079428e+16,653150604737.5105,3844095651203.609,207386362820345.6,2321275571653338.0
1.597393815314361,5611649009360905.0,3.1621122276918828e+16,6994125185351384.0,1.6128511485392178e+16,741800652471.1575,4365863974117.759,235616417733270.66,2646112514454496.0
1.729341691620648,5807241259451221.0,3.2995680824217904e+16,7237903196482932.0,1.6690665501367814e+16,835295975083.7748,4916149839907.931,265385854637256.8,2988733566463689.0
1.863928525453061,5995732153223142.0,3.435314063279083e+16,7472830372985637.0,1.7232409412130392e+16,933639389646.1752,5494969763831.871,296695106335802.8,3349044978962354.5
2.001207095962122,6177746511550262.0,3.5696661925361856e+16,7699685465648805.0,1.7755539025381696e+16,1036843044635.45,6102395211368.584,329547715967809.5,3727003968557283.5
2.1412312378813647,6353815427829663.0,3.702897149658502e+16,7919130407227140.0,1.826158076517533e+16,1144927002634.4238,6738544252175.333,363949863777326.1,4122611561320789.5
2.284055862638992,6524394370890754.0,3.835244914650178e+16,8131732875154560.0,1.8751843701777904e+16,1257918125400.725,7403574994708.501,399909995298702.5,4535906710259741.0
2.4297369798917723,6689877060337049.0,3.966919356509722e+16,8337983585193962.0,1.922745943101213e+16,1375849185746.4395,8097680356546.646,437438525688252.7,4966961433323503.0
2.578331719489608,6850606261514137.0,4.098107333422656e+16,8538309745837073.0,1.9689413100247964e+16,1498758152181.514,8821083852128.562,476547602071653.1,5415876782551400.0
2.7298983538794,7006882295373348.0,4.228976695756124e+16,8733085664645170.0,2.0138567866739016e+16,1626687606928.9758,9574036165917.05,517250910650597.56,5882779496380241.0
2.884496320956988,7158969826215522.0,4.359679467210585e+16,8922641208211058.0,2.0575684406386296e+16,1759684268157.6497,10356812339287.105,559563518731638.25,6367819215953882.0
3.0421862473761276,7307103333364756.0,4.4903544015211544e+16,9107268621825938.0,2.1001436639963884e+16,1897798594579.367,11169709442435.78,603501744291345.9,6871166167728597.0
3.2030299723236504,7451491564521189.0,4.621129058520345e+16,9287228079953536.0,2.1416424532571844e+16,2041084455851.6663,12013044633789.982,649083047478247.4,7393009231588966.0
3.3670905717701234,7592321192353899.0,4.752121505885263e+16,9462752243655516.0,2.1821184603108424e+16,2189598856116.141,12887153532294.324,696325939769703.4,7933554327576698.0
3.5344323832055258,7729759841363548.0,4.883441726232834e+16,9634050033147396.0,2.22161986238243e+16,2343401700889.7163,13792388844965.133,745249907482778.9,8493023065964465.0
3.7051210308696363,7863958612408364.0,5.015192789985086e+16,9801309774262882.0,2.2601900876102948e+16,2502555599688.864,14729119204835.69,795875347073657.0,9071651615198478.0
3.879223451487029,7995054203080408.0,5.14747184034948e+16,9964701841202820.0,2.2978684244667664e+16,2667125698400.0176,15697728184036.684,848223510215300.1,9669689750446202.0
4.0568079205167695,8123170700334499.0,5.280370926330611e+16,1.0124380890793266e+16,2.334690536980437e+16,2837179536653.222,16698613454081.033,902316457064918.4,1.028740005231829e+16
4.237944078927105,8248421105346047.0,5.413977711875108e+16,1.028048776300511e+16,2.370688902997965e+16,3012786926410.7256,17732186071045.605,958177016455783.6,1.0925057230967012e+16
4.422702960505647,8370908638065939.0,5.548376083332563e+16,1.0433151106896936e+16,2.405893189128218e+16,3194019848721.8438,18798869867696.926,1015828751997206.2,1.1582947555366962e+16
4.61115701971576,8490727859330129.0,5.683646672887853e+16,1.0582488779165808e+16,2.4403305732495244e+16,3380952366172.914,19899100938010.36,1075295933260502.4,1.2261368371322656e+16
4.803380160110075,8607965640934978.0,5.8198673121250904e+16,1.0728609053208972e+16,2.474026023320542e+16,3573660549016.619,21033327202212.32,1136603511381270.5,1.296062769476906e+16
4.9994477633122765,8722702008274885.0,5.957113427161959e+16,1.0871611669352192e+16,2.5070025395640132e+16,3772222413326.541,22202008042606.996,1199777098529051.8,1.3681043869367378e+16
5.199436718578522,8835010875563745.0,6.095458384656911e+16,1.1011588751199356e+16,2.539281365777906e+16,3976717869812.715,23405614002153.26,1264842950792005.0,1.442294527936299e+16
5.403425452950093,8944960690037559.0,6.234973796302516e+16,1.1148625608539718e+16,2.5708821744866656e+16,4187228682167.766,24644626539136.832,1331827954102051.0,1.5186670110257862e+16
5.611493962009095,9052614998644584.0,6.375729788072504e+16,1.128280144364707e+16,2.601823229814493e+16,4403838434002.9375,25919537832398.426,1400759612888935.2,1.597256615113304e+16
5.823723841249277,9158032948408716.0,6.517795239411458e+16,1.141418997491167e+16,2.6321215312955308e+16,4626632503588.611,27230850632493.207,1471666041203331.8,1.6780990633499446e+16
6.040198318074262,9261269729777454.0,6.661237996685694e+16,1.1542859989410952e+16,2.661792941297198e+16,4855698045740.871,28579078154905.54,1544575956091243.2,1.7612310102404672e+16
6.261002284435747,9362376970743738.0,6.8061250645074e+16,1.1668875834126354e+16,2.690852298295315e+16,5091123980301.019,29964744012061.305,1619518673037044.0,1.8466900316221372e+16
6.486222330124463,9461403088286602.0,6.952522777967766e+16,1.1792297853964514e+16,2.7193135178822184e+16,5333000986741.202,31388382181390.69,1696524103321220.2,1.934514617211501e+16
6.715946776726952,9558393602655338.0,7.100496958341779e+16,1.1913182783467866e+16,2.7471896830956364e+16,5581421504501.662,32850537007117.96,1775622753163092.8,2.024744165466352e+16
6.950265712261491,9653391419178618.0,7.250113054437382e+16,1.2031584098049912e+16,2.774493125413876e+16,5836479738724.631,34351763233806.73,1856845724538652.5,2.1174189805495348e+16
7.18927102650672,9746437081581980.0,7.401436271438586e+16,1.2147552329719532e+16,2.801235497562196e+16,6098271671099.725,35892626069982.05,1940224717580475.5,2.2125802712140876e+16
7.433056447036854,9837569000215034.0,7.554531688823166e+16,1.2261135351533906e+16,2.827427839107922e+16,6366895075576.809,37473701280392.914,2025792034480540.2,2.3102701514566972e+16
7.681717575977592,9926823658103588.0,7.709464368710931e+16,1.2372378634413326e+16,2.853080635682226e+16,6642449538736.646,39095575305681.39,2113580584828505.2,2.4105316428097252e+16
7.935351927497144,1.0014235797333404e+16,7.866299455809915e+16,1.2481325479442182e+16,2.8782038725489524e+16,6925036484638.01,40758845408391.85,2203623892327614.8,2.5134086781613424e+16
8.194058966047088,1.009983858792794e+16,8.02510226996878e+16,1.2588017228351124e+16,2.9028070831420524e+16,7214759203983.261,42464119844389.05,2295956102838588.0,2.618946107010123e+16
8.45794014536803,1.0183663781091888e+16,8.18593839220969e+16,1.2692493454513414e+16,2.9268993931095348e+16,7511722887463.364,44212018058869.87,2390611993708403.5,2.7271897020741516e+16
8.72709894827539,1.0265741848444532e+16,8.348873745001672e+16,1.2794792136479728e+16,2.9504895603307732e+16,7816034663159.095,46003170906241.555,2487626984346524.5,2.838186167186881e+16
9.0016409272409,1.034610210865774e+16,8.51397466743749e+16,1.2894949815814408e+16,2.9735860113137196e+16,8127803637887.22,47838220893214.59,2587037148015445.5,2.951983146421894e+16
9.281673745785717,1.0424772842733014e+16,8.6813079858942e+16,1.2993001740771948e+16,2.996196874326883e+16,8447140942390.535,49717822444514.625,2688879224806163.5,3.0686292343975188e+16
9.567307220701432,1.0501781398999112e+16,8.850941080686778e+16,1.3088981997161754e+16,3.018330009576876e+16,8774159780277.89,51642642190661.875,2793190635771945.5,3.18817398771952e+16
9.85865336511546,1.0577154288779742e+16,9.02294194916266e+16,1.3182923627584362e+16,3.03999303670443e+16,9108975480625.904,53613359277301.24,2900009498196034.5,3.3106679375264256e+16
10.155826432417769,1.0650917273567374e+16,9.19737926563349e+16,1.3274858740081336e+16,3.061193359839199e+16,9451705554158.076,55630665695585.195,3009374641970514.0,3.436162603107391e+16
10.458942961066125,1.0723095444442058e+16,9.374322438493864e+16,1.336481860711944e+16,3.08193819042564e+16,9802469752919.262,57695266633130.586,3121325627064762.0,3.5647105065669956e+16
10.768121820287448,1.0793713294389118e+16,9.553841664838827e+16,1.3452833755724596e+16,3.1022345680079972e+16,10161390133364.791,59807880845073.95,3235902762062667.0,3.696365188515347e+16
11.083484256693197,1.0862794784097542e+16,9.736007982856846e+16,1.3538934049490122e+16,3.1220893791415544e+16,10528591122783.977,61969241044754.375,3353147123748113.0,3.8311812247649576e+16
11.405153941827061,1.0930363401756998e+16,9.920893322246115e+16,1.3623148763105454e+16,3.1415093745790156e+16,10904199588976.49,64180094313546.81,3473100577718417.5,3.969214244018763e+16
11.733257020663602,1.0996442217317444e+16,1.0108570552876037e+17,1.3705506649982892e+16,3.160501184865377e+16,11288344913099.752,66441202529363.81,3595805800005197.5,4.1105209465358504e+16
12.067922161076874,1.1061053931627136e+16,1.0299113531893008e+17,1.378603600350134e+16,3.1790713344607944e+16,11681159065602.633,68753342813330.33,3721306299681726.0,4.255159123763304e+16
12.409280604298411,1.1124220920824172e+16,1.0492597149450818e+17,1.3864764712333998e+16,3.1972262544992776e+16,12082776685159.482,71117307994124.86,3849646442435432.5,4.4031876789242504e+16
12.75746621638438,1.118596527632051e+16,1.0689097373227626e+17,1.3941720310282898e+16,3.2149722942805756e+16,12493335160515.041,73533907089464.45,3980871475083348.5,4.55466664855337e+16
13.112615540712067,1.124630884068654e+16,1.0888691291877686e+17,1.4016930021003882e+16,3.232315731583879e+16,12912974715148.879,76003965804196.05,4115027551007735.5,4.709657224972049e+16
13.474867851526309,1.1305273239716824e+16,1.1091457157551806e+17,1.4090420797972118e+16,3.2492627818839344e+16,13341838494664.805,78528327044439.11,4252161756488136.0,4.868221779696255e+16
13.844365208556836,1.1362879910934586e+16,1.1297474427609472e+17,1.4162219360008856e+16,3.265819606543582e+16,13780072656807.91,81107851447208.75,4392322137905306.0,5.030423887770614e+16
14.221252512727972,1.141915012877139e+16,1.1506823805635266e+17,1.423235222266443e+16,3.2819923200507684e+16,14227826464009.654,83743417924934.19,4535557729791676.0,5.196328353022843e+16
14.605677562982532,1.1474105026641168e+16,1.1719587281863e+17,1.4300845725730382e+16,3.2977869963628996e+16,14685252378358.465,86435924224272.11,4681918583701937.0,5.36600123423249e+16
14.997791114242183,1.152776561611183e+16,1.1935848173103664e+17,1.436772605713426e+16,3.3132096744170364e+16,15152506158891.744,89186287498599.44,4831455797876892.0,5.53950987220858e+16
15.397746936527026,1.1580152803364288e+16,1.2155691162265445e+17,1.4433019273453346e+16,3.328266362860469e+16,15629746961102.719,91995444893567.25,4984221547672594.0,5.7169229177704856e+16
15.805701875257567,1.1631287403116906e+16,1.237920233754882e+17,1.4496751317269736e+16,3.342963044052809e+16,16117137438554.988,94864354145077.0,5140269116726471.0,5.898310360626335e+16
16.221815912762718,1.168119015018306e+16,1.2606469231393659e+17,1.4558948031575102e+16,3.3573056773878172e+16,16614843846495.902,97793994189049.34,5299652928831416.0,6.083743559143328e+16
16.64625223101797,1.1729881708820512e+16,1.2837580859250822e+17,1.4619635171423384e+16,3.3713002019805676e+16,17123036147360.248,100785365782339.67,5462428580488559.0,6.273295271004042e+16
17.079177275638333,1.177738268002308e+16,1.3072627758246256e+17,1.467883841301897e+16,3.3849525387632216e+16,17641888118055.35,103839492134166.6,5628652874109086.0,6.467039684742693e+16
17.5207608211511,1.1823713606898744e+16,1.3311702025801982e+17,1.473658336041964e+16,3.3982685920307984e+16,18171577458919.94,106957419547417.64,5798383851835328.0,6.665052452155179e+16
17.97117603757412,1.186889497827122e+16,1.3554897358275042e+17,1.4792895550025522e+16,3.4112542504763604e+16,18712285904250.11,110140218069206.5,5971680829951663.0,6.867410721576502e+16
18.430599558325603,1.1912947230637328e+16,1.380230908967229e+17,1.4847800453018696e+16,3.4239153877536492e+16,19264199334288.406,113388982150071.06,6148604433855682.0,7.074193172019029e+16
18.899211549492115,1.1955890748607032e+16,1.4054034230496483e+17,1.4901323475911652e+16,3.436257862603577e+16,19827507888573.938,116704831311210.92,6329216633560732.0,7.285480048164986e+16
19.37719578048196,1.1997745863948484e+16,1.4310171506776795e+17,1.4953489959357146e+16,3.448287518579852e+16,20402406080556.04,120088910819192.42,6513580779701625.0,7.501353196206246e+16
19.864739696091597,1.2038532853356544e+16,1.457082139933447e+17,1.500432517536693e+16,3.4600101834076332e+16,20989092913376.75,123542392367564.64,6701761640015817.0,7.721896100524814e+16
20.36203449001343,1.207827193505888e+16,1.4836086183332778e+17,1.5053854323081812e+16,3.471431668008165e+16,21587771996733.367,127066474764861.98,6893825436273748.0,7.947193921207003e+16
20.869275179813698,1.2116983264370566e+16,1.510606996815849e+17,1.510210252323108e+16,3.482557765221125e+16,22198651664736.812,130662384628503.11,7089839881633049.0,8.177333532384574e+16
21.38666068340997,1.2154686928303848e+16,1.5380878737680787e+17,1.5149094811414452e+16,3.4933942482554984e+16,22821945094688.355,134331377084122.9,7289874218392629.0,8.412403561396309e+16
21.91439389707817,1.2191402939337278e+16,1.566062039093171e+17,1.5194856130336124e+16,3.5039468688987572e+16,23457870426703.016,138074736469924.12,7493999256124554.0,8.652494428763482e+16
22.452681775019734,1.22271512284439e+16,1.5945404783251386e+17,1.5239411321115442e+16,3.5142213555131596e+16,24106650884116.098,141893777045668.2,7702287410163045.0,8.897698388973005e+16
23.00173541052013,1.2261951637475728e+16,1.623534376794003e+17,1.528278511379524e+16,3.5242234108469564e+16,24768514894615.855,145789843705974.7,7914812740432059.0,9.148109572062698e+16
23.561770118730532,1.2295823910997576e+16,1.653055123845716e+17,1.53250021171639e+16,3.533958709687416e+16,25443696212054.86,149764312697644.56,8131650990594936.0,9.403824026003122e+16
24.133005521105144,1.2328787687660584e+16,1.683114317120815e+17,1.5366086808003712e+16,3.543432896381492e+16,26132434038899.406,153818592340774.94,8352879627511845.0,9.66493975987109e+16
24.715665631527248,1.2360862491201532e+16,1.713723766895696e+17,1.5406063519872768e+16,3.5526515822489468e+16,26834973149286.99,157954123753481.6,8578577880993002.0,9.931556787811005e+16
25.309978944157795,1.2392067721150992e+16,1.7448955004902406e+17,1.5444956431524062e+16,3.5616203429118324e+16,27551564012669.35,162172381580102.78,8808826783838320.0,1.0203777173779962e+17
25.91617852304095,1.2422422643329466e+16,1.7766417667456013e+17,1.5482789555060234e+16,3.570344715562959e+16,28282462918029.656,166474874722809.8,9043709212156406.0,1.0481705077074355e+17
26.53450209350177,1.245194638020684e+16,1.8089750405756816e+17,1.5519586723918028e+16,3.5788301961951372e+16,29027932098670.152,170863147076610.03,9283309925958744.0,1.0765446798635798e+17
27.165192135371807,1.2480657901196706e+16,1.841908027595923e+17,1.555537158077161e+16,3.5870822368116948e+16,29788239857577.652,175338778267778.4,9527715610027344.0,1.1055110828135416e+17
27.808495978079243,1.2508576012953292e+16,1.875453668832821e+17,1.5590167565438896e+16,3.595106242637678e+16,30563660693383.145,179903384395817.44,9777014915057020.0,1.1350807891836688e+17
28.464665897640828,1.2535719349734232e+16,1.9096251455176426e+17,1.5623997902870434e+16,3.6029075693500776e+16,31354475426941.5,184558618779094.84,1.0031298499076192e+16,1.1652651001237662e+17
29.133959215593645,1.2562106363889112e+16,1.9444358839676077e+17,1.5656885591294416e+16,3.610491520344093e+16,32160971328566.53,189306172704368.94,1.029065906915261e+16,1.1960755502495074e+17
29.816638399905518,1.2587755316528668e+16,1.9798995605578413e+17,1.5688853390587334e+16,3.617863344051399e+16,32983442245966.48,194147776180462.66,1.0555191423393686e+16,1.2275239126633413e+17
30.51297116790363,1.261268426842603e+16,2.0160301067873114e+17,1.571992381093364e+16,3.6250282313250616e+16,33822188732933.402,199085198696403.03,1.0824992493252954e+16,1.2596222040543877e+17
31.223230591261704,1.2636911071196822e+16,2.0528417144418534e+17,1.5750119101833004e+16,3.6319913129045976e+16,34677518178848.76,204120249984393.03,1.1100161386157738e+16,1.2923826898778846e+17
31.947695203086937,1.2660453358800848e+16,2.090348840857381e+17,1.577946124150835e+16,3.6387576569734904e+16,35549744939076.55,209254780788029.78,1.1380799428474922e+16,1.3258178896149184e+17
32.686649107148675,1.2683328539403644e+16,2.1285662142863302e+17,1.580797192676242e+16,3.645332266820098e+16,36439190466321.96,214490683636236.47,1.1667010208834608e+16,1.3599405821132888e+17
33.44038208929165,1.2705553787632366e+16,2.167508839370256e+17,1.5835672563325882e+16,3.651720078611891e+16,37346183443042.92,219829893623411.78,1.1958899621833714e+16,1.394763811010481e+17
34.20918973107749,1.2727146037255912e+16,2.2071920027215158e+17,1.5862584256734176e+16,3.657925959291686e+16,38271059915006.766,225274389196345.47,1.2256575912143682e+16,1.4303008902398968e+17
34.993373525699035,1.2748121974315492e+16,2.2476312786169293e+17,1.5888727803765648e+16,3.663954704603245e+16,39214163426093.06,230826192948495.56,1.2560149719048908e+16,1.4665654096215578e+17
35.793240996213015,1.2768498030727492e+16,2.2888425348061654e+17,1.5914123684468418e+16,3.669811037252694e+16,40175845154447.66,236487372422236.5,1.2869734121444094e+16,1.5035712405387293e+17
36.60910581613728,1.2788290378376864e+16,2.3308419384377e+17,1.5938792054798728e+16,3.675499605210855e+16,41156464050099.836,242260040919748.25,1.318544468332107e+16,1.5413325417019485e+17
37.44128793246003,1.2807514923715398e+16,2.3736459621049997e+17,1.5962752739888374e+16,3.681024980160755e+16,42156386974158.914,248146358323221.06,1.3507399499776846e+16,1.5798637650021434e+17
