t(s),Total solute volume 1,Total retention volume 1,Total 1 volume 1,Total 2 volume 1,Total 3 volume 1,Total 4 volume 1,Total 5 volume 1,Total 6 volume 1
0.1,1252217186918146.0,2056959543180943.2,321479351742078.75,483263004520719.3,0.0,0.0,0.0,0.0
0.202,1477313181066749.8,3680381763212164.0,379267832569855.06,570133457142620.8,406454192967.3715,1244056926133.7744,36197804130244.88,1215818977183588.5
0.30604000000000003,1566423166563091.2,5265749607318584.0,402144873008684.0,604523322352007.8,870527795898.763,2664541843230.1777,77548770641203.11,2611574405114469.0
0.41216080000000005,1613367540352668.5,6856554923211538.0,414196814432191.6,622640378359203.5,1358364518906.592,4157823528908.133,121021449630881.66,4079812552388779.5
0.5204040160000001,1642036321676443.8,8466169647887750.0,421556897123332.75,633704407407623.5,1861814955045.8518,5698961862312.623,165888367488859.06,5595422877374130.0
0.6308120963200001,1661228511830134.8,1.0100411302856218e+16,426484072268180.75,641111173274436.2,2378148448390.911,7279602722579.485,211905912528195.75,7150023881784300.0
0.7434283382464002,1674911008414722.0,1.1762459332053596e+16,429996754077116.7,646391604994769.8,2906311733466.0195,8896526315454.77,258980180611750.84,8740376945906301.0
0.8582969050113283,1685123520472476.0,1.3454367662642948e+16,432618593240715.2,650332879367681.9,3445898031515.3394,10548491800575.361,307074965543798.4,1.0365223314186194e+16
0.9754628431115548,1693017393283365.5,1.5177643092364156e+16,434645172480978.3,653379330497822.8,3996789530519.5977,12235143007250.941,356179855143221.6,1.2024189408420998e+16
1.094972099973786,1699289602834254.2,1.6933501689972016e+16,436255425140582.5,655799939556697.4,4559012668062.281,13956565493658.684,406297317475377.56,1.3717343826803374e+16
1.2168715419732616,1704385700785776.0,1.8722995387727416e+16,437563736864898.2,657766656526196.5,5132672608785.079,15713086003890.59,457436853865803.94,1.5444996681072064e+16
1.3412089728127268,1708603240132119.2,2.054707986414712e+16,438646497878276.4,659394314851712.1,5717920943628.366,17505173610306.113,509612116439226.4,1.7207600600291844e+16
1.4680331522689813,1712148194387820.8,2.240665341974044e+16,439556587376409.25,660762405074270.8,6314938669372.261,19333387626227.9,562839389254149.0,1.900569851735218e+16
1.597393815314361,1715167483834930.0,2.430258047849207e+16,440331723928953.5,661927627555619.6,6923926730372.318,21198348665498.32,617136744326980.2,2.083989462344969e+16
1.729341691620648,1717768607400384.5,2.623570646087379e+16,440999505534717.9,662931468930534.6,7545100533413.569,23100721863473.98,672523552269868.4,2.271083750434139e+16
1.863928525453061,1720031959528874.0,2.8206867578569704e+16,441580571709415.8,663804955508590.4,8178686656663.136,25041206814234.867,729020188780649.4,2.4619210009571256e+16
2.001207095962122,1722018817940175.8,3.02168975180992e+16,442090654167677.3,664571735957574.5,8824920822565.486,27020531376985.043,786647853971829.5,2.6565723003862396e+16
2.1412312378813647,1723776674588686.8,3.2266632152120956e+16,442541945430326.7,665250138659521.8,9484046625806.21,29039447794085.402,845428459120610.6,2.85511114399019e+16
2.284055862638992,1725342883875315.2,3.435691296294341e+16,442944035423015.94,665854579650641.4,10156314726884.428,31098730234744.395,905384555003502.1,3.057613186402931e+16
2.4297369798917723,1726747215148475.0,3.6488589603418824e+16,443304566775022.94,666396547697882.9,10841982340969.422,33199173243047.508,966539286611904.4,3.2641560831601548e+16
2.578331719489608,1728013674063973.2,3.866252186702568e+16,443629702413585.8,666885307209140.8,11541312918796.648,35341590774326.94,1028916365032335.8,3.4748193914613544e+16
2.7298983538794,1729161825317669.2,4.087958124538874e+16,443924465146582.0,667328408710216.0,12254575955356.49,37526815623239.28,1092540050755967.5,3.6896845103879656e+16
2.884496320956988,1730207768606519.0,4.314065219283049e+16,444192988219187.2,667732065493593.0,12982046885451.74,39755699118310.734,1157435144764171.5,3.908834647974324e+16
3.0421862473761276,1731164869134774.5,4.5446633179856104e+16,444438702855366.94,668101435539805.1,13724007039507.86,42029111001501.56,1223626985014101.8,4.132354806927102e+16
3.2030299723236504,1732044311579208.5,4.779843759271047e+16,444664480476335.9,668440835307035.0,14480743641998.78,44347939438827.93,1291141446749961.5,4.360331783551705e+16
3.3670905717701234,1732855525215341.0,5.019699451955651e+16,444872741842419.7,668753903798399.5,15252549840602.447,46713091125683.555,1360004945579241.5,4.5928541762154824e+16
3.5344323832055258,1733606513755814.5,5.264324945249566e+16,445065541731844.0,669043729855162.4,16039724757954.914,49125491461997.83,1430244442588386.2,4.830012400834453e+16
3.7051210308696363,1734304113846907.5,5.513816492679509e+16,445244635304065.56,669312951917283.5,16842573560363.928,51586084779995.375,1501887450995035.0,5.071898711639142e+16
3.879223451487029,1734954199545507.2,5.768272111315131e+16,445411530594760.75,669563836936389.1,17661407539523.617,54095834612468.4,1574962043984055.0,5.318607225993864e+16
4.0568079205167695,1735561845463946.5,6.027791637486677e+16,445567530399696.9,669798343337631.2,18496544204421.418,56655723992993.4,1649496863477273.8,5.57023395239909e+16
4.237944078927105,1736131457982793.2,6.29247677989525e+16,445713765960745.94,670018171658110.4,19348307381425.78,59266755781963.13,1725521129658122.5,5.826876821052938e+16
4.422702960505647,1736666881570914.2,6.5624311708078456e+16,445851224261235.94,670224805578561.9,20217027321101.344,61929953014018.69,1803064651122310.5,6.088635716521032e+16
4.61115701971576,1737171485536814.5,6.837760415873993e+16,445980770297461.1,670419545402953.6,21103040810696.223,64646359263682.375,1882157835561120.8,6.355612512186722e+16
4.803380160110075,1737648235275509.5,7.118572142984967e+16,446103165369760.1,670603535554518.4,22006691291529.902,67417039026862.58,1962831700909513.8,6.627911106242198e+16
4.9994477633122765,1738099751140556.2,7.404976050508958e+16,446219082196618.6,670777787295993.4,22928328980716.52,70243078116537.6,2045117886909493.0,6.9056374590449656e+16
5.199436718578522,1738528357370727.5,7.697083955168802e+16,446329117475527.6,670943197611704.6,23868310996809.098,73125584071384.44,2129048667052894.8,7.188899631710904e+16
5.403425452950093,1738936122971979.2,7.995009839777755e+16,446433802378532.6,671100564984985.9,24827001489061.375,76065686576464.03,2214656960877573.0,7.477807825849912e+16
5.611493962009095,1739324896052177.2,8.298869901009072e+16,446533611366922.25,671250602648836.9,25804771770086.625,79064537895322.86,2301976346598515.0,7.772474424375894e+16
5.823723841249277,1739696332796484.5,8.608782597344171e+16,446628969630029.3,671393949768288.2,26802000451754.625,82123313313072.38,2391041074060924.0,8.073014033342122e+16
6.040198318074262,1740051922031905.8,8.924868697320094e+16,446720259391636.5,671531180920489.6,27819073584214.707,85243211590138.62,2481886078006554.0,8.379543524767603e+16
6.261002284435747,1740393006142689.0,9.247251328177707e+16,446807825279553.4,671662814166519.9,28856384797968.61,88425455426498.48,2574546991647882.5,8.692182080431595e+16
6.486222330124463,1740720798952105.8,9.57605602499676e+16,446891978916366.4,671789317952425.0,29914335448943.92,91671291936295.05,2669060160547043.0,9.011051236621438e+16
6.715946776726952,1741036401070401.2,9.911410780392205e+16,446973002859693.4,671911117032386.2,30993334766539.78,94981993132794.36,2765462656798604.5,9.336274929826154e+16
6.950265712261491,1741340813117121.2,1.0253446094835776e+17,447051153996728.7,672028597571576.8,32093800004633.086,98358856423698.05,2863792293516532.0,9.667979543372741e+16
7.18927102650672,1741634947152688.0,1.060229502765989e+17,447126666479044.1,672142111557889.6,33216156595546.45,101803205116865.16,2964087639627174.5,1.0006293955006962e+17
7.433056447036854,1741919636595283.5,1.0958093248793547e+17,447199754268538.56,672251980629130.9,34360838306988.207,105316388936532.78,3066388034970717.5,1.0351349585422838e+17
7.681717575977592,1742195644851658.8,1.1320979091275907e+17,447270613353205.3,672358499403865.0,35528287401984.13,108899784550146.33,3170733605714764.5,1.0703280447748344e+17
7.935351927497144,1742463672851974.2,1.1691093604587845e+17,447339423681538.06,672461938389315.5,36718954801825.695,112554796105939.66,3277165280083896.5,1.1062223197996403e+17
8.194058966047088,1742724365647401.5,1.206858060883964e+17,447406350856323.56,672562546527545.1,37933300252065.36,116282855781414.72,3385724804409919.5,1.142831718649217e+17
8.45794014536803,1742978318203579.0,1.245358674984901e+17,447471547621982.1,672660553431307.2,39171792491593.945,120085424342891.67,3496454759507872.0,1.1801704510289093e+17
8.72709894827539,1743226080501869.2,1.2846261555142338e+17,447535155174204.2,672756171352744.5,40434909424837.586,123963991716312.16,3609398577383061.0,1.218253006658702e+17
9.0016409272409,1743468162042961.0,1.3246757490909518e+17,447597304316152.94,672849596921456.0,41723138297115.05,127920077569486.8,3724600558275108.0,1.257094160716728e+17
9.281673745785717,1743705035832951.8,1.3655230019941613e+17,447658116481802.56,672941012682823.9,43036975873199.34,131955231905991.81,3842105888044840.5,1.2967089793859448e+17
9.567307220701432,1743937141919994.0,1.4071837660579317e+17,447717704643895.06,673030588462902.5,44376928619128.01,136071035670924.25,3961960655910510.0,1.3371128255056582e+17
9.85865336511546,1744164890539614.5,1.4496742046698944e+17,447776174121433.8,673118482582276.0,45743512887308.58,140269101368739.39,4084211872539766.0,1.378321364329502e+17
10.155826432417769,1744388664918378.5,1.4930107988762147e+17,447833623299461.4,673204842938064.2,47137255104969.08,144551073693392.84,4208907488504293.5,1.4203505693916296e+17
10.458942961066125,1744608823778538.2,1.5372103535954957e+17,447890144272071.75,673289807970534.2,48558691966001.15,148918630171026.03,4336096413103956.0,1.4632167284828742e+17
10.768121820287448,1744825703580342.0,1.5822900039440902e+17,447945823418078.6,673373507528464.8,50008370626247.19,153373481815431.5,4465828533567761.5,1.506936449738725e+17
11.083484256693197,1745039620533661.0,1.6282672216752877e+17,448000741917451.6,673456063645487.9,51486848902283.46,157917373796550.5,4598154734638935.0,1.551526667840941e+17
11.405153941827061,1745250872406284.2,1.6751598217348106e+17,448054976215562.56,673537591237954.2,52994695473750.83,162552086122249.34,4733126918551766.0,1.5970046503347334e+17
11.733257020663602,1745459740152657.5,1.722985968935021e+17,448108598441321.7,673618198733503.9,54532490089286.32,167279434333639.4,4870798025407781.0,1.64338800406344e+17
12.067922161076874,1745666489383663.5,1.77176418475023e+17,448161676784515.2,673697988638298.1,56100823776109.875,172101270214202.53,5011222053959442.0,1.690694681722668e+17
12.409280604298411,1745871371695455.2,1.8215133542354902e+17,448214275836954.56,673777058049850.0,57700299053319.74,177019482512995.22,5154454082809201.0,1.7389429885359142e+17
12.75746621638438,1746074625873038.8,1.8722527330712656e+17,448266456901469.44,673855499121513.0,59331530148952.8,182035997682204.7,5300550292032393.0,1.7881515890536694e+17
13.112615540712067,1746276478982363.0,1.924001954736334e+17,448318278272278.3,673933399483954.4,60995143220863.45,187152780629341.62,5449567985232326.0,1.8383395140781235e+17
13.474867851526309,1746477147362966.8,1.976781037811338e+17,448369795489826.3,674010842628236.4,62691776581479.125,192371835484360.06,5601565612036165.0,1.8895261677155072e+17
13.844365208556836,1746676837531794.0,2.030610393415343e+17,448421061572823.4,674087908254628.6,64422080926487.125,197695206381990.4,5756602791040584.0,1.941731334558262e+17
14.221252512727972,1746875747007514.2,2.085510832777826e+17,448472127229869.7,674164672590729.1,66186719567509.57,203124978259598.25,5914740333216012.0,1.9949751869991126e+17
14.605677562982532,1747074065063598.5,2.1415035749484794e+17,448523041052788.6,674241208682099.6,67986368668825.555,208663277670862.4,6076040265778787.0,2.0492782926793107e+17
14.997791114242183,1747271973417415.0,2.1986102546473053e+17,448573849693543.9,674317586658206.4,69821717488194.26,214312273615591.34,6240565856540467.0,2.1046616220731696e+17
15.397746936527026,1747469646861851.0,2.2568529302573613e+17,448624598026384.2,674393873976173.5,71693468621839.88,220074178385994.47,6408381638744009.0,2.161146556211198e+17
15.805701875257567,1747667253845125.0,2.3162540919626938e+17,448675329296707.94,674470135644557.5,73602338253655.6,225951248429734.03,6579553436396439.0,2.218754894544032e+17
16.221815912762718,1747864957003942.2,2.3768366700338864e+17,448726085257932.44,674546434429093.9,75549056408681.69,231945785230083.9,6754148390108037.0,2.2775088629495072e+17
16.64625223101797,1748062913654502.0,2.438624043263715e+17,448776906297551.8,674622831042202.1,77534367210919.94,238060136203539.1,6932234983448128.0,2.3374311218851456e+17
17.079177275638333,1748261276245415.5,2.501640047555423e+17,448827831553412.44,674699384317766.1,79559029145541.17,244296695615212.38,7113883069827902.0,2.3985447746883706e+17
17.5207608211511,1748460192776128.2,2.5659089846661802e+17,448878899021136.25,674776151372625.6,81623815325542.31,250657905512373.5,7299163899920836.0,2.460873376026898e+17
17.97117603757412,1748659807184114.8,2.631455631108212e+17,448930145653521.5,674853187755996.2,83729513762914.28,257146256676486.72,7488150149631308.0,2.5244409405015667e+17
18.430599558325603,1748860259703731.8,2.6983052472101994e+17,448981607452672.2,674930547587964.9,85876927644376.4,263764289594110.22,7680915948622644.0,2.5892719514041443e+17
18.899211549492115,1749061687199321.0,2.7664835863415818e+17,449033319555517.06,675008283688044.0,88066875611738.14,270514595447025.28,7877536909415689.0,2.6553913696324086e+17
19.37719578048196,1749264223474937.2,2.8360169043022653e+17,449085316313317.2,675086447694695.6,90300192046943.73,277399817121979.28,8078090157069207.0,2.7228246427650528e+17
19.864739696091597,1749467999562747.2,2.906931968880476e+17,449137631365718.25,675165090176643.0,92577727361859.44,284422650240423.0,8282654359453992.0,2.7915977142988582e+17
20.36203449001343,1749673143992078.2,2.979256069581333e+17,449190297709813.25,675244260736694.9,94900348292860.25,291585844208634.3,8491309758132415.0,2.861737033050611e+17
20.869275179813698,1749879783040768.8,3.0530170275288685e+17,449243347764675.06,675324008108753.6,97268938200274.38,298892203288633.1,8704138199855636.0,2.933269562726286e+17
21.38666068340997,1750088040970383.8,3.12824320554411e+17,449296813431743.56,675404380248586.9,99684397372740.5,306344587690288.3,8921223168690656.0,3.0062227916600634e+17
21.91439389707817,1750298040246740.2,3.204963518401959e+17,449350726151437.0,675485424418938.9,102147643336537.81,313945914685039.8,9142649818790134.0,3.0806247427256755e+17
22.452681775019734,1750509901746940.5,3.283207443269714e+17,449405116956308.94,675567187269424.0,104659611169941.61,321699159741648.3,9368505007817496.0,3.156503983422699e+17
23.00173541052013,1750723744954138.8,3.363005030329703e+17,449460016521045.4,675649714911697.9,107221253822662.61,329607357684418.9,9598877331040656.0,3.2338896361403603e+17
23.561770118730532,1750939688141053.0,3.444386913589084e+17,449515455209579.3,675733052990275.9,109833542440423.8,337673603874321.8,9833857156107682.0,3.3128113886014496e+17
24.133005521105144,1751157848543171.0,3.5273843218793875e+17,449571463119557.6,675817246749375.1,112497466694729.62,345901055413467.9,1.0073536658518002e+16,3.393299504489002e+17
24.715665631527248,1751378342522545.5,3.6120290900486803e+17,449628070124393.06,675902341096139.5,115214035117880.48,354292932373398.9,1.031800985780309e+16,3.4753848342583046e+17
25.309978944157795,1751601285722963.8,3.6983536703491456e+17,449685305913096.1,675988380660510.0,117984275443286.45,362852519047637.4,1.0567372654430822e+16,3.559098826136966e+17
25.91617852304095,1751826793217191.5,3.786391144022856e+17,449743200028084.3,676075409852054.6,120809234951131.23,371583165228998.6,1.0821722867447976e+16,3.644473537315599e+17
26.53450209350177,1752054979646992.0,3.8761752330886106e+17,449801781901122.3,676163472914007.6,123689980819437.56,380488287512123.56,1.1081160272875572e+16,3.731541645331914e+17
27.165192135371807,1752285959356507.8,3.96774031233268e+17,449861080887565.6,676252613974743.4,126627600480583.1,389571370621733.3,1.134578664287221e+16,3.8203364596507405e+17
27.808495978079243,1752519846519537.2,4.061121421506271e+17,449921126299040.94,676342877096895.5,129623201983314.92,398835968767105.5,1.1615705785680534e+16,3.910891933442801e+17
28.464665897640828,1752756755261275.2,4.1563542777325965e+17,449981947434694.75,676434306324339.1,132677914360313.45,408285707023286.4,1.189102358637284e+16,4.003242675564829e+17
29.133959215593645,1752996799774926.2,4.253475288126408e+17,450043573611133.44,676526945727197.8,135792888001344.73,417924282739546.94,1.217184804841128e+16,4.097423962743756e+17
29.816638399905518,1753240094433659.0,4.352521562628885e+17,450106034191167.2,676620839445045.0,138969295032051.8,427755466975626.6,1.2458289336039444e+16,4.1934717519677056e+17
30.51297116790363,1753486753898284.5,4.4535309270606317e+17,450169358611448.94,676716031728463.8,142208329698424.1,437783105966293.4,1.2750459817521446e+16,4.2914226930863846e+17
31.223230591261704,1753736893221018.0,4.556541936395897e+17,450233576409120.1,676812566979090.5,145511208756985.7,448011122614773.3,1.3048474109245936e+16,4.39131414162362e+17
31.947695203086937,1753990627945699.0,4.661593888260586e+17,450298717247530.3,676910489788290.4,148879171870744.1,458443518015607.2,1.3352449120711614e+16,4.493184171804787e+17
32.686649107148675,1754248074204714.0,4.768726836657196e+17,450364810941133.25,677009844974569.5,152313482010930.7,469084373007508.8,1.3662504100412658e+16,4.59707158980168e+17
33.44038208929165,1754509348813010.5,4.877981605919341e+17,450431887479607.0,677110677619841.1,155815425864574.2,479937849756799.25,1.3978760682641218e+16,4.70301594719759e+17
34.20918973107749,1754774569359343.5,4.9893998048988717e+17,450499977051293.56,677213033104660.1,159386314247933.4,491008193372010.2,1.4301342935225818e+16,4.811057554675257e+17
34.993373525699035,1755043854295143.5,5.103023841388303e+17,450569110066006.06,677316957142505.1,163027482525822.62,502299733550260.4,1.4630377408224084e+16,4.921237495930265e+17
35.793240996213015,1755317323021114.0,5.2188969367815e+17,450639317177261.9,677422495813206.1,166740291036856.25,513816886256014.56,1.4965993183588756e+16,5.0335976418125677e+17
36.60910581613728,1755595095971866.2,5.337063140975331e+17,450710629304012.1,677529695595601.8,170526125524632.84,525564155432850.44,1.5308321925826602e+16,5.148180664698775e+17
37.44128793246003,1755877294698720.0,5.45756734751516e+17,450783077651899.9,677638603399502.8,174386397574887.97,537546134748872.75,1.5657497933669706e+16,5.2650300530977184e+17
38.29011369110923,1756164041950931.0,5.580455308986893e+17,450856693734110.44,677749266597027.4,178322545058624.25,549767509376412.0,1.6013658192779556e+16,5.3841901264919277e+17
39.15591596493141,1756455461755455.5,5.705773652658411e+17,450931509391849.3,677861733053394.8,182336032581240.66,562233057806679.94,1.637694242950429e+16,5.5057060504174816e+17
40.03903428423004,1756751679495434.2,5.833569896372993e+17,451007556814495.5,677976051157212.0,186428351937668.56,574947653700037.9,1.6747493165710102e+16,5.629623851784845e+17
40.93981496991464,1757052821987593.2,5.963892464697526e+17,451084868559470.1,678092269850342.5,190601022573523.3,587916267772576.1,1.712545577470827e+16,5.7559904344430035e+17
41.85861126931294,1757359017558642.2,6.096790705328059e+17,451163477571845.2,678210438657388.4,194855592052271.78,601143969719684.9,1.7510978538299396e+16,5.884853594989466e+17
42.7957834946992,1757670396120843.2,6.232314905755415e+17,451243417203752.75,678330607714863.4,199193636528421.5,614635930177334.9,1.7904212704957196e+16,6.01626203882839e+17
