t(s),Total solute volume 1,Total retention volume 1,Total 1 volume 1,Total 2 volume 1,Total 3 volume 1,Total 4 volume 1,Total 5 volume 1,Total 6 volume 1
0.1,898666397951953.1,1036126891881881.2,66325422320955.914,71135071608968.8,0.0,0.0,0.0,0.0
0.202,1340443974909213.0,1572436480629675.5,98930496448411.16,106104533282797.64,51236129147.60984,93292971236.24512,1248328990321.452,25564617898548.33
0.30604000000000003,1666871961511841.8,1989550643640590.0,123022277535759.03,131943352319447.84,128694258480.50143,234336769692.3393,3135610839316.6147,64214410406053.37
0.41216080000000005,1934735213145508.2,2349743363354679.0,142791730777300.03,153146405864933.3,226299065411.2625,412071732927.5144,5513857884747.358,112917784883850.33
0.5204040160000001,2165500383865948.8,2676213936178798.0,159823187031252.1,171412914021714.25,341102575390.2419,621132172607.9071,8311274522634.162,170203941989252.12
0.6308120963200001,2369966880922961.0,2980476869152132.5,174913688727562.78,187597717496587.38,471323966208.7174,858277421010.1436,11484499722374.938,235184480895426.16
0.7434283382464002,2554472110826300.0,3269207851470710.0,188530963562950.06,202202461696128.34,615763404602.9606,1121324616642.355,15004326740492.176,307260900623593.25
0.8582969050113283,2723114681109950.0,3546679050488641.0,200977506297324.44,215551577069265.22,773558836053.6212,1408705905495.3442,18849778120525.312,386003243150031.7
0.9754628431115548,2878729617265764.0,3815819793740555.5,212462553933280.3,227869473634371.88,944064907472.1304,1719248007265.7644,23005156125075.562,471089679867322.6
1.094972099973786,3023377172673074.5,4078744472982140.5,223138161978895.34,239319233345979.5,1126785162747.3567,2052048773376.1572,27458390995249.34,562272680052816.9
1.2168715419732616,3158612316000713.0,4337041550524668.0,233119093770233.34,250023941710050.22,1321330794299.0059,2406402093985.5747,32200036156507.043,659358429998886.0
1.3412089728127268,3285644347822015.5,4591943550594191.0,242494600859987.1,260079322438482.06,1527393956543.1167,2781749316800.84,37222618172059.59,762193518028305.6
1.4680331522689813,3405436893199919.5,4844432820400814.0,251335802897786.12,269561652488303.1,1744729658516.2974,3177646285217.485,42520195694225.9,870655900176856.6
1.597393815314361,3518773432832704.5,5095310371390426.0,259700524108934.25,278532949262169.84,1973143002723.2363,3593740109816.119,48088048655034.46,984648533419043.9
1.729341691620648,3626301873273910.5,5345242387231082.0,267636582767201.8,287044498620333.44,2212479909485.7163,4029752285562.388,53922452366823.64,1104094748007753.9
1.863928525453061,3728565818008928.5,5594792639282183.0,275184099133981.47,295139330182154.44,2462620199744.6562,4485466102812.235,60020509076980.05,1228934796577590.8
2.001207095962122,3826027095337206.5,5844445687707017.0,282377158112311.5,302854000549020.75,2723472324202.108,4960717055666.42,66380019629325.91,1359123224699282.8
2.1412312378813647,3919082361184291.5,6094623872117697.0,289245034605390.56,310219907520878.2,2994969272577.649,5455385398883.769,72999383874760.89,1494626830260936.2
2.284055862638992,4008075579957655.5,6345700005126602.0,295813114657102.9,317264278034118.94,3277065348330.7993,5969390280524.892,79877522166328.06,1635423054682538.5
2.4297369798917723,4093307571442751.5,6598007023823734.0,302103600053759.75,324010923858167.1,3569733590855.0254,6502685053464.155,87013812628431.58,1781498697196308.5
2.578331719489608,4175043426807360.5,6851845443785800.0,308136055656935.1,330480828618663.8,3872963690614.4907,7055253484453.21,94408040436005.39,1932848875091767.2
2.7298983538794,4253518349021872.0,7107489197059159.0,313927840451444.0,336692610103296.06,4186760285452.4146,7627106657261.611,102060356381021.56,2089476174158816.0
2.884496320956988,4328942309503724.5,7365190262555145.0,319494451225618.8,342662888864363.1,4511141555766.849,8218280420066.608,109971242721549.4,2251389948264061.5
3.0421862473761276,4401503802474214.0,7625182381003169.0,324849799658889.44,348406585399617.3,4846138056970.706,8828833264988.586,118141484813354.56,2418605737335133.0
3.2030299723236504,4471372902576944.0,7887684066859029.0,330006437987105.75,353937162181917.5,5191791742490.654,9458844554680.734,126572147385473.38,2591144780430427.0
3.3670905717701234,4538703778084853.0,8152901073884097.0,334975744487946.1,359266822595293.0,5548155141358.078,10108413030540.768,135264554584244.19,2769033605959843.5
3.5344323832055258,4603636774106108.0,8421028431590819.0,339768077230433.4,364406675833735.5,5915290662421.219,10777655551634.361,144220273104587.3,2952303685101887.0
3.7051210308696363,4666300152781442.0,8692252141280525.0,344392902508935.06,369366874648715.6,6293270003178.637,11466706024288.336,153441097872768.06,3140991137441188.0
3.879223451487029,4726811557367278.0,8966750599607049.0,348858902898750.4,374156731240526.75,6682173645759.541,12175714490552.451,162929039855122.5,3335136480109056.0
4.0568079205167695,4785279252179844.0,9244695802224094.0,353174068769296.4,378784815407622.6,7082090426044.49,12904846350041.094,172686315651703.94,3534784413439531.5
4.237944078927105,4841803179173023.0,9526254368570860.0,357345776264070.94,383259038181379.25,7493117164606.128,13654281694557.113,182715338599248.5,3739983637493970.5
4.422702960505647,4896475863419737.0,9811588420152258.0,361380854129039.9,387586723500602.1,7915358350249.851,14424214738723.434,193018711159026.25,3950786694854869.0
4.61115701971576,4949383193248273.0,1.0100856338026066e+16,365285641290042.75,391774669964211.44,8348925868591.005,15214853332864.88,203599218405489.03,4167249835916583.5
4.803380160110075,5000605095742948.0,1.039421342008978e+16,369066036707624.5,395829204301339.06,8793938769423.368,16026418546782.162,214459822463764.7,4389432903557880.5
4.9994477633122765,5050216124382479.0,1.0691812454777502e+16,372727542747268.9,399756227886597.0,9250523067689.783,16859144314983.424,225603657769751.7,4617399234608734.0
5.199436718578522,5098285972494403.0,1.099380422465774e+16,376275303074517.6,403561257383201.8,9718811573718.936,17713277135491.996,237034027047386.53,4851215575948997.0
5.403425452950093,5144879923749660.0,1.130033795095767e+16,379714135903401.25,407249460402436.8,10198943749085.703,18589075815611.824,248754397914515.78,5090952013422948.0
5.611493962009095,5190059248962655.0,1.1611561688080696e+16,383048563281985.7,410825686912875.2,10691065585019.566,19486811259063.895,260768400042656.7,5336681912036449.0
5.823723841249277,5233881556888728.0,1.1927622675613558e+16,386282836982719.94,414294497008181.9,11195329500751.467,20406766289759.38,273079822807276.72,5588481866136136.0
6.040198318074262,5276401105436955.0,1.224866765405591e+16,389420961471270.3,417660185541561.9,11711894259577.5,21349235508174.676,285692613374666.2,5846431658463686.0
6.261002284435747,5317669078681599.0,1.2574843149479822e+16,392466714351152.5,420926804052953.4,12240924900737.11,22314525176884.395,298610875179276.1,6110614227137224.0
6.486222330124463,5357733834208096.0,1.2906295731491812e+16,395423664618926.94,424098180348007.7,12782592685473.23,23302953132291.34,311838866751978.94,6381115639747057.0
6.715946776726952,5396641124632776.0,1.3243172248185036e+16,398295189013288.75,427177936032758.1,13337075055866.91,24314848720010.453,325381000865181.5,6658025073865128.0
6.950265712261491,5434434296559582.0,1.3585620041205832e+16,401084486698938.94,430169502262297.4,13904555605229.758,25350552751705.21,339241843965394.06,6941434803362681.0
7.18927102650672,5471154469759111.0,1.3933787143593008e+16,403794592490750.6,433076133923915.9,14485224058998.7,26410417481473.195,353426115867775.6,7231440190010972.0
7.433056447036854,5506840698955874.0,1.4287822462658722e+16,406428388794375.9,435900922443579.8,15079276265214.334,27494806600125.504,367938689690538.9,7528139679908991.0
7.681717575977592,5541530120275718.0,1.464787594985805e+16,408988616414670.94,438646807378159.56,15686914193782.125,28604095245920.48,382784592009960.7,7831634804339840.0
7.935351927497144,5575258084123430.0,1.5014098759321756e+16,411477884362653.4,441316586933517.9,16308345943815.969,29738670030495.363,397969003219206.6,8142030184708649.0
8.194058966047088,5608058276023562.0,1.5386643396498236e+16,413898678774057.6,443912927529831.5,16943785758449.758,30898929078896.273,413497258076287.25,8459433541257148.0
8.45794014536803,5639962826755554.0,1.5765663858158464e+16,416253371037781.25,446438372519464.3,17593454046577.574,32085282082746.47,429374846428293.3,8783955705288029.0
8.72709894827539,5671002412942705.0,1.6151315764853326e+16,418544225219779.5,448895350149215.8,18257577411047.95,33298150365707.68,445607414100655.5,9115710634664218.0
9.0016409272409,5701206349108348.0,1.6543756486773932e+16,420773404857209.5,451286180847147.8,18936388682892.883,34537966960495.703,462200763941524.0,9454815432376292.0
9.281673745785717,5730602672087021.0,1.6943145263846206e+16,422942979188333.75,453613083904254.9,19630126961222.176,35805176696798.16,479160857012604.7,9801390367995960.0
9.567307220701432,5759218218570468.0,1.734964332078999e+16,425054928875741.8,455878183612714.0,20339037658456.39,37100236299524.25,496493813918814.3,1.0155558901854256e+16
9.85865336511546,5787078696475523.0,1.776341397778506e+16,427111151273610.7,458083514915102.4,21063372550607.418,38423614496881.34,514205916270033.0,1.051744771180331e+16
10.155826432417769,5814208750740329.0,1.8184622757310732e+16,429113465283744.9,460231028612579.44,21803389832351.176,39775792137838.67,532303608269091.4,1.0887186722434812e+16
10.458942961066125,5840632024085944.0,1.8613437487661932e+16,431063615840046.8,462322596174546.56,22559354176663.848,41157262318586.984,550793498420794.75,1.1264909136645354e+16
10.768121820287448,5866371213219555.0,1.9050028403586732e+16,432963278056543.1,464360014187483.75,23331536798818.965,42568530517655.59,569682361357450.1,1.1650751469449216e+16
11.083484256693197,5891448120902646.0,1.9494568244442856e+16,434814061070252.56,466345008476475.8,24120215524566.066,44010114739385.58,588977139776935.4,1.2044853583952588e+16
11.405153941827061,5915883704261732.0,1.9947232350227348e+16,436617511606713.75,468279237929301.06,24925674862330.22,45482545665498.94,608684946489813.8,1.2447358729411946e+16
11.733257020663602,5939698119678348.0,2.0408198755796196e+16,438375117293063.6,470164298049759.6,25748206079291.27,46986366814535.01,628813066572506.9,1.2858413581308728e+16
12.067922161076874,5962910764559685.0,2.087764828355912e+16,440088309740889.9,472001724264085.7,26588107281215.414,48522134708956.2,649368959623874.5,1.3278168283380482e+16
12.409280604298411,5985540316260327.0,2.1355764634905384e+16,441758467418812.94,473792995001834.94,27445683495927.17,50090419049751.55,670360262122942.2,1.3706776491555756e+16
12.75746621638438,6007604768397242.0,2.1842734480591684e+16,443386918332702.5,475539534570455.06,28321246760322.2,51691802898391.586,691794789885874.6,1.4144395419746718e+16
13.112615540712067,6029121464776872.0,2.2338747550302376e+16,444974942529623.7,477242715840818.7,29215116210831.867,53326882866006.7,713680540620500.2,1.4591185887457752e+16
13.474867851526309,6050107131130544.0,2.2843996721570068e+16,446523774440064.1,478903862759285.1,30127618177261.93,54996269309687.38,736025696577042.8,1.5047312369176186e+16
13.844365208556836,6070577904836124.0,2.3358678108230532e+16,448034605071504.8,480524252700355.5,31059086279934.367,56700586535813.6,758838627293909.2,1.5512943045512924e+16
14.221252512727972,6090549362786491.0,2.3882991148569332e+16,449508584065241.1,482105118672632.44,32009861530072.688,58440473010344.695,782127892437612.2,1.5988249856066932e+16
14.605677562982532,6110036547550056.0,2.441713869330299e+16,450946821627139.0,483647651389593.06,32980292433375.168,60216581576012.15,805902244736097.5,1.6473408553990744e+16
14.997791114242183,6129053991955545.0,2.4961327093528268e+16,452350390342093.56,485153001215624.75,33970735096728.51,62029579676370.695,830170633004951.1,1.6968598762236922e+16
15.397746936527026,6147615742220794.0,2.5515766288759384e+16,453720326881037.56,486622279996819.8,34981553338021.336,63880149586676.98,854942205266089.2,1.7474004031469994e+16
15.805701875257567,6165735379734558.0,2.608066989516664e+16,455057633608529.75,488056562785137.75,36013118799018.62,65768988651576.3,880226311958726.2,1.7989811899629114e+16
16.221815912762718,6183426041590891.0,2.665625529411785e+16,456363280098280.06,489456889463827.25,37065811061268.59,67696809529587.31,906032509242541.2,1.8516213953131456e+16
16.64625223101797,6200700439966471.0,2.724274372112023e+16,457638204563280.3,490824266281273.06,38140017765010.516,69664340444384.164,932370562393070.6,1.905340588970679e+16
17.079177275638333,6217570880424013.0,2.7840360355250724e+16,458883315206672.56,492159667299811.7,39236134731063.45,71672325442887.66,959250449289536.4,1.9601587582856748e+16
17.5207608211511,6234049279217253.0,2.844933440915752e+16,460099491498932.9,493464035765543.5,40354566085673.15,73721524660178.44,986682363995338.9,2.01609631479346e+16
17.97117603757412,6250147179667205.0,2.906989921971109e+16,461287585386504.3,494738285404600.1,41495724388301.18,75812714591260.47,1014676720431669.8,2.073174100984154e+16
18.430599558325603,6265875767672991.0,2.970229233937601e+16,462448422436571.75,495983301650944.06,42660030762341.29,77946688369706.64,1043244156144656.8,2.131413397233885e+16
18.899211549492115,6281245886416065.0,3.034675562837256e+16,463582802922288.4,497199942810279.4,43847915028751.42,80124256053222.03,1072395536166691.6,2.1908359288975228e+16
19.37719578048196,6296268050311354.0,3.1003535347691216e+16,464691502852429.44,498389041164384.75,45059815842590.43,82346244916174.52,1102141956972540.4,2.251463873563175e+16
19.864739696091597,6310952458254742.0,3.1672882253021492e+16,465775274949118.6,499551404019731.1,46296180832454.734,84613499749140.67,1132494750531027.8,2.313319868468529e+16
20.36203449001343,6325309006212670.0,3.235505168965073e+16,466834849576993.4,500687814704027.8,47557466742804.195,86926883165522.47,1163465488453085.5,2.376427018079564e+16
20.869275179813698,6339347299195810.0,3.30503036883883e+16,467870935626907.25,501799033514012.44,48844139579176.266,89287275915300.06,1195065986237103.8,2.440808901831999e+16
21.38666068340997,6353076662655517.0,3.3758903062565064e+16,468884221357042.8,502885798617552.5,50156674756283.64,91695577205984.62,1227308307612485.0,2.5064895820360176e+16
21.91439389707817,6366506153339232.0,3.4481119506158236e+16,469875375194086.3,503948826912918.2,51495557248992.93,94152705030844.44,1260204768982484.0,2.5734936119449692e+16
22.452681775019734,6379644569637791.0,3.5217227693087356e+16,470845046496896.94,504988814847836.3,52861281746183.51,96659596504476.45,1293767943967436.2,2.6418460439886716e+16
23.00173541052013,6392500461455611.0,3.596750737772556e+16,471793866284983.0,506006439200781.7,54254352807484.78,99217208205810.62,1328010668049463.2,2.711572438172145e+16
23.561770118730532,6405082139632312.0,3.6732243496669416e+16,472722447933837.6,507002357826747.1,55675285022893.664,101826516528623.52,1362946043319927.2,2.7826988706405156e+16
24.133005521105144,6417397684942042.0,3.751172627180737e+16,473631387839147.25,507977210369608.56,57124603175271.3,104488518039655.88,1398587443330917.0,2.85525194241109e+16
24.715665631527248,6429454956695494.0,3.830625131472643e+16,474521266051645.44,508931618943019.7,58602842405718.96,107204229844420.27,1434948518052002.8,2.929258788273412e+16
25.309978944157795,6441261600967199.0,3.911611973249278e+16,475392646884322.25,509866188781657.75,60110548381836.46,109974689960804.22,1472043198933740.0,3.0047470858583144e+16
25.91617852304095,6452825058469592.0,3.994163823484572e+16,476246079493571.3,510781508864504.7,61648277468861.13,112800957700553.05,1509885704079289.5,3.0817450648769356e+16
26.53450209350177,6464152572093702.0,4.078311924283697e+16,477082098435720.25,511678152511740.6,63216596903688.984,115684114058752.11,1548490543525597.0,3.1602815165307676e+16
27.165192135371807,6475251194134966.0,4.164088099894815e+16,477901224200322.56,512556677956706.75,64816084971779.67,118625262111401.3,1587872524635767.2,3.2403858030937188e+16
27.808495978079243,6486127793221455.0,4.2515247678722776e+16,478703963721502.56,513417628894328.75,66447331186943.44,121625527421198.58,1628046757604106.2,3.322087867667332e+16
28.464665897640828,6496789060960752.0,4.340654950393866e+16,479490810868508.8,514261535007247.5,68110936474009.99,124686058451640.44,1669028661075442.0,3.4054182441101156e+16
29.133959215593645,6507241518320558.0,4.431512285735476e+16,480262246916638.8,515088912470889.2,69807513354378.914,127808026989557.06,1710833967880481.5,3.4904080671422276e+16
29.816638399905518,6517491521757025.0,4.524131039905937e+16,481018740999539.2,515900264438564.44,71537686134449.11,130992628576201.17,1753478730888818.0,3.5770890826264704e+16
30.51297116790363,6527545269104552.0,4.61854611844484e+16,481760750543883.2,516696081507673.0,73302091096924.2,134241082947008.38,1796979328981335.8,3.665493658026688e+16
31.223230591261704,6537408805238634.0,4.714793078386072e+16,482488721687333.5,517476842167966.8,75101376694990.36,137554634480155.22,1841352473143903.2,3.7556547930447656e+16
31.947695203086937,6547088027524435.0,4.812908140389666e+16,483203089680651.5,518243013232823.1,76936203749362.17,140934552654043.1,1886615212684038.0,3.8476061304371304e+16
32.686649107148675,6556588691061063.0,4.912928201044337e+16,483904279274762.25,518995050254381.3,78807245648187.92,144382132513832.12,1932784941572561.2,3.941381967011865e+16
33.44038208929165,6565916413732706.0,5.014890845343468e+16,484592705093537.6,519733397923349.0,80715188549811.67,147898695147162.5,1979879404912035.0,4.037017264807604e+16
34.20918973107749,6575076681075538.0,5.118834359336351e+16,485268771993002.2,520458490454265.8,82660731588376.28,151485588169195.97,2027916705534018.0,4.13454766245491e+16
34.993373525699035,6584074850970012.0,5.224797742957444e+16,485932875407640.7,521170751956920.75,84644587082261.55,155144186217110.25,2076915310727095.8,4.23400948672133e+16
35.793240996213015,6592916158166959.0,5.3328207230354344e+16,486585401684451.25,521870596794623.0,86667480745344.61,158875891454195.6,2126894059097692.2,4.335439764241122e+16
36.60910581613728,6601605718655551.0,5.442943766484305e+16,487226728405306.1,522558429929954.75,88730151901064.03,162682134083678.34,2177872167565804.8,4.438876233430176e+16
37.44128793246003,6610148533880794.0,5.555208093678182e+16,487857224698233.7,523234647258603.75,90833353699276.36,166564372872439.06,2229869238497676.8,4.544357356587481e+16
38.29011369110923,6618549494817732.0,5.6696556920121016e+16,488477251538104.06,523899635931873.75,92977853335883.38,170524095684747.88,2282905266977617.5,4.651922332183513e+16
39.15591596493141,6626813385909180.0,5.7863293296501784e+16,489087162037255.0,524553774668373.5,95164432275208.55,174562820026180.38,2337000648221132.5,4.7616111073364424e+16
40.03903428423004,6634944888873447.0,5.9052725694629016e+16,489687301726514.25,525197434055425.94,97393886475101.44,178682093597859.7,2392176185131556.0,4.873464390476917e+16
40.93981496991464,6642948586388061.0,6.026529783155283e+16,490278008827080.06,525830976840654.8,99667026614742.42,182883494861181.7,2448453096002460.0,4.987523664201857e+16
41.85861126931294,6650828965655411.0,6.150146165586858e+16,490859614513672.25,526454758214226.1,101984678325117.92,187168633613165.03,2505853022368128.5,5.1038311983178904e+16
42.7957834946992,6658590421855459.0,6.2761677492854936e+16,491432443169367.75,527069126082161.0,104347682422136.64,191539151572603.94,2564398037004403.0,5.222430063074877e+16
43.751699164593184,6666237261491196.0,6.4046414191555224e+16,491996812632500.2,527674421331136.6,106756895142350.17,195996722977164.4,2624110652082265.0,5.343364142589861e+16
