t(s),Total solute volume 1,Total retention volume 1,Total 1 volume 1,Total 2 volume 1,Total 3 volume 1,Total 4 volume 1,Total 5 volume 1,Total 6 volume 1
0.1,839524706393360.9,941664656952722.2,50673114377222.37,51466836182138.266,0.0,0.0,0.0,0.0
0.202,1265003426076118.2,1418912730555189.8,76354707473153.84,77550694885748.56,9888640.060229197,16557783.890562495,195390028.81901932,3680283714.72526
0.30604000000000003,1589017479863280.0,1782353635696386.2,95911965420537.55,97414289365308.47,25090774.001814794,42012616.4066874,495770164.94681686,9338173702.672535
0.41216080000000005,1863079649752861.2,2089766997296774.8,112454163161989.97,114215597014079.1,44568965.839000955,74627387.85446076,880641383.8201296,16587530109.291164
0.5204040160000001,2106465174992109.5,2362772976080829.0,127144740439388.27,129136281205217.02,67862931.20062561,113631386.54555944,1340908854.2675018,25257040943.143204
0.6308120963200001,2328775934858230.5,2612141557161173.5,140563259860707.44,142764982569412.1,94725840.76594774,158611315.35797802,1871695443.8900418,35254840221.11638
0.7434283382464002,2535592216323527.0,2844131891992927.5,153046543580788.5,155443799100239.66,125016632.16771917,209330976.02784702,2470213884.8460064,46528426882.84852
0.8582969050113283,2730488670974785.5,3062753507261094.0,164810355028258.22,167391873852577.66,158655771.79220378,265657195.58769134,3134892663.8013387,59048199847.24395
0.9754628431115548,2915914792939038.5,3270753896690595.5,176002543927295.47,178759372405510.8,195603460.67969906,327523333.7775059,3864945389.198869,72799346567.7415
1.094972099973786,3093634345455659.0,3470111405259517.0,186729569773169.72,189654421790324.53,235847566.18353707,394909075.51170117,4660132331.34056,87777351391.10509
1.2168715419732616,3264966585605577.5,3662305799437412.5,197071061985419.84,200157898707724.6,279396371.0140078,467828289.69674903,5520617149.862828,103985296875.56615
1.3412089728127268,3430928531337669.0,3848477841164756.0,207088407044433.22,210332151169661.78,326273947.72320825,546321284.153148,6446875497.644594,121432142255.94972
1.4680331522689813,3592323705977111.0,4029528828156530.5,216830105046884.75,220226438957568.62,376517070.9838199,630449635.4581711,7439634010.177699,140131574249.77005
1.597393815314361,3749800050848265.0,4206185551565310.5,226335265270483.4,229880483940140.53,430173082.9810464,720292614.7052213,8499828127.614635,160101212595.42377
1.729341691620648,3903889146937932.0,4379044288911370.0,235635973565685.3,239326874546859.9,487298377.1511855,815944648.6383153,9628572134.799591,181362045727.9571
1.863928525453061,4055033616981247.0,4548601539582589.0,244758946326114.44,248592745645502.5,547957298.5520082,917513478.4053141,10827137433.57478,203938021517.60956
2.001207095962122,4203606782784687.0,4715276073426903.0,253726716990611.6,257700983629047.25,612221334.0809449,1025118803.6396269,12096936542.222584,227855745884.37283
2.1412312378813647,4349927091441251.0,4879425111881021.0,262558506799319.4,266671110810912.84,680168509.974675,1138891273.6191003,13439511190.60359,253144258558.814
2.284055862638992,4494268914329138.0,5041356440692253.0,271270876615490.66,275519947461106.22,751882941.346129,1258971734.6349936,14856523776.798761,279834908057.15814
2.4297369798917723,4636870773054126.0,5201337636323452.0,279878223429740.0,284262116069328.06,827454494.5105531,1385510658.057491,16349749268.461143,307961055848.4398
2.578331719489608,4777941702160926.0,5359603202987575.0,288393164420614.1,292910431448960.8,906978537.8480994,1518667732.94448,17921072415.86133,337558238385.7993
2.7298983538794,4917666239464605.0,5516360169844438.0,296826838159437.2,301476206641138.06,990555758.316586,1658611552.304043,19572482704.83269,368663929258.195
2.884496320956988,5056208388093181.0,5671792535082083.0,305189143758422.7,309969495813522.5,1078292032.112838,1805519398.1508822,21306072156.063892,401317533383.79565
3.0421862473761276,5193714797536969.0,5826064833950964.0,313488932876550.06,318399289273685.4,1170298337.906641,1959577096.2239404,23124033610.690014,435560354717.8043
3.2030299723236504,5330317343554064.0,5979325032530661.0,321734165440821.94,326773671629517.06,1266690704.902446,2120978929.0205195,25028659704.04747,471435576921.8983
3.3670905717701234,5466135239888334.0,6131706896358879.0,329932037108066.4,335099951247529.4,1367590189.6892545,2289927597.0341477,27022342408.260143,508988254748.0939
3.5344323832055258,5601276781393404.0,6283331945631216.0,338089084478660.4,343384767114604.25,1473122877.2243361,2466634220.4026866,29107573051.6867,548265314404.7502
3.7051210308696363,5735840794085397.0,6434311081681746.0,346211272620677.7,351634177733089.5,1583419902.3298397,2651318374.903907,31286942743.687172,589315561557.1113
3.879223451487029,5869917850043539.0,6584745949708608.0,354304068400430.0,359853735599946.75,1698617488.862545,2844208157.5433874,33563143148.594555,632189695905.422
4.0568079205167695,6003591292040031.0,6734730088086194.0,362372502328399.6,368048550021417.4,1818857004.3138535,3045540277.9792914,35938967564.57487,676940331505.9143
4.237944078927105,6136938103013125.0,6884349903648609.0,370421221040009.8,376223340415831.6,1944285028.0585053,3255560172.8009305,38417312272.17481,723622022171.5568
4.422702960505647,6270029648100337.0,7033685504033423.0,378454532084222.9,384382481803755.94,2075053431.8304203,3474522140.280912,41001178124.46735,772291291423.5364
4.61115701971576,6402932311291542.0,7182811411828748.0,386476442351477.7,392530043837840.4,2211319471.288011,3702689493.6956134,43693672356.31525,823006666569.9846
4.803380160110075,6535708044395351.0,7331797180369074.0,394490691208896.7,400669824457054.25,2353245887.756503,3940334731.686645,46498010594.72554,875828716572.4368
4.9994477633122765,6668414842611399.0,7480707927211645.0,402500779205500.1,408805379041518.3,2501001019.4159837,4187739724.4383454,49417519055.842865,930820093427.7803
5.199436718578522,6801107158333286.0,7629604798331531.0,410509993049055.5,416940045780581.3,2654758921.3500204,4445195914.691763,52455636917.01984,988045576847.921
5.403425452950093,6933836262696050.0,7778545373707212.0,418521427428821.25,425076967837388.75,2814699493.9885964,4713004532.814491,55615918854.756004,1047572122063.695
5.611493962009095,7066650562701254.0,7927584023082218.0,426538004157001.5,433219112790159.3,2981008619.577476,4991476825.310025,58902037741.22879,1109468910616.0315
5.823723841249277,7199595880405202.0,8076772219177394.0,434562489020336.44,441369289747732.75,3153878306.3866224,5280934296.28592,62317787493.74405,1173807404027.4285
6.040198318074262,7332715699568166.0,8226158814408337.0,442597506667682.8,449530164470340.44,3333506840.4380007,5581708961.512476,65867086072.76582,1240661400272.0315
6.261002284435747,7466051384279873.0,8375790286172517.0,450645553806092.0,457704272772382.7,3520098944.589907,5894143614.799653,69553978625.30208,1310107092983.6624
6.486222330124463,7599642373356616.0,8525710954963173.0,458709010934475.8,465894032439887.3,3713865944.8628154,6218592106.499362,73382640771.38109,1382223133358.976
6.715946776726952,7733526353713261.0,8675963178902853.0,466790152808222.2,474101753859038.06,3915025943.932811,6555419634.009466,77357382032.15204,1457090694728.2727
6.950265712261491,7867739415426875.0,8826587527744117.0,474891157798727.44,482329649522303.0,4123804001.753804,6905003044.214532,81482649398.84518,1534793539779.5051
7.18927102650672,8002316190803944.0,8977622938930211.0,483014116287392.6,490579842553925.56,4340432323.300229,7267731147.849458,85763031042.43129,1615418090432.4104
7.433056447036854,8137289979427425.0,9129106857932712.0,491161038213366.0,498854374375880.3,4565150453.448735,7644005045.816897,90203260164.33784,1699053500369.587
7.681717575977592,8272692860877841.0,9281075364766552.0,499333859877324.6,507155211618227.25,4798205479.040501,8034238467.528147,94808218989.05283,1785791730240.1187
7.935351927497144,8408555796587505.0,9433563288318886.0,507534450089312.6,515484252363251.1,5039852238.186968,8438858121.373072,99582942899.8538,1875727625559.0444
8.194058966047088,8544908722087392.0,9586604309904372.0,515764615736697.4,523843331800629.44,5290353536.900411,8858304057.45453,104532624719.26859,1968958997332.947
8.45794014536803,8681780630737727.0,9740231057271336.0,524026106838089.75,532234227360513.8,5549980373.147216,9293030042.752254,109662619136.20723,2065586705448.229
8.72709894827539,8819199649890693.0,9894475190122088.0,532320621140470.9,540658663382668.2,5819012168.437766,9743503948.90613,114978447282.0096,2165714744864.2678
9.0016409272409,8957193110311728.0,1.0049367478074734e+16,540649808309413.8,549118315372319.1,6097737007.080323,10210208152.832458,120485801457.93047,2269450334659.0366
9.281673745785717,9095787609581824.0,1.020493787187669e+16,549015273755998.2,557614813887018.6,6386451883.239769,10693639950.408981,126190550016.84454,2376904009979.5244
9.567307220701432,9235009070113544.0,1.0361215568579764e+16,557418582138616.1,566149748093299.0,6685462955.954082,11194311983.484915,132098742402.1882,2488189716953.8354
9.85865336511546,9374882792337228.0,1.0518229071301204e+16,565861260573258.4,574724669027239.4,6995085812.272899,11712752680.491066,138216614347.39517,2603424910626.266
10.155826432417769,9515433503547156.0,1.0676006244119592e+16,574344801581826.8,583341092588966.2,7315645738.693834,12249506710.943634,144550593239.2817,2722730655980.568
10.458942961066125,9656685402840028.0,1.0834574362591466e+16,582870665804596.9,592000502297601.1,7647478001.081833,12805135454.153164,151107303649.06436,2846231732120.497
10.768121820287448,9798662202529066.0,1.0993960160317436e+16,591440284499933.2,600704351830121.1,7990928133.268,13380217482.46633,157893573034.86496,2974056739680.6055
11.083484256693197,9941387166372168.0,1.115418987193931e+16,600055061851728.4,609454067364963.6,8346352234.532843,13975349059.384394,164916437619.77744,3106338211543.767
11.405153941827061,1.0084883144917464e+16,1.1315289272906432e+16,608716377102820.8,618251049748822.8,8714117276.189503,14591144652.91943,172183148449.74222,3243212726945.4453
11.733257020663602,1.0229172608233144e+16,1.147728371631245e+16,617425586530550.0,627096676503198.1,9094601417.49085,15228237464.562368,179701177635.65176,3384821029048.19
12.067922161076874,1.0374277676263096e+16,1.1640198167072584e+16,626184025279008.2,635992303685298.8,9488194331.094149,15887279974.255522,187478224784.31516,3531308146073.2095
12.409280604298411,1.0520220147021792e+16,1.1804057233680932e+16,634993009060848.1,644939267616540.0,9895297538.325603,16568944501.773897,195522223623.05713,3682823516079.315
12.75746621638438,1.0667021522820754e+16,1.1968885197764266e+16,643853835740309.0,653938886490349.2,10316324754.496265,17273923784.937553,203841348822.92984,3839521115482.7363
13.112615540712067,1.0814703034699342e+16,1.2134706041625316e+16,652767786807831.4,662992461869888.2,10751702244.529688,18002931575.09017,212444023025.67767,4001559591414.814
13.474867851526309,1.0963285665214448e+16,1.2301543473949788e+16,661736128755632.0,672101280085161.6,11201869189.170437,18756703250.295063,221338924079.77682,4169102398017.4717
13.844365208556836,1.1112790169728878e+16,1.2469420953833414e+16,670760114362655.6,681266613538108.8,11667278062.051428,19535996446.71391,230534992491.0364,4342317936780.3984
14.221252512727972,1.1263237096324368e+16,1.2638361713271072e+16,679840983896509.6,690489721923355.2,12148395017.907797,20341591708.649567,240041439093.45154,4521379701026.385
14.605677562982532,1.1414646804452506e+16,1.2808388778234388e+16,688979966239216.6,699771853371608.5,12645700292.232513,21174293157.748234,249867752946.13995,4706466424655.175
14.997791114242183,1.1567039482427234e+16,1.297952498845481e+16,698178279943052.0,709114245522018.4,13159688612.679493,22034929181.871563,260023709462.40063,4897762235259.408
15.397746936527026,1.1720435163850822e+16,1.3151793016015286e+16,707437134222007.5,718518126529195.2,13690869622.528315,22924353144.165985,270519378777.10315,5095456811729.347
15.805701875257567,1.1874853743059136e+16,1.33252153828465e+16,716757729884054.2,727984716010045.8,14239768316.533352,23843444112.869446,281365134358.7905,5299745546466.975
16.221815912762718,1.2030314989661702e+16,1.3499814477212952e+16,726141260208765.0,737515225935165.4,14806925489.490732,24793107612.413025,292571661873.0745,5510829712333.042
16.64625223101797,1.2186838562246726e+16,1.3675612569267636e+16,735588911774551.9,747110861469015.2,15392898197.864353,25774276396.39033,304149968304.0748,5728916634454.25
17.079177275638333,1.2344444021314146e+16,1.3852631825746038e+16,745101865239279.9,756772821762786.6,15998260234.822569,26787911242.98158,316111391340.8402,5954219867021.32
17.5207608211511,1.250315084149401e+16,1.4030894323863896e+16,754681296077777.0,766502300703441.5,16623602619.04567,27835001773.43733,328467609035.875,6186959375212.123
17.97117603757412,1.2662978423102486e+16,1.4210422064477494e+16,764328375279335.5,776300487622135.1,17269534097.674137,28916567294.2403,341230649743.08417,6427361722377.016
18.430599558325603,1.2823946103082102e+16,1.4391236984559416e+16,774044270008056.6,786168567964933.1,17936681663.776924,30033657663.57957,354412902342.6136,6675660262628.127
18.899211549492115,1.2986073165369496e+16,1.4573360969037516e+16,783830144228643.8,796107723928385.4,18625691088.727154,31187354182.78846,368027126760.2584,6932095338976.072
19.37719578048196,1.3149378850728134e+16,1.47568158620403e+16,793687159299904.8,806119135062310.1,19337227469.8829,32378770513.40871,382086464789.2889,7196914487162.44
19.864739696091597,1.3313882366080624e+16,1.4941623477586568e+16,803616474538028.4,816203978841942.4,20071975793.977882,33609053620.561153,396604451222.68835,7470372645338.387
20.36203449001343,1.3479602893370104e+16,1.5127805609753992e+16,813619247751463.8,826363431211131.8,20830641516.635178,34879384743.314354,411595025303.97845,7752732369743.081
20.869275179813698,1.3646559597976946e+16,1.5315384042354854e+16,823696635748947.2,836598667098368.9,21613951158.42559,36190980392.75578,427072542504.9403,8044264056538.869
21.38666068340997,1.3814771636712596e+16,1.5504380558144308e+16,833849794821994.8,846910860906822.2,22422652917.89663,37545093378.48068,443051786638.67706,8345246169961.258
21.91439389707817,1.3984258165408356e+16,1.5694816947581322e+16,844079881202960.1,857301186979566.1,23257517302.005436,38943013864.222595,459547982316.54205,8655965476945.312
22.452681775019734,1.4155038346112144e+16,1.588671501715674e+16,854388051499433.2,867770820040786.9,24119337774.391388,40386070453.357475,476576807757.5912,8976717288390.225
23.00173541052013,1.4327131353902748e+16,1.6080096597299738e+16,864775463105531.4,878320935613524.2,25008931421.92839,41875631305.01445,494154407959.1972,9307805707225.537
23.561770118730532,1.4500556383324946e+16,1.627498354986603e+16,875243274590327.2,888952710414163.9,25927139639.994785,43413105281.53064,512297408237.5189,9649543883442.146
24.133005521105144,1.4675332654444292e+16,1.6471397775207592e+16,885792646063311.9,899667322723644.2,26874828836.898064,44999943127.980125,531022928146.45514,10002254276250.547
24.715665631527248,1.4851479418514922e+16,1.666936121881548e+16,896424739516490.6,910465952734907.2,27852891157.886738,46637638684.4995,550348595783.6,10366268923526.799
25.309978944157795,1.5029015963246816e+16,1.6868895877521488e+16,907140719142318.6,921349782875796.4,28862245229.171116,48327730132.12079,570292562491.5791,10741929718703.46
25.91617852304095,1.5207961617652582e+16,1.7070023805236468e+16,917941751626248.1,932319998106212.8,29903836922.36495,50071801272.79577,590873517962.8492,11129588695258.115
26.53450209350177,1.5388335756447128e+16,1.7272767118194948e+16,928829006412287.6,943377786187812.8,30978640139.73952,51871482844.2727,612110705755.7599,11529608318945.531
27.165192135371807,1.5570157803964632e+16,1.7477147999666834e+16,939803655939431.0,954524337924147.6,32087657620.662495,53728453870.445015,634023939229.1636,11942361787911.264
27.808495978079243,1.5753447237549514e+16,1.7683188704087898e+16,950866875846326.0,965760847368539.5,33231921769.56108,55644443047.74378,656633617902.3556,12368233340813.72
28.464665897640828,1.5938223590369236e+16,1.7890911560549814e+16,962019845141065.2,977088511996528.1,34412495505.720116,57621230168.09068,679960744246.4141,12807618573068.986
29.133959215593645,1.6124506453586444e+16,1.810033897558068e+16,973263746332280.0,988508532839022.9,35630473135.176384,59660647578.852554,704026940912.1538,13260924761316.521
29.816638399905518,1.6312315477818478e+16,1.8311493435135012e+16,984599765517250.6,1000022114571780.5,36886981244.92504,61764581680.156105,728854468398.9231,13728571196185.207
30.51297116790363,1.6501670373801946e+16,1.8524397505700772e+16,996029092422003.2,1011630465556146.9,38183179619.592834,63934974459.82511,754466243167.326,14210989523417.566
31.223230591261704,1.6692590912168364e+16,1.873907383441831e+16,1007552920387785.8,1023334797825313.8,39520262180.664696,66173825066.08054,780885856197.5603,14708624093383.756
31.947695203086937,1.6885096922227508e+16,1.8955545148095156e+16,1019172446297613.2,1035136327009703.1,40899457948.27226,68483191418.0228,808137591993.544,15221932318988.656
32.686649107148675,1.707920828964156e+16,1.9173834250985708e+16,1030888870435899.1,1047036272194411.4,42322032025.4614,70865191853.75464,836246448031.2131,15751385041941.201
33.44038208929165,1.7274944952865486e+16,1.939396402119543e+16,1042703396273578.2,1059035855700972.1,43789286604.760895,73322006815.8477,865238154647.4412,16297466907319.21
34.20918973107749,1.7472326898214956e+16,1.961595740555462e+16,1054617230170430.0,1071136302784989.1,45302561996.75774,75855880573.65889,895139195363.7837,16860676746320.01
34.993373525699035,1.7671374153415678e+16,1.983983741279747e+16,1066631580985706.5,1083338841240703.6,46863237680.264755,78469122981.8051,925976827636.8599,17441527967043.049
35.793240996213015,1.787210677947724e+16,2.0065627104869468e+16,1078747659587651.6,1095644700902794.8,48472733373.53106,81164111273.8721,957779104024.5021,18040548953099.117
36.60910581613728,1.807454486072595e+16,2.029334958617878e+16,1090966678251886.0,1108055113035363.1,50132510125.79865,83943291890.19783,990574893753.9377,18658283469787.67
37.44128793246003,1.827870849282472e+16,2.052302799059647e+16,1103289849938293.1,1120571309597485.0,51844071428.35307,86809182338.29567,1024393904675.1285,19295291077524.188
38.29011369110923,1.8484617768600692e+16,2.0754685466005828e+16,1115718387435597.1,1133194522374385.0,53608964344.04284,89764373084.20744,1059266705579.0226,19952147552136.797
39.15591596493141,1.869229276149856e+16,2.0988345156194744e+16,1128253502362596.5,1145925981963026.5,55428780654.06856,92811529472.77386,1095224748857.0582,20629445311584.848
40.03903428423004,1.890175350647303e+16,2.122403017988238e+16,1140896404014868.0,1158766916600760.8,57305158020.646645,95953393674.49121,1132300393474.3093,21327793848581.49
40.93981496991464,1.9113019978135348e+16,2.1461763606671188e+16,1153648298045690.8,1171718550825577.8,59239781163.959946,99192786656.29028,1170526928224.9365,22047820168528.484
41.85861126931294,1.9326112065969068e+16,2.1701568429716496e+16,1166510384970097.8,1184782103956729.5,61234383051.59544,102532610173.22993,1209938595234.3647,22790169232093.367
42.7957834946992,1.954104954643456e+16,2.194346753491048e+16,1179483858481110.5,1197958788384595.5,63290746098.460785,105975848777.73784,1250570613668.5103,23555504401682.145
43.751699164593184,1.975785205178855e+16,2.2187483666385268e+16,1192569903567731.2,1211249807659182.5,65410703374.94601,109525571842.66154,1292459203605.9458,24344507890976.535
44.72673314788505,1.9976539035454436e+16,2.2433639388148364e+16,1205769694424691.2,1224656354367155.8,67596139820.88026,113184935594.02641,1335641610024.5544,25157881216622.965
