t(s),Total solute volume 1,Total retention volume 1,Total 1 volume 1,Total 2 volume 1,Total 3 volume 1,Total 4 volume 1,Total 5 volume 1,Total 6 volume 1
0.1,1360095892163908.8,3176178273173015.0,653029631800972.5,1163052749208134.2,0.0,0.0,0.0,-4.1755110825714755e-98
0.202,2025666094562499.0,4787050578758008.0,972593231065652.0,1732199399455157.2,9387200296.825808,37282767778.93304,1574760574371.8333,54970423132257.414
0.30604000000000003,2523168693814019.0,6036975531063786.0,1211461658969796.0,2157626798655659.8,23619098740.79424,93809339499.45525,3968086180589.9014,140632865005480.98
0.41216080000000005,2934797939334607.5,7110372695530463.0,1409099279238693.2,2509621641879277.0,41621620660.19166,165312691139.95135,6996849738066.569,249650051028022.9
0.5204040160000001,3292147754410993.5,8077628252516919.0,1580675443173314.0,2815200732778745.0,62878953541.0208,249743971085.5001,10573935193787.514,378717764035449.0
0.6308120963200001,3611122201075210.5,8973916228030755.0,1733826248499068.5,3087964051588741.5,87084068545.10767,345883672316.8892,14647585442189.32,525923173684682.56
0.7434283382464002,3901036374659561.5,9819702551099598.0,1873024198903268.8,3335877179020332.0,114033480392.16704,452923571855.348,19183527873465.547,690014313590731.0
0.8582969050113283,4167897777870819.0,1.0628115278122202e+16,2001153706903981.8,3564077286686271.0,143583629484.45258,570293472474.0461,24157597614126.074,870115031945034.9
0.9754628431115548,4415848315393370.0,1.1408170333526366e+16,2120203446030203.5,3776106224678246.5,175629212495.30768,697575130060.639,29552078752012.105,1065587064329974.1
1.094972099973786,4647887386619459.0,1.2166381945680898e+16,2231613532989521.5,3974528857096304.0,210091077992.1229,834454174729.788,35353662296244.31,1275953961426644.8
1.2168715419732616,4866270459017080.0,1.2907646332646478e+16,2336466896710276.0,4161273892535386.5,246908883655.53754,980690945362.6113,41552208061391.93,1500855276493320.2
1.3412089728127268,5072745011323109.0,1.3635762460245858e+16,2435602562935976.5,4337835645251660.0,286036360351.10516,1136101678650.0725,48139946381537.625,1740017156314577.5
1.4680331522689813,5268698225345782.0,1.4353756562763892e+16,2529686566234115.5,4505400330261095.0,327438109393.2452,1300545787981.7915,55110938389410.195,1993232518636096.8
1.597393815314361,5455253685543356.0,1.5064093685960912e+16,2619258378851518.5,4664928753659392.0,371087353530.09235,1473916930497.892,62460697084397.69,2260347166538217.5
1.729341691620648,5633337077477817.0,1.576882079299928e+16,2704762454843446.5,4817212493073649.0,416964308572.29407,1656136539318.434,70185913010707.26,2541249753745761.0
1.863928525453061,5803722228465722.0,1.646966663135077e+16,2786570335802776.5,4962913268216256.0,465054974197.1561,1847149020718.5476,78284250574887.27,2835864344296201.5
2.001207095962122,5967064233443559.0,1.7168113294997378e+16,2864996555748303.5,5102591267670435.0,515350216812.7309,2046918111350.0193,86754193573987.62,3144144776232942.5
2.1412312378813647,6123923835293906.0,1.7865448688382802e+16,2940310346973257.5,5236725997138425.0,567845061378.5889,2255424065425.913,95594925927641.19,3466070313922758.5
2.284055862638992,6274785725938844.0,1.8562805762296692e+16,3012744427041264.5,5365731929180221.0,622538136179.9413,2472661449425.6616,104806238176355.92,3801642242374396.5
2.4297369798917723,6420072523964346.0,1.92611923757483e+16,3082501709933386.0,5489970455841820.0,679431231811.7909,2698637390434.2085,114388453217797.1,4150881164168678.0
2.578331719489608,6560155614947672.0,1.99615143798902e+16,3149760510868967.0,5609759158499726.0,738528946949.5891,2933370169190.615,124342366660716.3,4513824829796977.0
2.7298983538794,6695363674191176.0,2.066459371272383e+16,3214678638368635.0,5725379095870981.0,799838401099.8523,3176888079175.9355,134669198459809.31,4890526379352970.0
2.884496320956988,6825989449841014.0,2.137118276214125e+16,3277396651067155.0,5837080604433430.0,863368999767.0537,3429228493894.404,145370553378226.44,5281052905927772.0
3.0421862473761276,6952295221346898.0,2.2081975897528668e+16,3338040478511130.5,5945087966095786.0,929132241155.4082,3690437099128.0884,156448388444886.3,5685484273789658.0
3.2030299723236504,7074517236061286.0,2.279761882493424e+16,3396723551325659.0,6049603202048305.0,997141556157.6239,3960567257404.7188,167904986017400.2,6103912140668012.0
3.3670905717701234,7192869348212125.0,2.35187162494588e+16,3453548548412583.5,6150809184542452.0,1067412175296.8927,4239679479521.9287,179742931383899.25,6536439145252937.0
3.5344323832055258,7307546028544786.0,2.4245838206833036e+16,3508608841984995.0,6248872210513485.0,1139961017700.6238,4527840983580.043,191965094074927.84,6983178229713543.0
3.7051210308696363,7418724872502762.0,2.4979525338416484e+16,3561989701832625.0,6343944146390654.0,1214806598240.3323,4825125326169.687,204574612234433.3,7444252073531634.0
3.879223451487029,7526568705200358.0,2.572029331974256e+16,3613769305992940.0,6436164228113661.0,1291968949771.3298,5131612093535.099,217574879533502.16,7919792619858797.0
4.0568079205167695,7631227359470242.0,2.646863660528907e+16,3664019594454072.0,6525660581587140.0,1371469558017.882,5447386642964.593,230969534213547.4,8409940679363103.0
4.237944078927105,7732839186781240.0,2.722503161664157e+16,3712806994599314.0,6612551514705448.0,1453331307122.757,5772539886539.777,244762449925386.4,8914845599436516.0
4.422702960505647,7831532348315092.0,2.798993947433901e+16,3760193041098349.0,6696946621385829.0,1537578434249.9382,6107168110843.818,258957728092901.3,9434664988901758.0
4.61115701971576,7927425923910810.0,2.8763808353158772e+16,3806234908350223.0,6778947729855306.0,1624236491920.6301,6451372827386.293,273559691579060.75,9969564490144050.0
4.803380160110075,8020630869177222.0,2.954707552475532e+16,3850985870026615.5,6858649721102388.0,1713332316994.2725,6805260649422.462,288572879471064.1,1.0519717592011638e+16
4.9994477633122765,8111250845297722.0,3.034016913924697e+16,3894495697490154.0,6936141238464551.0,1804894005391.8108,7168943191580.817,304002042832621.6,1.1085305477964926e+16
5.199436718578522,8199382941509565.0,3.1143509787678356e+16,3936811006682036.5,7011505305438910.0,1898950891808.0393,7542536989308.0,319852141296558.25,1.1666516904870164e+16
5.403425452950093,8285118306642524.0,3.1957511879653396e+16,3977975561345837.0,7084819865727270.0,1995533533781.5256,7926163435622.267,336128340391414.44,1.226354810857692e+16
5.611493962009095,8368542703231791.0,3.2782584864352604e+16,4018030539076546.0,7156158257072362.0,2094673699589.8528,8319948733062.022,352836009512454.56,1.287660273302678e+16
5.823723841249277,8449736995415273.0,3.361913431828394e+16,4057014765577100.5,7225589628471436.0,2196404359519.846,8724023859040.421,369980720461235.94,1.3505891780140316e+16
6.040198318074262,8528777579962434.0,3.4467562919187796e+16,4094964921610476.5,7293179308760124.0,2300759680129.957,9138524543085.668,387568246489309.1,1.4151633578142244e+16
6.261002284435747,8605736768267916.0,3.5328271322337256e+16,4131915726408151.5,7358989133265056.0,2407775021178.3687,9563591254670.395,405604561791066.0,1.4814053766329222e+16
6.486222330124463,8680683125904541.0,3.6201658952875624e+16,4167900100701473.0,7423077734164443.0,2517486934937.29,9999369200520.02,424095841398701.8,1.5493385294570972e+16
6.715946776726952,8753681775313280.0,3.708812472570757e+16,4202949312053597.5,7485500799326036.0,2629933167653.6055,10446008330447.514,443048461438877.9,1.618986843607767e+16
6.950265712261491,8824794666366465.0,3.7988067702705e+16,4237093104766478.0,7546311303672691.0,2745152662949.291,10903663350893.83,462468999716326.94,1.6903750812169252e+16
7.18927102650672,8894080818843307.0,3.890188769553734e+16,4270359816301749.5,7605559716529504.0,2863185566983.371,11372493745466.688,482364236594377.44,1.7635287427955968e+16
7.433056447036854,8961596540274291.0,3.982998582122705e+16,4302776481875545.0,7663294187908139.0,2984073235221.325,11852663801864.984,502741156146454.0,1.8384740717985484e+16
7.681717575977592,9027395622124326.0,4.077276501652518e+16,4334368928652817.5,7719560716268100.0,3107858240678.3867,12344342644659.062,523606947556057.6,1.9152380601038508e+16
7.935351927497144,9091529516873988.0,4.173063051635205e+16,4365161860770297.5,7774403299943455.0,3234584383520.916,12847704273466.648,544969006745743.06,1.993848454336167e+16
8.194058966047088,9154047498212600.0,4.27039903008385e+16,4395178936250771.5,7827864074128108.0,3364296701925.289,13362927606124.873,566834938218122.0,2.0743337629720816e+16
8.45794014536803,9214996806263466.0,4.3693255514897464e+16,4424442836730818.0,7879983435061629.0,3497041484106.9004,13890196526511.81,589212557094215.8,2.1567232641736756e+16
8.72709894827539,9274422779512026.0,4.469884086375119e+16,4452975330804128.5,7930800152844350.0,3632866281443.3477,14429699936715.13,612109891336319.6,2.2410470143036172e+16
9.0016409272409,9332368974894688.0,4.572116498739525e+16,4480797331680340.5,7980351474128537.0,3771819922625.755,14981631813286.877,635535184144307.1,2.327335857081149e+16
9.281673745785717,9388877277323972.0,4.6760650816618584e+16,4507928949771933.0,8028673215776081.0,3913952528781.021,15546191267355.812,659496896515680.4,2.415621433343472e+16
9.567307220701432,9443987999768608.0,4.781772591287318e+16,4534389540746189.0,8075799850439589.0,4059315529515.2305,16123582608400.87,684003709961038.4,2.5059361913819836e+16
9.85865336511546,9497739974872534.0,4.889282279402018e+16,4560197749514589.0,8121764584908135.0,4207961679835.357,16714015411514.69,709064529367695.6,2.5983133978265892e+16
10.155826432417769,9550170638979586.0,4.9986379247737736e+16,4585371550576147.0,8166599431958915.0,4359945077912.0825,17317704588010.252,734688486005211.4,2.692787149055202e+16
10.458942961066125,9601316109329982.0,5.109883863417706e+16,4609928285082051.0,8210335276370051.0,4515321183651.932,17934870459244.016,760884940667469.2,2.789392383108468e+16
10.768121820287448,9651211255106870.0,5.223065017927554e+16,4633884694947603.0,8253001935674156.0,4674146838051.504,18565738833547.535,787663486946709.0,2.8881648920928584e+16
11.083484256693197,9699889762933766.0,5.338226925998109e+16,4657256954299889.0,8294628216167028.0,4836480283310.508,19210541086175.52,815033954635601.8,2.9891413350575304e+16
11.405153941827061,9747384197358192.0,5.455415768251253e+16,4680060698518020.0,8335241964628626.0,5002381183684.433,19869514242193.535,843006413254107.9,3.0923592513327708e+16
11.733257020663602,9793726056796874.0,5.5746783954659784e+16,4702311051094423.0,8374870116163366.0,5171910647060.165,20542901062240.223,871591175698365.2,3.1978570743197468e+16
12.067922161076874,9838945825367650.0,5.696062355303152e+16,4724022648521184.0,8413538738522890.0,5345131247241.798,21230950131111.945,900798802009368.8,3.305674145723208e+16
12.409280604298411,9883073020987236.0,5.819615918606334e+16,4745209663383338.0,8451273073235542.0,5522107046935.374,21933915949127.297,930640103259636.0,3.4158507302201504e+16
12.75746621638438,9926136240074300.0,5.945388105352705e+16,4765885825822569.0,8488097573833387.0,5702903621424.72,22652059026238.367,961126145556472.6,3.5284280305592624e+16
13.112615540712067,9968163199162722.0,6.0734287103208264e+16,4786064443517053.0,8524035941436541.0,5887588082931.882,23385645978864.03,992268254160770.5,3.64344820308694e+16
13.474867851526309,1.0009180773697988e+16,6.203788328536256e+16,4805758420308972.0,8559111157929055.0,6076229105657.854,24134949629429.113,1024078017720620.4,3.76095437369708e+16
13.844365208556836,1.0049215034262482e+16,6.336518380550367e+16,4824980273597653.0,8593345516936097.0,6268896951501.263,24900249108598.188,1056567292619312.1,3.880990654202803e+16
14.221252512727972,1.008829128045106e+16,6.47167113760347e+16,4843742150604241.0,8626760652791785.0,6465663496453.749,25681829960201.133,1089748207437569.1,4.00360215912934e+16
14.605677562982532,1.0126434072596048e+16,6.6092997467186984e+16,4862055843604203.0,8659377567668105.0,6666602257672.674,26479984248852.043,1123633167530057.5,4.128835022928205e+16
14.997791114242183,1.0163667261522152e+16,6.7494582557696264e+16,4879932804213484.0,8691216657018961.0,6871788421232.831,27295010670268.3,1158234859716507.5,4.25673641761336e+16
15.397746936527026,1.0200014016493432e+16,6.892201638561453e+16,4897384156806939.0,8722297733478491.0,7081298870560.113,28127214664302.17,1193566257087929.2,4.387354570821285e+16
15.805701875257567,1.0235496851499736e+16,7.037585819962406e+16,4914420711139376.0,8752640049339195.0,7295212215551.164,28976908530700.363,1229640623928598.5,4.520738784297093e+16
16.221815912762718,1.0270137650016136e+16,7.1856677011196136e+16,4931052974233423.0,8782262317724374.0,7513608822384.105,29844411547612.938,1266471520754686.8,4.656939452809753e+16
16.64625223101797,1.0303957688356112e+16,7.336505184791326e+16,4947291161592124.0,8811182732558016.0,7736570844026.253,30730050092873.855,1304072809470521.0,4.796008083499958e+16
17.079177275638333,1.033697765772802e+16,7.490157200825318e+16,4963145207789152.0,8839418987425894.0,7964182251445.666,31634157768081.57,1342458658643646.2,4.937997315664702e+16
17.5207608211511,1.0369217685095126e+16,7.646683731811674e+16,4978624776484342.0,8866988293413388.0,8196528865534.105,32557075525510.223,1381643548899989.5,5.082960940983272e+16
17.97117603757412,1.040069735292928e+16,7.806145838935936e+16,4993739269908159.0,8893907395997506.0,8433698389749.952,33499151797883.203,1421642278440513.0,5.230953924189632e+16
18.430599558325603,1.0431435717941496e+16,7.96860568805825e+16,5008497837854898.0,8920192591063776.0,8675780443489.723,34460742631047.695,1462469968680894.5,5.382032424196685e+16
18.899211549492115,1.0461451328864156e+16,8.134126576041402e+16,5022909386220550.0,8945859740112315.0,8922866596198.35,35442211819586.05,1504142070015898.5,5.536253815678541e+16
19.37719578048196,1.049076224335389e+16,8.302772957351016e+16,5036982585118465.0,8970924284711850.0,9175050402228.254,36443931045407.94,1546674367710151.5,5.693676711116828e+16
19.864739696091597,1.0519386044077794e+16,8.474610470948866e+16,5050725876602881.0,8995401260255518.0,9432427436457.809,37466280019363.414,1590082987917163.2,5.854360983317941e+16
20.36203449001343,1.0547339854039998e+16,8.64970596750011e+16,5064147482027794.0,9019305309066936.0,9695095330681.293,38509646625925.77,1634384403828557.5,6.018367788408134e+16
20.869275179813698,1.0574640351201402e+16,8.828127536914536e+16,5077255409066371.0,9042650692901974.0,9963153810781.537,39574427070988.48,1679595441955464.5,6.1857595893138424e+16
21.38666068340997,1.0601303782440364e+16,9.009944536240216e+16,5090057458413944.0,9065451304886798.0,10236704734697.9,40661026032828.02,1725733288544234.2,6.3566001797349384e+16
21.91439389707817,1.0627345976898198e+16,9.195227617928792e+16,5102561230195703.0,9087720680930102.0,10515852131202.63,41769856816282.38,1772815496128611.5,6.530954708618774e+16
22.452681775019734,1.0652782358750048e+16,9.384048758489664e+16,5114774130098428.0,9109472010643622.0,10800702239498.445,42901341510199.0,1820859990220629.2,6.708889705143414e+16
23.00173541052013,1.06776279594381e+16,9.57648128755096e+16,5126703375244017.0,9130718147803118.0,11091363549651.523,44055911148206.84,1869885076142566.8,6.890473104218378e+16
23.561770118730532,1.0701897429400798e+16,9.772599917343838e+16,5138355999821167.0,9151471620378466.0,11387946843873.691,45234005872868.15,1919909446002332.5,7.075774272511905e+16
24.133005521105144,1.072560504932985e+16,9.972480772627272e+16,5149738860490273.0,9171744640159618.0,11690565238668.502,46436075103269.28,1970952185814751.0,7.264864035013613e+16
24.715665631527248,1.0748764740983442e+16,1.0176201421068709e+17,5160858641575115.0,9191549112003302.0,11999334227855.979,47662577706108.65,2023032782771285.8,7.457814702141998e+16
25.309978944157795,1.0771390077582092e+16,1.0383840904097749e+17,5171721860054402.0,9210896642722866.0,12314371726491.562,48913982170343.98,2076171132660786.8,7.654700097406035e+16
25.91617852304095,1.0793494293812004e+16,1.059547976824749e+17,5182334870364637.0,9229798549642280.0,12635798115694.453,50190766785460.53,2130387547443913.5,7.85559558563111e+16
26.53450209350177,1.081509029545785e+16,1.0811200097000014e+17,5192703869025230.0,9248265868833482.0,12963736288402.104,51493419823424.93,2185702762983942.5,8.06057810175877e+16
27.165192135371807,1.0836190668686352e+16,1.1031085543150491e+17,5202834899095781.0,9266309363054916.0,13298311696066.336,52822439724389.36,2242137946936775.0,8.269726180231074e+16
27.808495978079243,1.0856807688999548e+16,1.1255221361706186e+17,5212733854474916.0,9283939529407650.0,13639652396308.71,54178335286213.0,2299714706802917.0,8.483119984969426e+16
28.464665897640828,1.087695332987558e+16,1.1483694443334435e+17,5222406484049064.0,9301166606724578.0,13987889101551.371,55561625857870.625,2358455098144419.5,8.700841339959134e+16
29.133959215593645,1.0896639271113802e+16,1.1716593348375643e+17,5231858395699149.0,9318000582706260.0,14343155228641.74,56972841536813.805,2418381632969615.5,8.922973760450205e+16
29.816638399905518,1.091587690689905e+16,1.1954008341435429e+17,5241095060172606.0,9334451200816900.0,14705586949487.752,58412523370361.66,2479517288288831.0,9.149602484785704e+16
30.51297116790363,1.0934677353599588e+16,1.2196031426571749e+17,5250121814827348.0,9350527966952850.0,15075323242722.795,59881223561186.805,2541885514843957.5,9.380814506868982e+16
31.223230591261704,1.0953051457311702e+16,1.244275638309107e+17,5258943867254288.0,9366240155893762.0,15452505946417.959,61379505676976.766,2605510246015181.5,9.616698609281234e+16
31.947695203086937,1.0971009801163274e+16,1.2694278801969389e+17,5267566298784072.0,9381596817548428.0,15837279811861.025,62907944864340.43,2670415906907945.5,9.857345397061418e+16
32.686649107148675,1.0988562712387968e+16,1.2950696122912558e+17,5275994067883444.0,9396606783003914.0,16229792558420.887,64467128067040.18,2736627423623492.0,1.0102847332160123e+17
33.44038208929165,1.1005720269180116e+16,1.3212107672071024e+17,5284232013446753.0,9411278670387304.0,16630194929517.086,66057654248624.65,2804170232716198.0,1.0353298768580158e+17
34.20918973107749,1.10224923073408e+16,1.3478614700424362e+17,5292284857986836.0,9425620890549116.0,17038640749714.506,67680134619543.04,2873070290841119.5,1.0608795988215664e+17
34.993373525699035,1.1038888426724076e+16,1.3750320422850491e+17,5300157210730085.0,9439641652575386.0,17455286982962.74,69335192868821.48,2943354084595229.5,1.0869437237402843e+17
35.793240996213015,1.1054917997492088e+16,1.402733005789471e+17,5307853570619771.0,9453348969136780.0,17880293792001.406,71023465400382.08,3015048640555660.0,1.1135322764195042e+17
36.60910581613728,1.1070590166187022e+16,1.430975086825431e+17,5315378329231412.0,9466750661680800.0,18313824598951.98,72745601574090.56,3088181535518743.5,1.1406554856375216e+17
37.44128793246003,1.108591386162793e+16,1.4597692201993885e+17,5322735773604020.0,9479854365474284.0,18756046147117.016,74502263951615.33,3162780906943210.0,1.1683237880219074e+17
38.29011369110923,1.1100897800639022e+16,1.4891265534506925e+17,5329930088990461.0,9492667534501890.0,19207128564009.125,76294128547184.66,3238875463601398.0,1.1965478320022522e+17
39.15591596493141,1.1115550493616576e+16,1.5190584511239494e+17,5336965361530340.0,9505197446226332.0,19667245425630.734,78121885083330.97,3316494496442106.5,1.225338481840705e+17
40.03903428423004,1.1129880249940472e+16,1.5495764991191872e+17,5343845580848193.0,9517451206216120.0,20136573822027.81,79986237251709.94,3395667889668921.5,1.2547068217417125e+17
40.93981496991464,1.1143895183236406e+16,1.580692509121389e+17,5350574642580203.0,9529435752645268.0,20615294424139.44,81887902979085.47,3476426132037809.0,1.28466416004236e+17
41.85861126931294,1.1157603216494458e+16,1.612418523111042e+17,5357156350831660.0,9541157860670452.0,21103591551967.027,83827614698574.55,3558800328378018.0,1.3152220334847918e+17
