t(s),Total solute volume 1,Total retention volume 1,Total 1 volume 1,Total 2 volume 1,Total 3 volume 1,Total 4 volume 1,Total 5 volume 1,Total 6 volume 1
0.1,1090211262672958.4,1436790320131653.8,152346489675587.4,194232567783107.2,0.0,0.0,0.0,0.0
0.202,1640691660396410.0,2164755147181065.0,229270807443564.7,292306429329382.44,1893058241.4378898,4497105476.065054,89654447659.64294,2390205400330.5156
0.30604000000000003,2059291028284669.5,2720245957315489.0,287766024822742.9,366884298439599.94,4799536981.255723,11401679736.817492,227308846255.15427,6061095705502.858
0.41216080000000005,2412669038574099.5,3190850053666674.5,337147187553513.7,429842298120368.0,8519208975.479747,20238064995.96766,403478159803.1329,10759293984919.316
0.5204040160000001,2725849853012808.5,3609428895226371.0,380911180518478.5,485638745582776.7,12962383843.264881,30793195343.150467,613914256087.2255,16371446277036.143
0.6308120963200001,3011309176443550.0,3992360104211873.5,420801362945484.2,536496318584016.9,18080275414.647686,42951176359.39784,856306473679.1987,22835908313371.016
0.7434283382464002,3276299578403749.5,4349164336977409.0,457831211359327.56,583707138489893.4,23844340720.12537,56644203057.24224,1129302953042.2725,30116617227623.406
0.8582969050113283,3525466889924496.0,4685942264997354.0,492649935761586.6,628098908842900.8,30237783264.76896,71832375200.98592,1432108188110.5776,38192352121796.16
0.9754628431115548,3761993728260257.0,5006876118504029.0,525702276164786.3,670238646297034.5,37251362185.8212,88493741622.85081,1764284531200.0754,47051438146939.28
1.094972099973786,3988170484293622.0,5314979136692111.0,557308292566036.1,710534408016523.6,44881068134.193085,106618779097.01927,2125642114807.535,56688809853888.68
1.2168715419732616,4205708890692279.5,5612506980607026.0,587707183067565.6,749291157133457.5,53126724073.28389,126207068430.39287,2516172581176.6626,67104243340044.59
1.3412089728127268,4415927016607551.0,5901200361585969.0,617083135098566.0,786743721494433.8,61991090237.24976,147265168224.9188,2936006690635.4155,78301225436321.28
1.4680331522689813,4619864699237605.0,6182436380478277.0,645581455860933.6,823077359004655.5,71479264388.58177,169805190147.2013,3385385916264.1055,90286196004287.42
1.597393815314361,4818358891791657.0,6457327281129440.0,673319101479280.8,858441181658287.0,81598265057.22627,193843808885.474,3864642705124.4146,103068021421138.56
1.729341691620648,5012094705594166.0,6726787327072839.0,700391809641872.2,892957249224800.8,92356733427.3543,219401553963.63565,4374186358984.276,116657617965617.36
1.863928525453061,5201641078214454.0,6991579521802461.0,726879083877120.1,926726923900472.1,103764715090.79373,246502291285.04276,4914492697751.016,131067676106287.33
2.001207095962122,5387476365524788.0,7252349122688643.0,752847769796445.8,959835429802017.6,115833497280.32335,275172836473.28705,5486096350582.438,146312454881062.94
2.1412312378813647,5570007126516776.0,7509648235647931.0,778354680090873.5,992355199678689.5,128575485692.12996,305442662260.3787,6089584922047.602,162407626291590.7
2.284055862638992,5749582187090372.0,7763954225963643.0,803448559809675.9,1024348380523825.9,142004110223.46167,337343674565.4873,6725594527789.648,179370156227188.38
2.4297369798917723,5926503353861365.0,8015683742487242.0,828171583511436.8,1055868742352053.5,156133752264.9231,370910039778.69446,7394806351075.195,197218212619272.53
2.578331719489608,6101033702448869.0,8265203566744437.0,852560513472179.9,1086963154844653.9,170979688353.99756,406178050912.40466,8097943974257.796,215971094265201.75
2.7298983538794,6273404077872444.0,8512839122365039.0,876647608053029.8,1117672745463482.8,186558046450.73325,443186023737.99896,8835771308063.77,235649175597844.25
2.884496320956988,6443818255810496.0,8758881232645935.0,900461342936234.2,1148033818983329.2,202885772094.88623,481974216396.982,9609090988894.334,256273863938474.94
3.0421862473761276,6612457086301846.0,9003591547376665.0,924026990167394.0,1178078595735786.8,219980602403.15955,522584767637.22144,10418743147460.73,277867566654139.06
3.2030299723236504,6779481854120845.0,9247206945594492.0,947367087735456.2,1207835810295355.5,237861046363.97577,565061650009.8491,11265604475693.176,300453666270757.44
3.3670905717701234,6945037028969745.0,9489943140901876.0,970501823885491.2,1237331201455037.2,256546370248.86954,609450635221.4342,12150587535992.84,324056502050135.8
3.5344323832055258,7109252535203451.0,9731997659097222.0,993449354290810.4,1266587916601636.8,276056587225.60876,655799269468.1271,13074640269496.812,348701356875124.7
3.7051210308696363,7272245639468233.0,9973552316833662.0,1016226065832247.4,1295626848018385.5,296412450456.6097,704156857049.7738,14038745669423.492,374414448537863.0
3.879223451487029,7434122531715396.0,1.0214775300011962e+16,1038846797529528.0,1324466914559117.5,317635449115.9291,754574450917.7903,15043921592658.229,401222924715202.75
4.0568079205167695,7594979658073904.0,1.0455822918388754e+16,1061325026797353.5,1353125299113502.5,339747806872.4855,807104849082.2162,16091220688155.883,429154861059895.25
4.237944078927105,7754904851345632.0,1.0696841096234326e+16,1083673027421183.5,1381617650016629.8,362772482475.34644,861802596012.855,17181730424912.45,458239261947482.9
4.422702960505647,7913978295252611.0,1.093796664626549e+16,1105902004301467.8,1409958252839783.5,386733172145.596,918723988332.604,18316573205511.695,488506063505659.2
4.61115701971576,8072273351196198.0,1.1179328364440266e+16,1128022208985262.8,1438160177686258.8,411654313533.246,977927084229.1798,19496906553808.176,519986138620985.7
4.803380160110075,8229857270599499.0,1.142104797575765e+16,1150043039209199.8,1466235406102643.5,437561091040.4243,1039471716113.0966,20723923367332.08,552711303671837.7
4.9994477633122765,8386791811473983.0,1.1663240955413964e+16,1171973125058708.5,1494194940926583.0,464479442346.1346,1103419506130.6526,21998852226616.65,586714326779599.6
5.199436718578522,8543133774373823.0,1.1906017245118858e+16,1193820403862455.5,1522048901772739.2,492436065995.36554,1169833884205.9438,23322957754948.6,622028937404684.4
5.403425452950093,8698935470151447.0,1.2149481880779872e+16,1215592185556670.0,1549806608368298.0,521458429937.44025,1238780108338.5125,24697541023091.73,658689837142085.2
5.611493962009095,8854245129736631.0,1.239373554489994e+16,1237295209947811.2,1577476653559434.5,551574780916.6271,1310325286926.253,26123939994389.26,696732711593827.6
5.823723841249277,9009107264404952.0,1.2638875054736934e+16,1258935697056597.0,1605066967496898.0,582814154632.7705,1384538402918.268,27603530006352.723,736194243214587.0
6.040198318074262,9163562983583674.0,1.2884993795422018e+16,1280519391528325.8,1632584874256481.0,615206386601.9062,1461490339631.2732,29137724285419.145,777112125041902.8
6.261002284435747,9317650276092692.0,1.3132182105730388e+16,1302051601933547.2,1660037141945062.0,648782123656.8973,1541253908087.1746,30727974492037.457,819525075235284.9
6.486222330124463,9471404259778852.0,1.3380527622970928e+16,1323537235652083.5,1687430027175510.5,683572836036.472,1623903875749.2664,32375771293641.83,863472852359055.5
6.715946776726952,9624857403730614.0,1.363011559245519e+16,1344980829925353.5,1714769314656658.0,719610830018.113,1709516996551.113,34082644963399.86,908996271352587.8
6.950265712261491,9778039726625526.0,1.3881029146175056e+16,1366386579573526.2,1742060352530880.2,756929261056.0065,1798172042126.1682,35850166002902.13,956137220139043.6
7.18927102650672,9930978974234308.0,1.41333495546314e+16,1387758361800017.8,1769308083998401.8,795562147390.3398,1889949834157.976,37679945787194.37,1004938676829914.2
7.433056447036854,1.0083700778668814e+16,1.43871564551832e+16,1409099758444819.0,1796517075688914.2,835544384098.2795,1984933277780.5027,39573637230750.18,1055444727488027.8
7.681717575977592,1.0236228801592092e+16,1.4642528059807566e+16,1430414075996738.5,1823691543176006.2,876911757560.5885,2083207395966.8997,41532935473150.25,1107700584416052.6
7.935351927497144,1.0388584863303048e+16,1.489954134475975e+16,1451704363631767.5,1850835373974924.2,919700960320.8582,2184859364851.8625,43559578583381.37,1161752604941465.8
8.194058966047088,1.0540789059346952e+16,1.5158272224283268e+16,1472973429508201.5,1877952148317967.2,963949606316.8907,2289978549939.1562,45655348281780.83,1217648310672094.0
8.45794014536803,1.069285986608439e+16,1.5418795710233678e+16,1494223855518939.0,1905045157962686.8,1009696246465.96,2398656543150.909,47822070678769.78,1275436407199283.2
8.72709894827539,1.0844814236464202e+16,1.5681186059236706e+16,1515458010674814.5,1932117423254857.2,1056980384587.6812,2510987200680.0356,50061617029598.83,1335166804227956.8
9.0016409272409,1.0996667687087676e+16,1.5945516908793356e+16,1536678063270952.5,1959171708639882.8,1105842493649.732,2627066681610.787,52375904504413.52,1396890636115146.8
9.281673745785717,1.1148434377514586e+16,1.6211861403568422e+16,1557885991969047.5,1986210536791971.8,1156324032323.2478,2746993487276.2573,54766896973011.99,1460660282800225.2
9.567307220701432,1.1300127182646018e+16,1.6480292312946618e+16,1579083595912154.2,2013236201509911.8,1208467461835.846,2870868501324.111,57236605803728.99,1526529391111642.2
9.85865336511546,1.1451757758917774e+16,1.6750882140808462e+16,1600272503974577.2,2040250779510132.0,1262316263111.3708,2998795030464.891,59787090675929.68,1594552896436500.5
10.155826432417769,1.16033366049528e+16,1.7023703228368818e+16,1621454183237449.2,2067256141232531.2,1317914954186.4517,3130878845879.238,62420460405643.055,1664787044740348.2
10.458942961066125,1.175487311724465e+16,1.7298827850818622e+16,1642629946769988.0,2094253960761140.8,1375309107894.7456,3267228225262.4873,65138873783908.58,1737289414925748.0
10.768121820287448,1.1906375641381202e+16,1.7576328308430608e+16,1663800960787478.2,2121245724950069.8,1434545369810.561,3407953995487.002,67944540427438.91,1812118941519103.5
11.083484256693197,1.2057851519258904e+16,1.7856277012712946e+16,1684968251249041.8,2148232741835305.2,1495671476444.223,3553169575864.0547,70839721641241.38,1889335937676119.8
11.405153941827061,1.2209307132690698e+16,1.8138746568131452e+16,1706132709951384.2,2175216148403869.8,1558736273682.1306,3702991021988.653,73826731292865.03,1969002118497016.5
11.733257020663602,1.2360747943766232e+16,1.8423809849866452e+16,1727295100168800.2,2202196917784444.5,1623789735465.0652,3857537070152.102,76907936697969.34,2051180624643368.8
12.067922161076874,1.2512178532286222e+16,1.8711540078018136e+16,1748456061884204.2,2229175865916682.5,1690882982698.8135,4016929182308.181,80085759516936.1,2135936046249053.0
12.409280604298411,1.2663602630558686e+16,1.9002010888635516e+16,1769616116651599.2,2256153657750509.5,1760068302391.665,4181291591580.1143,83362676662264.05,2223334447118478.0
12.75746621638438,1.2815023155816164e+16,1.929529640190143e+16,1790775672126062.2,2283130813021610.5,1831399167013.7122,4350751348296.526,86741221216515.78,2313443389205738.5
13.112615540712067,1.2966442240487316e+16,1.9591471287776092e+16,1811935026293926.8,2310107711644633.0,1904930254073.5427,4525438366545.586,90223983360601.3,2406331957369001.5
13.474867851526309,1.31178612605329e+16,1.9890610829371056e+16,1833094371432428.5,2337084598761532.0,1980717465908.0198,4705485471237.712,93813611312200.6,2502070784394867.0
13.844365208556836,1.3269280862036424e+16,2.0192790984298476e+16,1854253797825518.0,2364061589478954.5,2058817949681.554,4891028445667.8955,97512812274156.42,2600732076288045.5
14.221252512727972,1.3420700986221574e+16,2.0498088444218764e+16,1875413297259790.5,2391038673325391.5,2139290117591.4287,5082206079569.955,101324353392675.56,2702389637822127.0
14.605677562982532,1.3572120893052172e+16,2.0806580692788084e+16,1896572766322359.0,2418015718455736.5,2222193667276.2954,5279160217655.763,105251062725203.3,2807118898347684.0
14.997791114242183,1.3723539183556882e+16,2.1118346062189664e+16,1917732009520518.8,2444992475628693.5,2307589602425.346,5482035808633.471,109295830217856.25,2914996937854680.5
15.397746936527026,1.3874953821007404e+16,2.1433463788415344e+16,1938890742241185.5,2471968581979829.5,2395540253585.9297,5690980954699.889,113461608692308.64,3026102513286335.5
15.805701875257567,1.402636215106741e+16,2.1752014065450396e+16,1960048593566526.0,2498943564611404.0,2486109299167.887,5906146961502.913,117751414842057.06,3140516085102344.5
16.221815912762718,1.4177760921019856e+16,2.2074078098501504e+16,1981205108960771.0,2525916844017843.0,2579361786643.464,6127688388571.035,122168330237999.72,3258319844089801.0
16.64625223101797,1.4329146298169988e+16,2.2399738156394452e+16,2002359752841890.5,2552887737364478.5,2675364153941.6196,6355763100207.763,126715502343296.47,3379597738420684.5
17.079177275638333,1.4480513887514156e+16,2.2729077623260892e+16,2023511911050597.8,2579855461635385.5,2774184251036.5513,6590532316850.274,131396145537479.83,3504435500955405.0
17.5207608211511,1.4631858748755508e+16,2.3062181049619444e+16,2044660893228153.8,2606819136664975.0,2875891361730.25,6832160666892.231,136213542149832.95,3632920676792356.5
17.97117603757412,1.4783175412742324e+16,2.339913420295313e+16,2065805935113471.5,2633777788066571.5,2980556225629.666,7080816238971.998,141171043502046.94,3765142651064110.5
18.430599558325603,1.4934457897397118e+16,2.3740024117873296e+16,2086946200769032.2,2660730350070413.5,3088251060319.353,7336670634728.662,146272070960214.34,3901192676981488.0
18.899211549492115,1.5085699723199624e+16,2.408493914595549e+16,2108080784744507.2,2687675668282090.5,3199049583731.132,7599899022029.553,151520116996225.3,4041163904127282.0
19.37719578048196,1.5236893928281806e+16,2.443396900532609e+16,2129208714186110.5,2714612502371868.0,3313027036712.6255,7870680188673.867,156918746258663.2,4185151407002237.5
19.864739696091597,1.5388033083187002e+16,2.478720483007237e+16,2150328950899073.8,2741539528704189.5,3430260205797.307,8149196596578.742,162471596653322.8,4333252213826405.0
20.36203449001343,1.5539109305342522e+16,2.5144739219544548e+16,2171440393370041.0,2768455342916124.0,3550827446179.0625,8435634436454.969,168182380433501.2,4485565335599747.5
20.869275179813698,1.5690114273289774e+16,2.550666628761278e+16,2192541878755578.2,2795358462452607.0,3674808704894.8926,8730183682981.548,174054885300233.9,4642191795426723.0
21.38666068340997,1.5841039240712446e+16,2.5873081711938228e+16,2213632184842510.5,2822247329065717.0,3802285544220.1064,9033038150488.879,180092975512684.84,4803234658110163.0
21.91439389707817,1.5991875050300426e+16,2.624408278331422e+16,2234710031985247.8,2849120311284677.5,3933341165280.752,9344395549162.709,186300593008918.16,4968799060020506.0
22.452681775019734,1.614261214748297e+16,2.661976845512901e+16,2255774085024825.5,2875975706862530.0,4068060431888.91,9664457541781.98,192681758537328.06,5138992239247745.0
23.00173541052013,1.6293240594061804e+16,2.7000239392998844e+16,2276822955194102.5,2902811745205102.0,4206529894607.0044,9993429801005.412,199240572799008.9,5313923566043319.0
23.561770118730532,1.6443750081773338e+16,2.738559802461818e+16,2297855202012827.5,2929626589787133.0,4348837815047.8975,10331522067223.2,205981217601406.94,5493704573561252.0
24.133005521105144,1.6594129945803896e+16,2.777594858986919e+16,2318869335176351.5,2956418340560264.0,4495074190418.431,10678948206992.33,212907957023604.53,5678448988907666.0
24.715665631527248,1.6744369178281828e+16,2.8171397191232904e+16,2339863816440970.5,2983185036356765.0,4645330778314.686,11035926272074.88,220025138593647.4,5868272764509320.0
25.309978944157795,1.6894456441767128e+16,2.8572051844540692e+16,2360837061508991.0,3009924657292780.5,4799701121777.881,11402678559101.414,227337194478324.47,6063294109812556.0
25.91617852304095,1.7044380082755894e+16,2.8978022530101564e+16,2381787441915855.5,3036635127174414.5,4958280574620.881,11779431669882.453,234848642685896.1,6263633523325027.0
26.53450209350177,1.7194128145216954e+16,2.938942124424318e+16,2402713286921723.5,3063314315909345.5,5121166327035.527,12166416572393.777,242564088282246.0,6469413825013512.0
27.165192135371807,1.7343688384174222e+16,2.9806362051297624e+16,2423612885409509.0,3089960041926669.0,5288457431492.48,12563868662462.186,250488224621019.4,6680760189072242.0
27.808495978079243,1.7493048279346894e+16,3.022896113606511e+16,2444484487790935.0,3116570074607045.0,5460254828945.471,12972027826181.096,258625834588316.62,6897800177076790.0
28.464665897640828,1.7642195048858376e+16,3.065733685678724e+16,2465326307922254.0,3143142136725123.0,5636661375352.852,13391138503086.896,266981791862558.84,7120663771540458.0
29.133959215593645,1.779111566302223e+16,3.1091609798657068e+16,2486136525030682.0,3169673906905591.0,5817781868530.498,13821449750128.873,275561062190190.28,7349483409889700.0
29.816638399905518,1.7939796858212254e+16,3.1531902827896896e+16,2506913285652610.0,3196163022094346.0,6003723075350.245,14263215306467.65,284368704677904.7,7584394018877956.0
30.51297116790363,1.8088225150822308e+16,3.197834114642941e+16,2527654705584346.5,3222607080045502.5,6194593759299.549,14716693659139.27,293409873102137.75,7825533049456673.0
31.223230591261704,1.8236386851319056e+16,3.2431052347169204e+16,2548358871845902.0,3249003641825148.5,6390504708418.542,15182148109623.174,302689817236599.44,8073040512124495.0
31.947695203086937,1.8384268078391204e+16,3.2890166469960976e+16,2569023844658124.5,3275350234332016.0,6591568763631.529,15659846841356.041,312213884198659.0,8327059012775957.0
32.686649107148675,1.8531854773194788e+16,3.3355816058187524e+16,2589647659433388.5,3301644352835602.5,6797900847490.972,16150062988233.229,321987519815446.1,8587733789072635.0
33.44038208929165,1.867913271369498e+16,3.3828136216074252e+16,2610228328779764.5,3327883463531201.5,7009617993352.536,16653074704143.764,332016270010554.1,8855212747360295.0
34.20918973107749,1.8826087529102864e+16,3.430726466671093e+16,2630763844518326.0,3354065006112013.5,7226839375001.099,17169165233584.848,342305782212293.94,9129646500156862.0
34.993373525699035,1.897270471440349e+16,3.479334181081609e+16,2651252179713380.5,3380186396357443.0,7449686336747.843,17698622983405.777,352861806784458.7,9411188404237182.0
35.793240996213015,1.9118969644971556e+16,3.5286510786265252e+16,2671691290714839.5,3406245028737066.5,7678282424019.951,18241741595731.387,363690198480624.3,9699994599341388.0
36.60910581613728,1.926486759126956e+16,3.578691752840528e+16,2692079119212137.0,3432238279029228.0,7912753414464.771,18798820022117.965,374796917923041.06,9996224047534752.0
37.44128793246003,1.9410383733621256e+16,3.6294710831176536e+16,2712413594298702.5,3458163506953115.0,8153227349591.43,19370162598996.812,386188033107192.1,1.030003857324769e+16
38.29011369110923,1.955550317705412e+16,3.681004240906454e+16,2732692634546032.0,3484018058813078.5,8399834566973.493,19956079124460.926,397869720933165.8,1.0611602904026668e+16
39.15591596493141,1.970021096620141e+16,3.733306695990105e+16,2752914150086098.5,3509799270153616.0,8652707733036.97,20556884936454.688,409848268764988.7,1.0931084712025452e+16
40.03903428423004,1.9844492100254696e+16,3.786394222853666e+16,2773076044700850.0,3535504468423278.5,8911981876458.977,21172900992424.992,422130076019129.75,1.1258654656269902e+16
40.93981496991464,1.99883315479569e+16,3.84028290714043e+16,2793176217917342.5,3561130975645906.0,9177794422202.725,21804453950497.43,434721655783405.56,1.1594486425728038e+16
41.85861126931294,2.0131714262624748e+16,3.894989152199386e+16,2813212567106938.5,3586676111096939.0,9450285226215.322,22451876252238.836,447629636467551.56,1.1938756783219188e+16
42.7957834946992,2.0274625197187788e+16,3.950529685725869e+16,2833182989586903.5,3612137193982862.0,9729596610815.74,23115506207073.6,460860763486746.7,1.2291645610196598e+16
43.751699164593184,2.0417049319232484e+16,4.006921566497394e+16,2853085384722690.5,3637511546121465.0,10015873400800.531,23795688078418.457,474421900979442.44,1.2653335952438796e+16
