t(s),Total solute volume 1,Total retention volume 1,Total 1 volume 1,Total 2 volume 1,Total 3 volume 1,Total 4 volume 1,Total 5 volume 1,Total 6 volume 1
0.1,1388605447609674.5,1.2965503955258198e+16,3123970752525701.5,8452927755122823.0,0.0,0.0,0.0,-0.03849354864423057
0.202,1970112885859645.0,1.8449561133189676e+16,4432205946107688.0,1.1992943495904096e+16,59864056802.41665,439965272010.7002,10693644052078.893,43105331937360.69
0.30604000000000003,2433196826844704.0,2.2869506384512416e+16,5474017078470293.0,1.4811964932856952e+16,149362198716.00555,1100292595451.4397,28805520585154.93,120272370961153.86
0.41216080000000005,2827335562044080.5,2.6680827152144104e+16,6360720242330005.0,1.7211276237945358e+16,262954864796.99918,1938865813409.0112,52783467804722.39,226509821341730.88
0.5204040160000001,3176031969100812.0,3.0099452801947744e+16,7145190627700086.0,1.9333955793032484e+16,397817346406.7787,2934687986019.5317,81829996578905.9,359111910203031.2
0.6308120963200001,3492186481457820.0,3.324370235281104e+16,7856450703268761.0,2.125853616296273e+16,552298207732.297,4075505424480.52,115474696207728.39,516426505281813.1
0.7434283382464002,3783633421707088.0,3.618529399193214e+16,8512125550366355.0,2.3032709143919556e+16,725347940066.2825,5353533160160.987,153411068216557.6,697335926622343.5
0.8582969050113283,4055513720350239.5,3.897119643881575e+16,9123780850328800.0,2.468777026450942e+16,916269137549.8917,6763596697827.208,195426926209294.1,901024811582608.0
0.9754628431115548,4311405803937409.5,4.163403897940706e+16,9699467077871122.0,2.624550322885939e+16,1124591058925.4512,8302200902147.302,241370191842599.94,1126865884935464.5
1.094972099973786,4553916598370110.0,4.419754785298489e+16,1.0245049097832742e+16,2.772177770212521e+16,1349999583169.844,9967010645047.617,291130169718694.9,1374357274709890.0
1.2168715419732616,4785014798514004.0,4.667960985690925e+16,1.0764955930749552e+16,2.9128578108504412e+16,1592294849777.394,11756536950519.838,344626425376824.1,1643085761964148.8
1.3412089728127268,5006230761699551.0,4.90941095505467e+16,1.1262630458441382e+16,3.0475220490329224e+16,1851364017510.6855,13669935259400.35,401801768549991.8,1932704772249637.0
1.4680331522689813,5218782636002155.0,5.1452088557426824e+16,1.1740813177995062e+16,3.1769120316825476e+16,2127162883597.5742,15706869361955.822,462617610639561.75,2242920783719010.0
1.597393815314361,5423659307513391.0,5.3762508521707544e+16,1.220172881030133e+16,3.3016297426599732e+16,2419702972070.0195,17867415840078.316,527050753542515.5,2573485104938437.0
1.729341691620648,5621676856828782.0,5.603277117617403e+16,1.2647213311597426e+16,3.4221719706681596e+16,2729042138946.2646,20151994544136.24,595091075081785.6,2924189189301353.0
1.863928525453061,5813518133601053.0,5.826908354986744e+16,1.3078802905296608e+16,3.5389544002457756e+16,3055277524238.7803,22561316434664.492,666739790203987.2,3294862124349115.0
2.001207095962122,5999761202209282.0,6.047672105204614e+16,1.3497798076890522e+16,3.65232892803951e+16,3398540112769.2954,25096343321364.91,742008084296840.5,3685369524820245.5
2.1412312378813647,6180900241547498.0,6.266022122152521e+16,1.3905310592699194e+16,3.762596385518189e+16,3758990425551.59,27758255958105.46,820915992321320.0,4095613293391661.5
2.284055862638992,6357361214667955.0,6.4823529196562616e+16,1.4302298752235886e+16,3.870016077837245e+16,4136815031356.132,30548428197938.508,903491446065007.8,4525531761992030.0
2.4297369798917723,6529513835767924.0,6.6970108813115976e+16,1.4689594310617432e+16,3.974813068714557e+16,4532223669037.043,33468405659991.9,989769438776096.2,4975099911479925.0
2.578331719489608,6697680864378794.0,6.910302874870539e+16,1.5067923387917818e+16,4.077183838244833e+16,4945446835346.898,36519887835005.54,1079791276586199.9,5444329502703930.0
2.7298983538794,6862145444099986.0,7.122503022989369e+16,1.5437922979288786e+16,4.177300750335124e+16,5376733741788.962,39704712918666.625,1173603902565503.8,5933268953927724.0
2.884496320956988,7023156991423982.0,7.333858090424925e+16,1.580015420318697e+16,4.275315637512916e+16,5826350575475.216,43024844894592.53,1271259286913947.5,6442002852125102.0
3.0421862473761276,7180935988648645.0,7.544591818231634e+16,1.6155113084101178e+16,4.3713627186013624e+16,6294579013839.313,46482362497952.914,1372813878878673.0,6970651103162398.0
3.2030299723236504,7335677934781243.0,7.754908446260674e+16,1.6503239440994572e+16,4.465561003825475e+16,6781714954599.5625,50079449775727.23,1478328119419896.8,7519367764425991.0
3.3670905717701234,7487556643979037.0,7.964995602671942e+16,1.6844924307885296e+16,4.558016302734278e+16,7288067434892.9795,53818388052523.45,1587866016875229.0,8088339575149672.0
3.5344323832055258,7636727030657852.0,8.175026694571405e+16,1.7180516199572642e+16,4.648822919634619e+16,7813957718829.787,57701549149717.63,1701494785869034.5,8677784226399739.0
3.7051210308696363,7783327478840805.0,8.38516290164115e+16,1.7510326442018932e+16,4.738065095933059e+16,8359718530102.613,61731389684901.88,1819284545032714.2,9287948482973462.0
3.879223451487029,7927481867762889.0,8.595554850999022e+16,1.7834633729402244e+16,4.8258182432245944e+16,8925693406461.352,65910446279329.93,1941308068224035.0,9919106272669352.0
4.0568079205167695,8069301313881137.0,8.806344033992971e+16,1.815368804316034e+16,4.912150003744162e+16,9512236159927.95,70241331553855.43,2067640586315967.8,1.0571556791416878e+16
4.237944078927105,8208885678587676.0,9.01766401247981e+16,1.8467714043930796e+16,4.997121168190232e+16,10119710431314.688,74726730828678.5,2198359635897830.2,1.1245622643219476e+16
4.422702960505647,8346324876034033.0,9.229641452161971e+16,1.8776914013796612e+16,5.080786471866308e+16,10748489323549.793,79369399411082.17,2333544946295653.5,1.1941648078095682e+16
4.61115701971576,8481700004586426.0,9.442397012915424e+16,1.9081470401750084e+16,5.163195283457504e+16,11398955093641.094,84172160319866.16,2473278353903374.0,1.2659997418925788e+16
4.803380160110075,8615084324902535.0,9.65604612013738e+16,1.9381548024097076e+16,5.244392200437463e+16,12071498888386.328,89137902335009.34,2617643737228033.5,1.3401053709548052e+16
4.9994477633122765,8746544110968517.0,9.870699636540232e+16,1.967729597905669e+16,5.324417567139463e+16,12766520520266.934,94269578346456.52,2766726971921179.5,1.416521753319458e+16
5.199436718578522,8876139396927242.0,1.0086464450203387e+17,1.99688493269198e+16,5.403307929390278e+16,13484428283351.756,99570204001172.38,2920615904371851.0,1.4952905947627646e+16
5.403425452950093,9003924632054780.0,1.0303443991831934e+17,2.025633056356647e+16,5.481096433228906e+16,14225638800377.336,105042856581983.25,3079400336095491.5,1.5764551558931184e+16
5.611493962009095,9129949249388720.0,1.0521738691890114e+17,2.053985089972324e+16,5.557813171060224e+16,14990576884408.82,110690673993207.27,3243172008720693.5,1.66006017995886e+16
5.823723841249277,9254258157197134.0,1.0741446386446632e+17,2.0819511366633284e+16,5.6334854808373416e+16,15779675405187.982,116516853778911.58,3412024586492333.0,1.7461518416586068e+16
6.040198318074262,9376892170451140.0,1.0962662679091822e+17,2.1095403786750664e+16,5.708138208720813e+16,16593375166809.643,122524652224478.62,3586053643146375.0,1.834777707597065e+16
6.261002284435747,9497888399701600.0,1.1185481265086872e+17,2.1367611648606136e+16,5.781793945807788e+16,17432124810691.781,128717383647100.44,3765356660855692.5,1.9259866975169708e+16
6.486222330124463,9617280604224616.0,1.1409994222925037e+17,2.163621090128713e+16,5.854473243109796e+16,18296380745433.934,135098419887045.69,3950033038355772.5,2.01982904536524e+16
6.715946776726952,9735099505074258.0,1.1636292277679362e+17,2.190127065872033e+16,5.926194802123829e+16,19186607085669.945,141671189864430.88,4140184094932382.5,2.116356269987821e+16
6.950265712261491,9851373053697166.0,1.1864465039847616e+17,2.2162853803980324e+16,5.9969756383510856e+16,20103275578703.76,148439179041614.0,4335913060002890.5,2.2156211642664652e+16
7.18927102650672,9966126663156942.0,1.209460122285535e+17,2.242101750948033e+16,6.066831222054066e+16,21046865518176.29,155405928786179.22,4537325053931598.0,2.3176777987139664e+16
7.433056447036854,1.007938341934365e+16,1.2326788841920523e+17,2.2675813712135204e+16,6.135775606829745e+16,22017863669292.812,162575035820190.2,4744527078693739.0,2.4225815241245696e+16
7.681717575977592,1.0191164286654536e+16,1.2561115396600168e+17,2.2927289576086324e+16,6.203821554817696e+16,23016764232713.54,169950151960170.28,4957628031820314.0,2.5303889607070652e+16
7.935351927497144,1.0301488307527448e+16,1.2797668039016138e+17,2.317548794159689e+16,6.270980658166349e+16,24044068847133.805,177534984147295.2,5176738735895152.0,2.641157977048406e+16
8.194058966047088,1.0410372781643662e+16,1.303653372948476e+17,2.342044772820885e+16,6.3372634481227624e+16,25100286597492.832,185333294517603.47,5401971958346271.0,2.7549476764306108e+16
8.45794014536803,1.0517833411905654e+16,1.3277799381045424e+17,2.366220426315255e+16,6.402679483895889e+16,26185933990038.42,193348900219693.38,5633442401303520.0,2.8718184060923864e+16
8.72709894827539,1.0623884420285308e+16,1.3521551994189883e+17,2.3900789541972476e+16,6.467237423177843e+16,27301534887698.527,201585672931419.16,5871266667882344.0,2.9918317872161144e+16
9.0016409272409,1.072853865327306e+16,1.3767878782928715e+17,2.4136232465758372e+16,6.530945086334897e+16,28447620444133.54,210047538366233.25,6115563237007658.0,3.115050745108872e+16
9.281673745785717,1.0831807698428704e+16,1.4016867293189018e+17,2.4368559103352324e+16,6.593809527357448e+16,29624729091671.117,218738476185947.03,6366452478992199.0,3.2415395172264804e+16
9.567307220701432,1.0933702017401862e+16,1.4268605514413104e+17,2.459779299060838e+16,6.655837114836858e+16,30833406607092.984,227662520499735.12,6624056714220233.0,3.371363634642518e+16
9.85865336511546,1.1034231079266972e+16,1.452318198512079e+17,2.482395543035973e+16,6.717033613133776e+16,32074206221017.957,236823760689249.62,6888500279825556.0,3.5045898963507684e+16
10.155826432417769,1.113340346889605e+16,1.478068589310673e+17,2.5047065736227732e+16,6.777404248350123e+16,33347688698803.69,246226342014994.47,7159909556152078.0,3.641286365557654e+16
10.458942961066125,1.1231226956714266e+16,1.5041207170868525e+17,2.5267141389551932e+16,6.83695375079145e+16,34654422338736.008,255874465595357.0,7438412930884859.0,3.781522403568565e+16
10.768121820287448,1.13277085404303e+16,1.5304836586795994e+17,2.5484198133271252e+16,6.895686380368363e+16,35994982899278.414,265772387849037.6,7724140727633626.0,3.925368729219278e+16
11.083484256693197,1.142285448779819e+16,1.5571665832594154e+17,2.56982500681257e+16,6.953605952626277e+16,37369953533755.016,275924419994074.84,8017225160528435.0,4.072897470969855e+16
11.405153941827061,1.151667040757812e+16,1.584178760735748e+17,2.5909309812298324e+16,7.010715881942563e+16,38779924825376.0,286334928304761.8,8317800367556283.0,4.2241821813586264e+16
11.733257020663602,1.160916135395428e+16,1.6115295698663603e+17,2.6117388736327412e+16,7.0670192450921944e+16,40225494960880.9,297008335413418.3,8626002524521526.0,4.379297809053656e+16
12.067922161076874,1.1700331942795986e+16,1.6392285061011018e+17,2.6322497224662296e+16,7.122518852023197e+16,41707269990991.15,307949122263196.1,8941969982352218.0,4.538320654781337e+16
12.409280604298411,1.1790186445232588e+16,1.6672851891891773e+17,2.6524644886181624e+16,7.177217302821098e+16,43225864062876.055,319161829843638.44,9265843345790744.0,4.701328351959523e+16
12.75746621638438,1.187872883448833e+16,1.6957093705765e+17,2.6723840659558372e+16,7.231117016218568e+16,44781899521578.26,330651059931695.2,9597765442574926.0,4.868399899938945e+16
13.112615540712067,1.1965962789335166e+16,1.7245109406175712e+17,2.692009282102665e+16,7.284220231694925e+16,46376006862238.03,342421474703846.25,9937881202507944.0,5.039615745037209e+16
13.474867851526309,1.2051891684097534e+16,1.753699935624207e+17,2.711340896189423e+16,7.336529003388925e+16,48008824621231.12,354477795887708.94,1.0286337530633212e+16,5.215057873139752e+16
13.844365208556836,1.2136518603661876e+16,1.7832865447708342e+17,2.73037960223092e+16,7.388045209234595e+16,49680999353064.74,366824804563188.94,1.064328327426912e+16,5.3948098680581e+16
14.221252512727972,1.2219846406767564e+16,1.8132811168733373e+17,2.7491260433647456e+16,7.438770589490302e+16,51393185809685.484,379467342492424.6,1.100886933602466e+16,5.578956908768906e+16
14.605677562982532,1.2301877831136922e+16,1.843694167055964e+17,2.767580835502726e+16,7.488706810738939e+16,53146047333200.33,392410315057837.06,1.1383248900070744e+16,5.767585714958115e+16
14.997791114242183,1.2382615607591474e+16,1.8745363833192064e+17,2.785744593004027e+16,7.537855535358629e+16,54940256352819.92,405658694979871.5,1.1766577667339734e+16,5.960784482203027e+16
15.397746936527026,1.2462062542712922e+16,1.9058186330210342e+17,2.803617947271649e+16,7.586218471843592e+16,56776494813799.555,419217525512156.3,1.2159013981232716e+16,6.1586428566679464e+16
15.805701875257567,1.2540221545028962e+16,1.9375519692838902e+17,2.8212015526434676e+16,7.633797390743726e+16,58655454399893.03,433091922069866.44,1.256071878009708e+16,6.361251979292133e+16
16.221815912762718,1.2617095599151552e+16,1.9697476373397664e+17,2.8384960805739212e+16,7.680594108918325e+16,60577836525691.73,447287072117003.0,1.2971855407570846e+16,6.568704592368912e+16
16.64625223101797,1.2692687719350984e+16,2.00241708082478e+17,2.855502209189342e+16,7.726610461271147e+16,62544352209438.71,461808234152289.5,1.3392589394774052e+16,6.781095167738635e+16
17.079177275638333,1.2767000924275176e+16,2.0355719480327325e+17,2.8722206176003916e+16,7.771848285358674e+16,64555722017521.08,476660737240112.1,1.3823088353078218e+16,6.9985200037071544e+16
17.5207608211511,1.2840038263050056e+16,2.0692240981347018e+17,2.8886519917739444e+16,7.816309437278978e+16,66612676254598.336,491849982399180.56,1.4263522067887822e+16,7.221077253334925e+16
17.97117603757412,1.2911802896442074e+16,2.103385607369715e+17,2.904797042792516e+16,7.8599958410817e+16,68715955465741.35,507381446345927.25,1.4714062786492006e+16,7.448866881348362e+16
18.430599558325603,1.298229820901204e+16,2.1380687752107872e+17,2.9206565320859104e+16,7.90290955704492e+16,70866311173144.34,523260687002365.8,1.5174885596091906e+16,7.681990582649086e+16
18.899211549492115,1.3051527912872548e+16,2.1732861305113536e+17,2.9362312947739064e+16,7.945052844840296e+16,73064506661570.11,539493349360819.1,1.5646168740448802e+16,7.920551714564949e+16
19.37719578048196,1.311949610746929e+16,2.209050437638837e+17,2.951522253115437e+16,7.986428199925704e+16,75311317606383.02,556085170147933.8,1.612809374880854e+16,8.164655288944008e+16
19.864739696091597,1.3186207279880626e+16,2.245374702603617e+17,2.9665304165759188e+16,8.027038353726181e+16,77607532414639.06,573041980312769.2,1.6620845336437442e+16,8.414408042829526e+16
20.36203449001343,1.3251666256305524e+16,2.2822721791920253e+17,2.9812568709132548e+16,8.066886244099186e+16,79953952286177.52,590369705396889.0,1.7124611141433408e+16,8.669918571365618e+16
20.869275179813698,1.3315878135601896e+16,2.319756375110498e+17,2.9957027632256524e+16,8.105974974872728e+16,82351391134822.14,608074364850171.1,1.7639581438824814e+16,8.931297479965437e+16
21.38666068340997,1.3378848241559406e+16,2.357841058145297e+17,3.009869291214221e+16,8.144307786789227e+16,84800675580674.53,626162071888945.6,1.816594898667854e+16,9.198657505878771e+16
21.91439389707817,1.344058212063887e+16,2.396540262339084e+17,3.023757702674399e+16,8.181888056129274e+16,87302645204208.66,644639035336306.6,1.8703909105569188e+16,9.472113573912318e+16
22.452681775019734,1.3501085591600724e+16,2.4358682941837962e+17,3.037369306661083e+16,8.218719324924872e+16,89858153153299.1,663511564128908.9,1.9253659997251816e+16,9.751782779638528e+16
23.00173541052013,1.3560364831957606e+16,2.4758397388293853e+17,3.050705492938185e+16,8.25480535359073e+16,92468067059986.61,682786074158199.4,1.981540321232891e+16,1.0037784323214466e+17
23.561770118730532,1.3618426472219964e+16,2.5164694663102432e+17,3.063767753181465e+16,8.290150178299534e+16,95133270110799.88,702469096261176.2,2.0389344119561052e+16,1.0330239435806139e+17
24.133005521105144,1.3675277667204406e+16,2.5577726377945414e+17,3.0765576970210164e+16,8.324758154393149e+16,97854662066414.88,722567283815488.1,2.097569223231418e+16,1.0629271341991195e+17
24.715665631527248,1.373092612365514e+16,2.5997647118647334e+17,3.0890770582553616e+16,8.35863397319762e+16,100633160058095.98,743087418636312.8,2.157466130614159e+16,1.0935005286345246e+17
25.309978944157795,1.3785380080124594e+16,2.6424614508388506e+17,3.10132769032507e+16,8.39178264977402e+16,103469699082583.08,764036414587284.6,2.2186469209977836e+16,1.1247568627912181e+17
25.91617852304095,1.3838648251633056e+16,2.6858789271409386e+17,3.1133115538626176e+16,8.424209489227589e+16,106365232234734.88,785421319208021.9,2.2811337656857784e+16,1.156709098232582e+17
26.53450209350177,1.389073976218165e+16,2.7300335297257898e+17,3.1250307015095344e+16,8.455920045622291e+16,109320730814154.67,807249314392510.5,2.3449491928329396e+16,1.1893704376554294e+17
27.165192135371807,1.3941664089760346e+16,2.7749419705588224e+17,3.1364872655446676e+16,8.48692008850271e+16,112337184485661.58,829527717480254.4,2.4101160725136724e+16,1.2227543379854542e+17
27.808495978079243,1.3991431041643082e+16,2.8206212911485792e+17,3.1476834523262332e+16,8.517215587854533e+16,115415601653217.42,852263983966119.1,2.4766576229725436e+16,1.2568745185606245e+17
28.464665897640828,1.4040050765852206e+16,2.8670888691280435e+17,3.1586215448710576e+16,8.546812721084768e+16,118557010135159.31,875465712489933.8,2.5445974393469104e+16,1.291744963712998e+17
29.133959215593645,1.4087533792268738e+16,2.9143624248825197e+17,3.1693039121033576e+16,8.575717898049998e+16,121762458133755.61,899140652048730.5,2.6139595389769108e+16,1.3273799209449822e+17
29.816638399905518,1.413389108800918e+16,2.9624600282257075e+17,3.1797330213130996e+16,8.60393779476977e+16,125033015407049.27,923296710731661.2,2.684768412676983e+16,1.363793897208244e+17
30.51297116790363,1.4179134108665294e+16,3.0114001051305146e+17,3.189911449683661e+16,8.63147938462139e+16,128369774501507.97,947941964905264.8,2.7570490703193052e+16,1.401001656187357e+17
31.223230591261704,1.422327482989203e+16,3.0612014445253523e+17,3.1998418913982924e+16,8.658349957570613e+16,131773851901553.67,973084667760322.4,2.8308270717129996e+16,1.4390182189616211e+17
31.947695203086937,1.426632575087425e+16,3.1118832051687226e+17,3.2095271584200744e+16,8.684557122282514e+16,135246388991952.06,998733256435493.5,2.906128538853973e+16,1.477858869250048e+17
32.686649107148675,1.430829986969694e+16,3.163464922614073e+17,3.2189701749508444e+16,8.710108791127427e+16,138788552794542.7,1024896357429636.9,2.9829801513694412e+16,1.5175391630700915e+17
33.44038208929165,1.4349210637920838e+16,3.215966516273495e+17,3.2281739672119292e+16,8.735013152527552e+16,142401536509881.94,1051582790537850.4,3.0614091316322396e+16,1.5580749414866397e+17
34.20918973107749,1.4389071905888766e+16,3.269408296584024e+17,3.237141651139502e+16,8.759278637660698e+16,146086559947213.62,1078801571945450.8,3.141443228378403e+16,1.5994823444883494e+17
34.993373525699035,1.4427897870808894e+16,3.323810972275581e+17,3.2458764207047056e+16,8.78291388885479e+16,149844869950406.28,1106561917296189.0,3.2231107073551068e+16,1.6417778240035654e+17
35.793240996213015,1.4465703036971878e+16,3.379195657736747e+17,3.2543815389635804e+16,8.805927735369584e+16,153677740920459.12,1134873245496320.2,3.30644035497979e+16,1.6849781545715654e+17
36.60910581613728,1.450250219282177e+16,3.435583880474118e+17,3.262660332898667e+16,8.828329179438816e+16,157586475503075.1,1163745183771825.2,3.391461497179723e+16,1.7291004410014298e+17
