t(s),Total solute volume 1,Total retention volume 1,Total 1 volume 1,Total 2 volume 1,Total 3 volume 1,Total 4 volume 1,Total 5 volume 1,Total 6 volume 1
0.1,1383945849202658.0,3981468685541325.0,887646190648165.1,1709876645690502.0,0.0,0.0,0.0,-3.740371093031155e-123
0.202,2067598080762445.8,5961728676973587.0,1326132623504131.5,2554536247958087.0,2105706234.580122,9431348326.617443,461136886372.12994,12989050807987.074
0.30604000000000003,2589310742017784.5,7484391311888300.0,1660752886415108.0,3199117183147878.5,5326794798.671298,23859753511.612915,1170960951270.2234,34010352807948.723
0.41216080000000005,3029089278592322.0,8777759302061412.0,1942821576072509.2,3742467666561761.0,9441010785.97074,42289074383.05116,2078594785752.747,61250455963897.78
0.5204040160000001,3417950229864120.5,9930254360701828.0,2192232334374895.5,4222908979488904.5,14346901252.716572,64264781468.71135,3161365722094.602,93922839569087.02
0.6308120963200001,3771474464728032.5,1.098627296708638e+16,2418978545276027.0,4659691444408227.0,19988250521.532017,89535032855.50357,4406771961750.506,131612217428964.7
0.7434283382464002,4098748203451321.0,1.197170371009036e+16,2628888002058182.5,5064041175489120.0,26331244410.512577,117948347296.82368,5807306809496.175,174074742690539.78
0.8582969050113283,4405601482775651.0,1.2903165701313768e+16,2825700020637893.5,5443161239066607.0,33355043777.45561,149411370487.0606,7358347944348.349,221161844474999.66
0.9754628431115548,4696031646284172.0,1.3792067173983888e+16,3011978449395986.0,5801990391029363.0,41047123807.21083,183867994736.67776,9057118519111.615,272784653636707.25
1.094972099973786,4972916412939302.0,1.4646637184535518e+16,3189569022850846.5,6144084080226153.0,49400683533.648544,221287753807.30524,10902111041060.322,328894869040817.9
1.2168715419732616,5238406312638824.0,1.5473042931050662e+16,3359851065145182.0,6472099306473320.0,58413082481.83324,261658819306.7745,12892740154200.701,389473434737353.25
1.3412089728127268,5494156575912515.0,1.6276049476327052e+16,3523886221329426.0,6788081122528212.0,68084837706.63673,304983507631.1945,15029120084143.432,454523368127416.25
1.4680331522689813,5741472006374252.0,1.7059431597877776e+16,3682511376821900.0,7093641625395239.0,78418949287.54926,351275258349.6765,17311915062979.549,524064980015770.44
1.597393815314361,5981401643102572.0,1.7826242700373652e+16,3836399372728264.0,7390076912598617.0,89420429436.24767,400556524738.2186,19742234957589.26,598132560032440.9
1.729341691620648,6214802942943258.0,1.857899701222965e+16,3986100171602905.0,7678446380024652.0,101095963652.86362,452857255863.4158,22321560195820.38,676772004243472.5
1.863928525453061,6442386665732913.0,1.931979691671124e+16,4132069646294479.5,7959628178038291.0,113453660761.68825,508213776824.39496,25051686403349.27,760039072804621.6
2.001207095962122,6664749102292097.0,2.0050424318771028e+16,4274690250595107.0,8234359029471017.0,126502864662.7286,566667945465.3208,27934682722218.613,847998082880492.6
2.1412312378813647,6882395745513096.0,2.077240771364029e+16,4414286201592832.0,8503263475471340.0,140254010088.35638,628266506218.2186,30972859881961.312,940720910664754.2
2.284055862638992,7095759023371127.0,2.14870724042244e+16,4551134853412730.0,8766875784805511.0,154718510461.61346,693060587751.6288,34168745383557.26,1038286218153247.4
2.4297369798917723,7305211816061396.0,2.2195578762091424e+16,4685475366946883.0,9025656654406356.0,169908669643.07327,761105307632.5754,37525063975423.766,1140778846724063.2
2.578331719489608,7511077919181211.0,2.2898951832698036e+16,4817515420814039.0,9280006136732058.0,185837611768.01373,832459458027.3622,41044722136336.53,1248289336764596.8
2.7298983538794,7713640254794510.0,2.359810456143703e+16,4947436477838199.0,9530273784612618.0,202519224996.95514,907185253729.6943,44730795639722.55,1360913544073246.8
2.884496320956988,7913147394973203.0,2.429385624267799e+16,5075397969169849.0,9776766711145696.0,219968116116.11197,985348128792.8146,48586519520636.27,1478752331623696.5
3.0421862473761276,8109818802593226.0,2.498694733986728e+16,5201540655669816.0,1.001975606474867e+16,238199573704.65707,1067016571538.0962,52615279939691.52,1601911320770638.5
3.2030299723236504,8303849084339541.0,2.567805151283416e+16,5325989355735765.0,1.0259482283785698e+16,257229538142.55307,1152261990207.0652,56820607561630.164,1730500689883174.2
3.3670905717701234,8495411474035194.0,2.6367785470311644e+16,5448855179467713.0,1.049615940025301e+16,277074577136.619,1241158603333.2537,61206172155700.5,1864635011219567.2
3.5344323832055258,8684660709764268.0,2.705671711061611e+16,5570237374020256.0,1.0729978594490808e+16,297751865739.85864,1333783350242.371,65775778190895.164,2004433118933885.8
3.7051210308696363,8871735428814139.0,2.7745372301548812e+16,5690224859689840.0,1.0961111154156696e+16,319279170060.9523,1430215818083.1675,70533361248238.95,2150018002651756.0
3.879223451487029,9056760175599972.0,2.8434240568753252e+16,5808897517773500.0,1.1189710955034826e+16,341674834028.42194,1530538182542.2463,75482985109445.42,2301516722218921.0
4.0568079205167695,9239847096349192.0,2.912377990115685e+16,5926327277519142.0,1.141591655483414e+16,364957768702.06366,1634835159969.8171,80628839409617.44,2459060340116086.0
4.237944078927105,9421097378293908.0,2.981442083672027e+16,6042579039206390.0,1.1639852971324066e+16,389147443723.1392,1743193969086.424,85975237763567.06,2622783868719535.5
4.422702960505647,9600602478976114.0,3.0506569957331492e+16,6157711462608123.0,1.1861633201152236e+16,414263880571.91486,1855704300786.0522,91526616292401.66,2792826230121267.0
4.61115701971576,9778445181978120.0,3.1200612895385492e+16,6271777644123434.0,1.2081359524209204e+16,440327647361.84326,1972458294822.9482,97287532490459.44,2969330226642127.0
4.803380160110075,9954700508215608.0,3.1896916934289924e+16,6384825701270006.0,1.2299124629539498e+16,467359854947.8123,2093550522385.1257,103262664383328.22,3152442520504137.0
4.9994477633122765,1.0129436506342034e+16,3.2595833269333664e+16,6496899279640049.0,1.2515012591893412e+16,495382154164.43823,2219077973730.1543,109456809936221.78,3342313621394064.0
5.199436718578522,1.0302714941423596e+16,3.329769898295025e+16,6608037994608160.0,1.2729099722591234e+16,524416734041.4175,2349140050197.9688,115874886678847.22,3539097880864196.0
5.403425452950093,1.0474591897572928e+16,3.4002838778598676e+16,6718277817853408.0,1.2941455314082964e+16,554486320868.1843,2483838560028.376,122521931518488.1,3742953492690009.0
5.611493962009095,1.0645118307463068e+16,3.4711566509672524e+16,6827651416983184.0,1.3152142294167316e+16,585614178000.7329,2623277717503.3506,129403100717585.6,3954042498445881.5
5.823723841249277,1.0814340419423438e+16,3.5424186533583544e+16,6936188455122951.0,1.3361217803093324e+16,617824106320.4504,2767564145010.1763,136523670015851.9,4172530797676649.0
6.040198318074262,1.098230021102952e+16,3.614099491611349e+16,7043915856187825.0,1.356873370455413e+16,651140445268.8273,2916806877684.509,143889034880068.4,4398588162138991.5
6.261002284435747,1.1149035756642738e+16,3.686228050702558e+16,7150858040618115.0,1.37747370397859e+16,685588074393.6954,3071117370345.0186,151504710867302.62,4632388253666813.0
6.486222330124463,1.1314581555169578e+16,3.758832590458018e+16,7257037135600199.0,1.3979270432517096e+16,721192415352.4115,3230609506475.067,159376334089460.5,4874108645281980.0
6.715946776726952,1.147896882333418e+16,3.831940832385203e+16,7362473163167929.0,1.4182372451309566e+16,757979434325.7383,3395399609044.362,167509661768922.88,5123930845228043.0
6.950265712261491,1.1642225758953448e+16,3.905580038148231e+16,7467184209064303.0,1.4384077934837376e+16,795975644803.2015,3565606452994.787,175910572876561.22,5382040323652789.0
7.18927102650672,1.1804377778038046e+16,3.979777080762069e+16,7571186574815009.0,1.4584418284827072e+16,835208110706.7322,3741351279241.761,184585068844782.97,5648626541705871.0
7.433056447036854,1.196544772898493e+16,4.054558509425093e+16,7674494915109108.0,1.4783421730694598e+16,875704449824.5299,3922757810065.404,193539274349358.25,5923882982853019.0
7.681717575977592,1.2125456086664634e+16,4.12995060877871e+16,7777122362284193.0,1.4981113569342062e+16,917492837531.6096,4109952265786.0957,202779438154813.62,6208007186238076.0
7.935351927497144,1.2284421128814012e+16,4.205979453273216e+16,7879080639462645.0,1.5177516383092328e+16,960602010777.3204,4303063382636.053,212311934018989.53,6501200781950776.0
8.194058966047088,1.2442359096817132e+16,4.282670957226437e+16,7980380163674488.0,1.537265023833538e+16,1005061272323.5358,4502222431753.9795,222143261653146.25,6803669528080163.0
8.45794014536803,1.2599284342677136e+16,4.360050921083732e+16,8081030140123459.0,1.5566532867113344e+16,1050900495220.2388,4707563239243.261,232280047734634.1,7115623349454293.0
8.72709894827539,1.2755209463745492e+16,4.4381450743214216e+16,8181038648600721.0,1.575917983357981e+16,1098150127507.7811,4919222207245.684,242729046969747.3,7437276377983715.0
9.0016409272409,1.291014542657275e+16,4.516979115379293e+16,8280412722921215.0,1.5950604687018388e+16,1146841197137.565,5137338335993.781,253497143204881.84,7768846994542569.0
9.281673745785717,1.3064101681071494e+16,4.596578748959306e+16,8379158424146414.0,1.6140819102892226e+16,1197005317104.8909,5362053246813.623,264591350584603.94,8110557872334361.0
9.567307220701432,1.3217086266034228e+16,4.6769697209863704e+16,8477280908262274.0,1.6329833013212172e+16,1248674690789.6963,5593511206058.949,276018814755633.12,8462636021702602.0
9.85865336511546,1.3369105906920416e+16,4.758177851491354e+16,8574784488898606.0,1.6517654727353578e+16,1301882117502.551,5831859149965.154,287786814116133.75,8825312836357373.0
10.155826432417769,1.352016610671669e+16,4.840229065645554e+16,8671672695605764.0,1.670429104431498e+16,1356660998234.952,6077246710418.089,299902761110052.56,9198824140999388.0
10.458942961066125,1.3670271230578194e+16,4.9231494231496e+16,8767948328142601.0,1.688974735729315e+16,1413045341614.2048,6329826241639.941,312374203566558.75,9583410240332252.0
10.768121820287448,1.3819424584876e+16,5.006965146156457e+16,8863613507176454.0,1.7074027751346852e+16,1471069770064.7324,6589752847799.435,325208826084920.8,9979315969462472.0
11.083484256693197,1.3967628491202474e+16,5.091702645888086e+16,8958669721749398.0,1.725713509483123e+16,1530769526178.6438,6857184411559.841,338414451465425.6,1.0386790745694644e+16
11.405153941827061,1.4114884355823618e+16,5.177388548088091e+16,9053117873824132.0,1.7439071125206858e+16,1592180479299.6252,7132281623582.593,351999042187222.0,1.0806088621736182e+16
11.733257020663602,1.426119273501172e+16,5.2640497174370856e+16,9146958320187426.0,1.7619836529758454e+16,1655339132325.2664,7415208013009.427,365970701934133.0,1.123746834033372e+16
12.067922161076874,1.4406553396642172e+16,5.351713281044446e+16,9240190911957768.0,1.7799431021698728e+16,1720282628733.8845,7706129978950.2,380337677169779.3,1.1681193390368398e+16
12.409280604298411,1.455096537839648e+16,5.440406651118179e+16,9332815031915904.0,1.7977853412078378e+16,1787048759842.7498,8005216823007.617,395108358763487.56,1.2137532064444686e+16
12.75746621638438,1.4694427042874514e+16,5.530157546904143e+16,9424829629853330.0,1.815510167787803e+16,1855675972305.612,8312640782873.648,410291283668689.06,1.2606757518011686e+16
13.112615540712067,1.4836936129886262e+16,5.62099401597735e+16,9516233256111490.0,1.8331173026615108e+16,1926203375858.0713,8628577067036.498,425895136655663.56,1.3089147830062104e+16
13.474867851526309,1.4978489806163214e+16,5.712944454959298e+16,9607024093466044.0,1.8506063957762256e+16,1998670751320.1519,8953203890639.748,441928752100661.6,1.3584986065458798e+16
13.844365208556836,1.511908471270298e+16,5.806037629728709e+16,9697199987493248.0,1.867977032124275e+16,2073118558866.1528,9286702512538.775,458401115833590.5,1.4094560338943086e+16
14.221252512727972,1.5258717009937854e+16,5.900302695186584e+16,9786758475540430.0,1.8852287373236092e+16,2149587946572.4253,9629257273602.305,475321367046586.25,1.4618163880884698e+16
14.605677562982532,1.5397382420896312e+16,5.995769214630758e+16,9875696814409326.0,1.902360982950478e+16,2228120759254.4277,9981055636309.764,492698800265943.7,1.5156095104835628e+16
14.997791114242183,1.5535076272508502e+16,6.0924671787904184e+16,9964012006848786.0,1.9193731916427264e+16,2308759547604.846,10342288225697.555,510542867389983.8,1.570865767695636e+16
15.397746936527026,1.5671793535189144e+16,6.1904270245664984e+16,1.0051700826943012e+16,1.9362647419903236e+16,2391547577645.2656,10713148871709.58,528863179795571.2,1.627616058738472e+16
15.805701875257567,1.5807528860817284e+16,6.289679653519863e+16,1.0138759844471092e+16,1.9530349732277836e+16,2476528840504.1816,11093834653010.088,547669510516093.94,1.685891822362284e+16
16.221815912762718,1.5942276619218122e+16,6.3902564501457816e+16,1.0225185448306108e+16,1.9696831897415296e+16,2563748062534.6655,11484545942318.031,566971796493817.4,1.7457250446019646e+16
16.64625223101797,1.6076030933240512e+16,6.4921892999700824e+16,1.0310973868913346e+16,1.9862086654037452e+16,2653250715785.503,11885486453324.465,586780140909623.8,1.807148266543084e+16
17.079177275638333,1.6208785712512436e+16,6.595510607499418e+16,1.0396121200000888e+16,2.002610647742908e+16,2745083028839.759,12296863289256.498,607104815593216.5,1.8701945923140468e+16
17.5207608211511,1.634053468594809e+16,6.700253314055623e+16,1.0480623419368836e+16,2.018888361960043e+16,2839291998035.2124,12718886993151.68,627956263516964.2,1.9348976973130732e+16
17.97117603757412,1.6471271433069638e+16,6.806450915522092e+16,1.056447640899919e+16,2.03504101479858e+16,2935925399081.4395,13151771599909.188,649345101376594.4,2.0012918366790696e+16
18.430599558325603,1.6600989414201026e+16,6.914137480027652e+16,1.064767597442145e+16,2.05106779827481e+16,3035031799088.3477,13595734690184.436,671282122262040.1,2.0694118540154628e+16
18.899211549492115,1.6729681999582322e+16,7.023347665592121e+16,1.073021786338632e+16,2.0669678932749824e+16,3136660569021.4375,14050997446195.188,693778298421768.4,2.139293190376572e+16
19.37719578048196,1.6857342497447546e+16,7.134116737755591e+16,1.0812097783874594e+16,2.082740473024377e+16,3240861896598.9727,14517784709507.467,716844784123952.0,2.2109718935259892e+16
19.864739696091597,1.6983964181103784e+16,7.246480587212565e+16,1.0893311421465138e+16,2.0983847064329124e+16,3347686799646.6704,14996325040870.922,740492918617913.2,2.284484627476917e+16
20.36203449001343,1.7109540315042672e+16,7.360475747470224e+16,1.0973854456082716e+16,2.113899761321267e+16,3457187139925.2725,15486850782172.857,764734229199251.0,2.3598686823242868e+16
20.869275179813698,1.7234064180112824e+16,7.476139412549408e+16,1.1053722578143168e+16,2.129284807530952e+16,3569415637446.7056,15989598120580.857,789580434382097.4,2.437161984378846e+16
21.38666068340997,1.7357529097775902e+16,7.59350945474547e+16,1.1132911504110996e+16,2.1445390199211696e+16,3684425885294.3936,16504807154944.043,815043447181966.5,2.5164031066133896e+16
21.91439389707817,1.7479928453466742e+16,7.712624442465531e+16,1.121141699148222e+16,2.159661581254973e+16,3802272364963.2466,17032721964522.541,841135378512633.5,2.5976312794314456e+16
22.452681775019734,1.7601255719074034e+16,7.833523658157602e+16,1.1289234853203284e+16,2.1746516849767944e+16,3923010462234.8843,17573590680114.88,867868540700478.4,2.6808864017688004e+16
23.00173541052013,1.7721504474555616e+16,7.956247116346395e+16,1.136636097153475e+16,2.189508537883005e+16,4046696483603.5596,18127665557651.99,895255451119728.4,2.766209052538266e+16
23.561770118730532,1.784066842869969e+16,8.080835581789922e+16,1.14427913113675e+16,2.2042313626870084e+16,4173387673267.846,18695203054326.504,923308835951971.1,2.8536405024282496e+16
24.133005521105144,1.7958741439041838e+16,8.207330587770477e+16,1.1518521932996964e+16,2.218819400479982e+16,4303142230703.455,19276463907325.164,952041634073329.1,2.9432227260654924e+16
24.715665631527248,1.8075717530944776e+16,8.335774454533005e+16,1.1593549004360942e+16,2.2332719130882344e+16,4436019328831.85,19871713215230.65,981467001072578.8,3.0349984145525348e+16
25.309978944157795,1.8191590915847764e+16,8.466210307883277e+16,1.1667868812744404e+16,2.2475881853279036e+16,4572079132799.475,20481220522158.695,1011598313403515.8,3.129010988390309e+16
25.91617852304095,1.8306356008689892e+16,8.598682097958307e+16,1.1741477775954538e+16,2.2617675271576424e+16,4711382819381.826,21105259904695.266,1042449172674748.8,3.225304610796332e+16
26.53450209350177,1.8420007444511484e+16,8.733234618180368e+16,1.181437245296884e+16,2.2758092757297316e+16,4853992597026.622,21744110061696.266,1074033410080106.0,3.3239242014287236e+16
27.165192135371807,1.853254009423677e+16,8.869913524406488e+16,1.188654955405771e+16,2.289712797340014e+16,4999971726549.664,22398054407012.125,1106365090972713.5,3.424915450526411e+16
27.808495978079243,1.8643949079639644e+16,9.00876535428436e+16,1.1958005950383712e+16,2.303477489277018e+16,5149384542496.935,23067381165196.715,1139458519585769.2,3.528324833475672e+16
28.464665897640828,1.875422978749657e+16,9.149837546825709e+16,1.2028738683078514e+16,2.31710278157044e+16,5302296475185.85,23752383470259.89,1173328243902931.0,3.634199625812911e+16
29.133959215593645,1.8863377882925596e+16,9.293178462207835e+16,1.2098744971798942e+16,2.3305881386393164e+16,5458774073438.333,24453359467519.0,1207989060681192.5,3.7425879186738536e+16
29.816638399905518,1.897138932191706e+16,9.438837401814256e+16,1.2168022222763592e+16,2.343933060840111e+16,5618885028018.102,25170612418605.566,1243456020628958.8,3.853538634698516e+16
30.51297116790363,1.9078260363055052e+16,9.586864628524347e+16,1.223656803627104e+16,2.357137085914963e+16,5782698195783.555,25904450809679.086,1279744433742049.2,3.9671015444020456e+16
31.223230591261704,1.9183987578433596e+16,9.737311387263014e+16,1.2304380213701342e+16,2.37019979034038e+16,5950283624568.098,26655188462898.965,1316869874800148.0,4.083327283020378e+16
31.947695203086937,1.928856786377047e+16,9.890229925820056e+16,1.2371456764002912e+16,2.3831207905768236e+16,6121712578798.37,27423144651203.57,1354848189026201.5,4.202267367840259e+16
32.686649107148675,1.939199844772104e+16,1.0045673515950123e+17,1.2437795909666288e+16,2.3958997442194224e+16,6297057565861.149,28208644216443.46,1393695497911150.8,4.323974216022606e+16
33.44038208929165,1.9494276900396884e+16,1.0203696474762901e+17,1.2503396092187854e+16,2.4085363510504956e+16,6476392363228.579,29012017690912.94,1433428205206252.8,4.448501162927896e+16
34.20918973107749,1.959540114109366e+16,1.0364354186414125e+17,1.256825597702646e+16,2.421030353994288e+16,6659792046351.596,29833601422322.605,1474063003085156.8,4.575902480952445e+16
34.993373525699035,1.9695369445233588e+16,1.0527703124107347e+17,1.2632374458056216e+16,2.4333815399747844e+16,6847333017330.135,30673737702254.2,1515616878477872.5,4.706233398883842e+16
35.793240996213015,1.9794180450529136e+16,1.0693800872416888e+17,1.2695750661519774e+16,2.4455897406771736e+16,7039093034369.154,31532774898135.2,1558107119578509.0,4.839550121783729e+16
36.60910581613728,1.989183316237485e+16,1.086270614994214e+17,1.2758383949486622e+16,2.4576548332140852e+16,7235151242028.232,32411067588770.28,1601551322528764.8,4.975909851405934e+16
37.44128793246003,1.9988326958476044e+16,1.1034478832303355e+17,1.2820273922821942e+16,2.4695767406974188e+16,7435588202272.629,33308976703463.723,1645967398278856.5,5.115370807157688e+16
38.29011369110923,2.0083661592723292e+16,1.120917997548986e+17,1.28814204236716e+16,2.481355432717094e+16,7640485926333.027,34226869664765.668,1691373579627640.2,5.257992247611387e+16
39.15591596493141,2.0177837198323708e+16,1.1386871839570144e+17,1.2941823537470424e+16,2.4929909257278628e+16,7849927907380.68,35165120534872.824,1737788428443489.5,5.4038344925742856e+16
