t(s),Total solute volume 1,Total retention volume 1,Total 1 volume 1,Total 2 volume 1,Total 3 volume 1,Total 4 volume 1,Total 5 volume 1,Total 6 volume 1
0.1,1117071271046687.6,1512117690109863.2,171218609237430.47,223827809825744.56,0.0,0.0,0.0,0.0
0.202,1682052025826599.8,2276906088002572.5,257815788361420.03,337033133980714.94,3429405.5034836237,8466713.22426983,178812316.82547158,4949125401.928561
0.30604000000000003,2112594446270643.0,2859715493588800.0,323806989697391.7,423301014496280.6,8700428.73936809,21480137.537102863,453661190.0342034,12559282732.168886
0.41216080000000005,2476812702417489.0,3352747762987551.5,379632383657308.8,496279507027396.56,15453899.765171362,38153523.71165482,805812630.1590632,22310465300.38003
0.5204040160000001,2800282251489454.0,3790622741616136.5,429212037334410.5,561093171983139.4,23530365.126606323,58093202.008100085,1226951327.1474447,33972234235.698265
0.6308120963200001,3095752507750580.0,4190598479415053.5,474500111641251.94,620296612406865.4,32844326.02543387,81088087.28203516,1712618761.0543377,47421065178.184074
0.7434283382464002,3370635244383342.5,4562707811245843.0,516632642876554.94,675374926957501.4,43346937.88096634,107017588.80714212,2260267849.2892184,62586396069.345566
0.8582969050113283,3629679134948355.0,4913378713032186.0,556337481905800.5,727279608416507.0,55010682.53397175,135813767.9359557,2868463611.0761056,79428473456.66083
0.9754628431115548,3876138508942985.0,5247016370306444.0,594113434660476.2,776662727508874.5,67821816.02704084,167442692.6685207,3536489336.109889,97927440271.287
1.094972099973786,4112356827338319.5,5566792990556664.0,630319694096544.9,823993844029159.5,81776186.39170195,201894112.3272873,4264128495.0544786,118077293847.47726
1.2168715419732616,4340087044892962.5,5875081456233431.0,665224943588256.0,869624197910501.6,96876720.8393119,239175253.7688962,5051533705.559265,139882256028.9317
1.3412089728127268,4560680575169532.0,6173711113855009.0,699036320458533.4,913824572187346.8,113131822.82362773,279306863.9477384,5899143145.344161,163354457770.31296
1.4680331522689813,4775205176150470.0,6464127347651598.0,731917484845240.0,956808913762612.9,130554302.06607243,322320568.2929366,6807624757.445242,188512393650.57495
1.597393815314361,4984521885385555.0,6747495721317105.0,764000411902295.8,998749748920319.1,149160634.92080668,368257044.64984757,7777837681.434138,215379853564.59717
1.729341691620648,5189337127822696.0,7024772512714611.0,795393378604661.0,1039788624183231.4,168970439.0613656,417164726.3525926,8810804860.648058,243985163991.03564
1.863928525453061,5390239122497517.0,7296753995030599.0,826186543967778.9,1080043401129323.4,190006092.58004898,469098861.8321515,9907693179.93967,274360637850.11566
2.001207095962122,5587724000474765.0,7564111790769487.0,856455952263625.9,1119613489649503.9,212292453.5595797,524120822.276883,11069798842.62075,306542169479.9682
2.1412312378813647,5782214973044996.0,7827418818370199.0,886266471017668.8,1158583688683405.8,235856651.50117293,582297586.6967753,12298536494.397831,340568933397.6265
2.284055862638992,5974076680877471.0,8087168715628311.0,915673990369014.0,1197027061362344.2,260727931.40098834,643701356.9694182,13595431092.681372,376483159100.5424
2.4297369798917723,6163626124215042.0,8343790635122578.0,944727098391243.1,1235007125094880.5,286937537.24137676,708409270.1957356,14962111831.194157,414329962794.3653
2.578331719489608,6351141118021093.0,8597660689350974.0,973468377051366.0,1272579545726486.2,314518625.57047075,776503185.3397613,16400307633.544983,454157222576.3596
2.7298983538794,6536866923031446.0,8849110926724672.0,1001935418581388.5,1309793466204852.8,343506202.4654657,848069527.5995591,17911843866.1502,496015487390.7294
2.884496320956988,6721021510775362.0,9098436458469816.0,1030161632472135.8,1346692561533358.8,373937078.97472066,923199178.3998315,19498640014.73675,539957912671.71014
3.0421862473761276,6903799790775529.0,9345901180709786.0,1058176893395437.0,1383315885776022.5,405849841.394604,1001987402.0094934,21162708134.40377,586040217411.3104
3.2030299723236504,7085377038951574.0,9591742415279544.0,1086008066691222.0,1419698559007496.2,439284833.6364185,1084533802.0080266,22906151930.123394,634320658687.6461
3.3670905717701234,7265911703889820.0,9836174708406460.0,1113679438497253.5,1455872329605932.8,474284149.5910451,1170942302.4347925,24731166358.571457,684860020631.9148
3.5344323832055258,7445547723312467.0,1.0079392966387824e+16,1141213070804943.5,1491866038404464.0,510891633.8790499,1261321149.640957,26640037667.2188,737721615505.5302
3.7051210308696363,7624416451099097.0,1.0321575064105426e+16,1168629096822744.0,1527706004808885.2,549152889.7323164,1355782931.7481675,28635143805.29468,792971295076.3829
3.879223451487029,7802638271822384.0,1.0562884030554252e+16,1195945968443369.8,1563416350302549.8,589115293.0240111,1454444613.2865913,30718955155.355057,850677470874.2867
4.0568079205167695,7980323962436658.0,1.0803469892114278e+16,1223180664956042.0,1599019271288218.5,630828011.6706674,1557427583.096041,32894035544.978188,910911142204.5654
4.237944078927105,8157575847779621.0,1.1043471236725574e+16,1250348870155510.2,1634535270616160.0,674342029.7901149,1664857713.9685783,35163043506.45363,973745931029.7161
4.422702960505647,8334488786718480.0,1.1283016548822506e+16,1277465123493153.8,1669983355178511.2,719710176.1238419,1776865432.8194814,37528733758.83864,1039258123009.4982
4.61115701971576,8511151018254868.0,1.1522225354707662e+16,1304542949763356.5,1705381205443460.0,766987156.3307958,1893585800.4161801,39993958891.88966,1107526714131.7961
4.803380160110075,8687644891100291.0,1.1761209210191532e+16,1331594970928852.5,1740745321640491.5,816229588.8378226,2015158599.888135,42561671235.45347,1178633462479.6755
4.9994477633122765,8864047495715817.0,1.2000072556208572e+16,1358633002996344.2,1776091150402263.2,867496043.9947541,2141728433.3954117,45234924901.17931,1252662944770.7063
5.199436718578522,9040431214263450.0,1.2238913463319334e+16,1385668140310055.2,1811433194958537.0,920847086.3329115,2273444826.4591103,48016877986.0546,1329702617377.819
5.403425452950093,9216864201112840.0,1.2477824282213588e+16,1412710829201181.0,1846785111415377.5,976345319.7670964,2410462339.558974,50910794929.43131,1409842881600.9375
5.611493962009095,9393410804312136.0,1.2716892214304332e+16,1439770932588665.5,1882159793205362.2,1034055435.6152699,2552940686.6873894,53920049016.97648,1493177153007.4543
5.823723841249277,9570131936642272.0,1.2956199814079324e+16,1466857786852354.0,1917569445435844.0,1094044263.338164,2701044860.618586,57048125026.4542,1579801934700.5347
6.040198318074262,9747085403427588.0,1.3195825432920554e+16,1493980252078062.2,1953025650572385.0,1156380823.924632,2854945264.709756,60298622011.467186,1669816894408.0532
6.261002284435747,9924326193104018.0,1.3435843612514078e+16,1521146756594245.8,1988539426660017.0,1221136385.868275,3014817851.09975,63675256220.32026,1763324945313.4585
6.486222330124463,1.010190673558763e+16,1.3676325434677072e+16,1548365336573359.2,2024121279092570.5,1288384523.6976368,3180844265.212121,67181864148.03745,1860432330574.1606
6.715946776726952,1.0279877132701478e+16,1.3917338833365692e+16,1575643671350430.5,2059781246783382.5,1358201179.0365772,3353211996.5048814,70822405720.31406,1961248711493.6057
6.950265712261491,1.0458285364270872e+16,1.4158948873749868e+16,1602989115012183.2,2095528943460608.5,1430664724.1836686,3532114535.4393635,74600967608.82419,2065887259331.002
7.18927102650672,1.0637177472959252e+16,1.4401218002514824e+16,1630408724727722.0,2131373594702881.2,1505856028.2103596,3717751536.6675596,78521766677.8631,2174464750748.1453
7.433056447036854,1.0816597730471352e+16,1.4644206272943998e+16,1657909286223234.5,2167324071241427.0,1583858525.586669,3910328988.4596186,82589153562.79002,2287101666906.247
7.681717575977592,1.099658878737567e+16,1.4887971547831944e+16,1685497336745939.5,2203388918980047.8,1664758287.351792,4110059388.414396,86807616381.1753,2403922296237.62
7.935351927497144,1.1177191808484272e+16,1.5132569682851416e+16,1713179185814409.8,2239576386121227.8,1748644094.8541415,4317161925.5135355,91181784577.92343,2525054840927.7866
8.194058966047088,1.1358446595464862e+16,1.537805469264088e+16,1740960934011861.0,2275894447733885.5,1835607516.0919878,4531862668.596186,95716432906.01056,2650631527152.929
8.45794014536803,1.1540391698134626e+16,1.5624478901575086e+16,1768848490044643.8,2312350828053374.0,1925742984.6919596,4754394761.346036,100416485544.76364,2780788719126.459
8.72709894827539,1.1723064515696208e+16,1.5871893080925444e+16,1796847586259194.5,2348953020766182.5,2019147881.567977,4984998623.896226,105287020357.91681,2915667037016.3633
9.0016409272409,1.1906501389014686e+16,1.6120346573896728e+16,1824963792785719.0,2385708307499452.0,2115922619.3084395,5223922161.169794,110333273293.92549,3055411478802.059
9.281673745785717,1.2090737684895122e+16,1.636988740983939e+16,1853202530455788.2,2422623774707710.0,2216170729.3440228,5471420978.085048,115560642931.27582,3200171546146.7114
9.567307220701432,1.2275807873201916e+16,1.6620562408777072e+16,1881569082622792.8,2459706329125275.0,2319998951.9529853,5727758601.766502,120974695171.75587,3350101374366.8896
9.85865336511546,1.2461745597559414e+16,1.6872417277249258e+16,1910068605998537.2,2496962711932583.5,2427517329.1650095,5993206710.911777,126581168084.86555,3505359866587.8125
10.155826432417769,1.264858374028459e+16,1.7125496696350838e+16,1938706140605775.8,2534399511766718.0,2538839300.6285357,6268045372.4750185,132385976906.76016,3666110832178.1074
10.458942961066125,1.283635448212672e+16,1.737984440274685e+16,1967486618934781.2,2572023176691517.0,2654081802.510569,6552563285.837042,138395219197.31628,3832523129563.2773
10.768121820287448,1.3025089357322944e+16,1.763550326335098e+16,1996414874381951.5,2609840025229015.0,2773365369.5013013,6847058034.640974,144615180159.10416,4004770813522.982
11.083484256693197,1.3214819304420566e+16,1.789251534427873e+16,2025495649039602.2,2647856256542766.5,2896814239.999991,7151836346.481808,151052338122.23154,4183033287081.7583
11.405153941827061,1.3405574713267452e+16,1.8150921974618244e+16,2054733600898367.0,2686077959853278.0,3024556464.561486,7467214360.646067,157713370199.22574,4367495458108.518
11.733257020663602,1.359738546852755e+16,1.8410763805502668e+16,2084133310517041.2,2724511123157251.0,3156724017.6867456,7793517904.107598,164605158114.28018,4558347900744.741
12.067922161076874,1.379028099004038e+16,1.8672080864915116e+16,2113699287208662.0,2763161641314418.0,3293452913.043922,8131082775.99267,171734794211.3837,4755787021786.511
12.409280604298411,1.3984290270309398e+16,1.8934912608613144e+16,2143435974786513.0,2802035323559074.5,3434883322.2099624,8480255040.736816,179109587646.02826,4960015232150.248
12.75746621638438,1.4179441909375032e+16,1.9199297967517316e+16,2173347756909290.2,2841137900487643.5,3581159697.026195,8841391330.164263,186737070765.36737,5171241123557.282
13.112615540712067,1.4375764147300876e+16,1.9465275391875404e+16,2203438962060373.8,2880475030567871.5,3732430895.6647034,9214859154.728642,194625005681.8671,5389679650576.731
13.474867851526309,1.457328489447961e+16,1.973288289248066e+16,2233713868193011.5,2920052306211302.5,3888850312.505698,9601037224.162655,202781391045.68213,5615552318171.697
13.844365208556836,1.477203175994418e+16,2.0002158079195396e+16,2264176707069642.0,2959875259445956.0,4050576011.929668,10000315777.792612,211214469021.16525,5849087374898.399
14.221252512727972,1.4972032077851032e+16,2.027313819700718e+16,2294831668321149.0,2999949367222790.0,4217770866.131268,10413096924.782434,219932732473.08737,6090520011913.04
14.605677562982532,1.5173312932287572e+16,2.0545860159821084e+16,2325682903249176.0,3040280056386349.5,4390602697.065819,10839794994.58011,228944932368.3515,6340092567946.013
14.997791114242183,1.5375901180539548e+16,2.0820360582176012e+16,2356734528392440.5,3080872708336894.0,4569244422.64248,11280836897.84903,238260085399.14514,6598054740408.555
15.397746936527026,1.5579823474943176e+16,2.109667580904953e+16,2387990628876141.5,3121732663408933.0,4753874207.281907,11736662498.17426,247887481833.6795,6864663802801.86
15.805701875257567,1.5785106283434292e+16,2.1374841943907264e+16,2419455261561547.0,3162865224988596.5,4944675616.959971,12207724994.844625,257836693600.84818,7140184828604.223
16.221815912762718,1.5991775908896662e+16,2.16548948751324e+16,2451132458011680.0,3204275663390494.0,5141837778.86262,12694491317.018822,268117582615.33084,7424890921816.604
16.64625223101797,1.619985850740254e+16,2.1936870300963904e+16,2483026227287055.5,3245969219512575.0,5345555545.780817,13197442529.594378,278740309349.8729,7719063454353.314
17.079177275638333,1.640938010543001e+16,2.222080375305682e+16,2515140558584743.5,3287951108286028.0,5556029665.378567,13717074251.107395,289715341661.6594,8022992310469.402
17.5207608211511,1.6620366616135584e+16,2.2506730618770096e+16,2547479423732450.0,3330226521935696.0,5773466954.47057,14253897084.000662,301053463879.9202,8336976138422.018
17.97117603757412,1.6832843854750914e+16,2.2794686162277972e+16,2580046779548526.5,3372800633065258.0,5998080478.450376,14808437057.607319,312765786162.1051,8661322609569.477
18.430599558325603,1.7046837553169816e+16,2.3084705544592576e+16,2612846570077741.0,3415678597579954.0,6230089736.014038,15381236084.208677,324863754126.17926,8996348685116.873
18.899211549492115,1.726237337378425e+16,2.337682384257793e+16,2645882728712004.5,3458865557458905.0,6469720849.327865,15972852428.532698,337359158766.81995,9342380890723.596
19.37719578048196,1.7479476922623344e+16,2.3671076067029172e+16,2679159180204224.5,3502366643387806.0,6717206759.794192,16583861191.07331,350264146663.49396,9699755599194.041
19.864739696091597,1.769817376184532e+16,2.396749717988448e+16,2712679842583019.5,3546186977261965.0,6972787429.572324,17214854805.618187,363591230488.6508,10068819321479.129
20.36203449001343,1.7918489421628768e+16,2.4266122110632652e+16,2746448628975366.5,3590331674568864.0,7236710049.017058,17866443551.38666,377353299824.4838,10449929006223.416
20.869275179813698,1.81404494115043e+16,2.4566985771972228e+16,2780469449343386.5,3634805846658794.5,7509229250.20136,18539256080.188408,391563632296.93994,10843452348097.121
21.38666068340997,1.8364079231166216e+16,2.487012307477641e+16,2814746212141590.5,3679614602911111.0,7790607326.6946535,19233939959.02617,406235905035.92847,11249768105162.18
21.91439389707817,1.8589404380799444e+16,2.517556894241126e+16,2849282825899658.0,3724763052803484.5,8081114459.77272,19951162228.57787,421384206470.9054,11669266425525.252
22.452681775019734,1.881645037095504e+16,2.5483358324452772e+16,2884083200736149.5,3770256307890672.5,8381028951.240391,20691609978.00395,437023048471.2719,12102349183539.875
23.00173541052013,1.904524273200448e+16,2.579352620984395e+16,2919151249807589.5,3816099483698826.0,8690637463.052675,21455990936.540104,453167378841.2795,12549430325826.227
23.561770118730532,1.927580702320093e+16,2.6106107639530276e+16,2954490890697325.5,3862297701541145.0,9010235263.925869,22245034082.34687,469832594179.4221,13010936227383.758
24.133005521105144,1.9508168841373704e+16,2.6421137718609852e+16,2990106046748186.5,3908856090259960.0,9340126483.134604,23059490269.10012,487034553112.53406,13487306058081.426
24.715665631527248,1.9742353829280068e+16,2.673865162802972e+16,3026000648342542.5,3955779787900179.0,9680624371.696808,23900132870.82148,504789589915.12054,13978992159815.275
25.309978944157795,1.997838768363594e+16,2.7058684635860916e+16,3062178634133328.5,4003073943318463.5,10032051571.153025,24767758445.459015,523114528524.71564,14486460434633.729
25.91617852304095,2.0216296162847988e+16,2.73812721081783e+16,3098643952229035.0,4050743717732415.0,10394740390.153984,25663187417.743927,542026696964.3596,15010190744136.668
26.53450209350177,2.0456105094464188e+16,2.7706449519574096e+16,3135400561335805.5,4098794286213534.0,10769033089.073414,26587264781.86204,561543942183.5839,15550677320464.416
27.165192135371807,2.0697840382362948e+16,2.80342524633273e+16,3172452431859247.5,4147230839127629.0,11155282172.871815,27540860824.494408,581684645329.6073,16108429189200.045
27.808495978079243,2.0941528013695244e+16,2.8364716661254228e+16,3209803546968571.5,4196058583525895.0,11553850692.439901,28524871868.794502,602467737460.7318,16683970604517.395
28.464665897640828,2.1187194065597456e+16,2.8697877973259064e+16,3247457903625454.0,4245282744489878.0,11965112554.659641,29540221039.887035,623912715714.2747,17277841496916.32
29.133959215593645,2.1434864711687604e+16,2.9033772406606292e+16,3285419513579752.0,4294908566433199.5,12389452841.424335,30587859052.485363,646039659941.6915,17890597933895.137
29.816638399905518,2.1684566228359304e+16,2.9372436124933004e+16,3323692404334183.5,4344941314362626.5,12827268137.867113,31668765021.24464,668869249823.8636,18522812593919.508
30.51297116790363,2.193632500088572e+16,2.9713905457017572e+16,3362280620079982.0,4395386275101184.0,13278966870.053745,32783947294.47904,692422782479.868,19175075254057.234
31.223230591261704,2.2190167529345612e+16,3.0058216905322484e+16,3401188222605121.5,4446248758475495.5,13744969652.401552,33934444311.892902,716722190582.934,19847993291656.41
31.947695203086937,2.2446120434381904e+16,3.0405407154325068e+16,3440419292176988.0,4497534098469619.0,14225709645.093239,35121325486.987946,741790060997.5679,20542192200455.855
32.686649107148675,2.2704210462802824e+16,3.075551307865178e+16,3479977928400939.0,4549247654347455.0,14721632921.762571,36345692114.82968,767649653952.2742,21258316121525.69
33.44038208929165,2.2964464493036656e+16,3.110857175102793e+16,3519868251056282.5,4601394811745581.0,15233198847.734108,37608678305.87055,794324922762.631,21997028389445.93
34.20918973107749,2.3226909540446668e+16,3.1464620450056704e+16,3560094400911038.5,4653980983738312.0,15760880469.107847,38911451946.548225,821840534119.8223,22759012094142.6
34.993373525699035,2.349157276251699e+16,3.1823696667838732e+16,3600660540516687.0,4707011611876692.0,16305164912.986507,40255215687.393166,850221888960.2177,23544970658809.992
35.793240996213015,2.375848146391559e+16,3.2185838117442972e+16,3641570854984272.0,4760492167203081.0,16866553799.151054,41641207959.4002,879495143931.8701,24355628434359.223
36.60910581613728,2.4027663101442396e+16,3.255108274023975e+16,3682829552742816.5,4814428151242543.0,17445563663.49735,43070704019.437164,909687233474.261,25191731310843.84
37.44128793246003,2.429914528886972e+16,3.291946871310583e+16,3724440866281164.5,4868825096972692.0,18042726393.555054,44545017025.48278,940825892528.0768,26054047346325.008
38.29011369110923,2.4572955801680468e+16,3.329103445551031e+16,3766409052874318.5,4923688569773162.0,18658589676.41825,46065499142.5075,972939679892.0989,26943367413649.184
39.15591596493141,2.4849122581711264e+16,3.3665818636490296e+16,3808738395295056.5,4979024168355912.0,19293717459.42412,47633542679.82771,1006058002244.8475,27860505865623.164
40.03903428423004,2.512767374170528e+16,3.4043860181524116e+16,3851433202511810.0,5034837525677450.0,19948690423.92698,49250581260.789795,1040211138848.948,28806301219083.39
40.93981496991464,2.5408637569780296e+16,3.4425198279310756e+16,3894497810373441.5,5091134309834209.0,20624106472.51957,50918091025.65528,1075430266956.6995,29781616858367.523
41.85861126931294,2.5692042533817124e+16,3.4809872388460476e+16,3937936582281935.0,5147920224941677.0,21320581230.06686,52637591868.58469,1111747487935.7607,30787341758708.203
42.7957834946992,2.5977917285772104e+16,3.5197922244105516e+16,3981753909853343.0,5205201011998611.0,22038748558.921764,54410648709.637146,1149195854134.273,31824391230082.54
43.751699164593184,2.6266290665918252e+16,3.558938786443559e+16,4025954213567919.0,5262982449736909.0,22779261088.704338,56238872802.7236,1187809396505.2485,32893707682060.137
