t(s),Total solute volume 1,Total retention volume 1,Total 1 volume 1,Total 2 volume 1,Total 3 volume 1,Total 4 volume 1,Total 5 volume 1,Total 6 volume 1
0.1,1343181032126672.5,2872917611672401.5,563076449980376.4,966660129565354.2,0.0,0.0,0.0,-1.5603494592410886e-89
0.202,2015796486729249.0,4314817412756423.5,845044376573718.1,1450728166169557.5,595758122.1013947,2236331613.515516,87453124523.37636,3158098069643.0073
0.30604000000000003,2529091320409411.5,5417769473806931.0,1060223301859112.8,1820136170774445.8,1509858280.2731843,5667734044.931879,221837683760.93597,8089665487874.402
0.41216080000000005,2962952439888207.5,6352262661436067.0,1242102725678607.5,2132377308062093.5,2679907495.62251,10059952560.733225,393893410949.6536,14423554536151.605
0.5204040160000001,3347810455281041.5,7183222492883413.0,1403439500856137.2,2409351890725560.5,4077940908.2091665,15308005002.839457,599495530574.5925,22001764544193.03
0.6308120963200001,3698884328275764.0,7943114133487378.0,1550613586323282.8,2662012703069613.0,5688805794.041321,21355007964.83081,836411398672.8134,30740060606284.68
0.7434283382464002,4025032996588367.0,8650835868213569.0,1687338747751106.5,2896735345685559.0,7503699159.051519,28167915175.949593,1103344415818.0913,40589762158386.22
0.8582969050113283,4331935621827907.5,9318505791244302.0,1815995753111107.0,3117606997521405.0,9517507103.625809,35727529201.5867,1399541429769.7778,51522632317811.28
0.9754628431115548,4623484845020586.0,9954434288330416.0,1938216440983647.0,3327429114312362.5,11727492141.874228,44023573592.52258,1724599236337.8962,63523537711760.33
1.094972099973786,4902483348989991.0,1.056460975708826e+16,2055175727296073.2,3528218730672166.0,14132565289.071869,53051960300.11194,2078357335481.3345,76586408268958.39
1.2168715419732616,5171026683930148.0,1.1153514941558164e+16,2167752090080959.2,3721483972021363.0,16732847990.097116,62813145164.090034,2460833409995.7393,90711816122533.0
1.3412089728127268,5430729237307467.0,1.1724608671205676e+16,2276622298583300.5,3908386680609470.5,19529392071.54628,73311076622.07541,2872182087171.036,105905432149580.58
1.4680331522689813,5682865283168212.0,1.228062649031054e+16,2382320542705484.5,4089843925878856.0,22523992268.958458,84552491944.82942,3312667336581.884,122176994737180.03
1.597393815314361,5928461075823607.0,1.2823776901962862e+16,2485277039708399.5,4266594282445235.0,25719056128.432842,96546428853.50552,3782643317386.7817,139539595183234.33
1.729341691620648,6168357247700890.0,1.3355874306525408e+16,2585844192087294.0,4439242736580308.5,29117511118.842266,109303876824.16713,4282540704842.8154,158009168064120.7
1.863928525453061,6403252419082193.0,1.387843189599123e+16,2684314869261126.0,4608292071266279.0,32722736799.502663,122837522449.42714,4812856705807.33,177604119416590.47
2.001207095962122,6633734491691701.0,1.4392728303745148e+16,2780935526193667.5,4774165387562748.0,36538514399.88279,137161560164.05438,5374147637646.901,198345050584826.78
2.1412312378813647,6860303620372530.0,1.489985652479571e+16,2875915833376837.0,4937222636861434.0,40568988831.10008,152291549638.85645,5967023337235.3,220254550309206.22
2.284055862638992,7083389412549449.0,1.5400760541095272e+16,2969435887037469.0,5097772998994367.0,44818639784.22444,168244307285.9339,6592142907551.561,243357036659375.97
2.4297369798917723,7303364031391725.0,1.5896263223522378e+16,3061651702129408.0,5256084312316967.0,49292259609.07037,185037823217.49405,7250211462338.61,267678636139131.62
2.578331719489608,7520552332850744.0,1.6387087918668024e+16,3152699461892838.0,5412390369130577.0,53994936346.50634,202691197550.65594,7941977629312.215,293247091030643.0
2.7298983538794,7735239816172040.0,1.6873875381300832e+16,3242698850797643.0,5566896637506175.0,58932040743.20702,221224591662.10483,8668231639532.779,320091688553029.06
2.884496320956988,7947678936597013.0,1.7357197221318898e+16,3331755700898426.5,5719784804409088.0,64109216390.73772,240659191171.2906,9429803876628.025,348243207130183.06
3.0421862473761276,8158094173498828.0,1.7837566702696092e+16,3419964116453642.5,5871216423134532.0,69532372350.08221,261017178253.828,10227563791827.598,377733876266667.0
3.2030299723236504,8366686140397302.0,1.831544750438148e+16,3507408196889693.5,6021335871202781.0,75207677779.08856,282321711473.7312,11062419113788.775,408597347388660.0
3.3670905717701234,8573634948601361.0,1.879126089398139e+16,3594163446877402.0,6170272771105031.0,81141558193.66635,304596911748.64264,11935315298878.52,440868673628766.06
3.5344323832055258,8779102983123298.0,1.926539165193981e+16,3680297940026249.5,6318143988073160.0,87340693076.97096,327867853375.3373,12847235179854.787,474584296990807.94
3.7051210308696363,8983237211189695.0,1.973819300232167e+16,3765873286637869.0,6465055291468603.0,93812014613.00562,352160559276.21967,13799198780043.703,509782041671558.7
3.879223451487029,9186171115642570.0,2.020999074661222e+16,3850945444209472.0,6611102746212356.0,100562707368.01628,377501999803.7908,14792263267019.459,546501112573622.56
4.0568079205167695,9388026324761950.0,2.0681086752739296e+16,3935565400673541.5,6756373885735454.0,107600208778.90245,403920094574.6136,15827523025069.96,584782098239930.5
4.237944078927105,9588913994481846.0,2.1151761918401056e+16,4019779753838327.0,6900948706732119.0,114932210335.50484,431443716908.0608,16906109829798.906,624666977591738.8
4.422702960505647,9788935987189232.0,2.162227870270136e+16,4103631205553402.5,7044900517517618.0,122566659365.16661,460102700525.9762,18029193111384.777,666199129969829.5
4.61115701971576,9988185882280802.0,2.2092883300909228e+16,4187158985346431.0,7188296665305710.0,130511761344.87288,489927848232.8583,19197980295505.645,709423348071192.0
4.803380160110075,1.018674984669465e+16,2.2563807522351844e+16,4270399215359708.0,7331199162712764.0,138775982679.673,520950942346.44806,20413717212910.664,754385853446773.4
4.9994477633122765,1.0384707388214814e+16,2.3035270419919652e+16,4353385226143837.0,7473665229895882.0,147368053896.7794,553204756688.7675,21677688570192.402,801134314284347.1
5.199436718578522,1.0582132010092956e+16,2.350747971061285e+16,4436147831082501.0,7615747765671048.0,156296973213.32513,586723069979.8796,22991218475578.445,849717865247579.5
5.403425452950093,1.0779091782167958e+16,2.3980633019402184e+16,4518715565812062.0,7757495758536308.0,165572010442.71875,621540680502.7397,24355671014583.605,900187129180349.5
5.611493962009095,1.0975649840983086e+16,2.445491897297626e+16,4601114897876355.0,7898954646596120.0,175202711210.18402,657693421928.7379,25772450871196.434,952594240516351.0
5.823723841249277,1.117186482925291e+16,2.493051816537772e+16,4683370410956087.0,8040166633836842.0,185198901452.70605,695218180210.9152,27243003990955.074,1006992870259271.9
6.040198318074262,1.1367791283297126e+16,2.540760401384377e+16,4765504967285385.0,8181170968955065.0,195570692182.4063,734152911466.1041,28768818282827.24,1063438252419704.0
6.261002284435747,1.1563479975651514e+16,2.5886343520172176e+16,4847539851278200.0,8322004191927792.0,206328484495.52408,774536660779.0973,30351424357272.582,1121987211812119.8
6.486222330124463,1.175897821891682e+16,2.636689795049299e+16,4929494896905138.0,8462700352686523.0,217482974811.7873,816409581871.7145,31992396298250.758,1182698193129560.0
6.715946776726952,1.1954330135964636e+16,2.684942344432079e+16,5011388600966687.0,8603291205578713.0,229045160331.13342,859812957587.8278,33693352467257.38,1245631291225563.2
6.950265712261491,1.2149576900839514e+16,2.733407156210865e+16,5093238224082203.0,8743806382740496.0,241026344696.56946,904789221152.258,35455956337740.12,1310848282542827.2
7.18927102650672,1.2344756954055042e+16,2.7820989779157064e+16,5175059880944360.0,8884273549040724.0,253438143853.482,951381978167.1702,37281917358470.44,1378412657636497.2
7.433056447036854,1.2539906195442434e+16,2.831032193258913e+16,5256868621163411.0,9024718540870320.0,266292492096.9955,999636029314.4296,39172991844636.3,1448389654746947.5
7.681717575977592,1.2735058157263404e+16,2.8802208627150116e+16,5338678501838073.0,9165165490728076.0,279601648300.0646,1049597393736.4813,41130983895582.43,1520846294382923.0
7.935351927497144,1.2930244159921564e+16,2.9296787604790636e+16,5420502652831492.0,9305636939283096.0,293378202315.90466,1101313333071.7146,43157746338257.016,1595851414880867.5
8.194058966047088,1.3125493452289704e+16,2.9794194082316852e+16,5502353335597928.0,9446153936365392.0,307635081549.14465,1154832376123.249,45255181695540.54,1673475708910598.0
8.45794014536803,1.3320833338401366e+16,3.0294561060819844e+16,5584241996293446.0,9586736132143470.0,322385557690.73334,1210204344142.5005,47425243178729.09,1753791760900990.5
8.72709894827539,1.351628929202773e+16,3.079801961011447e+16,5666179313807599.0,9727401859582696.0,337643253612.20374,1267480376711.024,49669935703524.83,1836874085362561.5
9.0016409272409,1.3711885060465582e+16,3.1304699131001756e+16,5748175243272656.0,9868168209139752.0,353422150415.38196,1326712958205.9084,51991316928960.01,1922799166086189.0
9.281673745785717,1.3907642758697158e+16,3.1814727597818936e+16,5830239055536448.0,1.000905109652737e+16,369736594633.99963,1387955944835.5007,54391498318736.914,2011645496199736.5
9.567307220701432,1.4103582954939924e+16,3.232823178343666e+16,5912379373025730.0,1.0150065324282802e+16,386601305584.0437,1451264592233.5383,56872646224517.734,2103493619065893.8
9.85865336511546,1.4299724748481252e+16,3.28453374686042e+16,5994604202375356.0,1.0291224637783966e+16,404031382859.95996,1516695583600.8242,59436982990742.36,2198426170006426.8
10.155826432417769,1.4496085840588502e+16,3.3366169637317252e+16,6076920964154672.0,1.0432541776281972e+16,422042313974.0604,1584307058384.596,62086788080585.766,2296527918839150.0
10.458942961066125,1.4692682599192968e+16,3.389085265969089e+16,6159336519983641.0,1.0574028519452728e+16,440649982136.6993,1654158641486.3787,64824399222700.6,2397885813215204.5
10.768121820287448,1.4889530117966708e+16,3.4419510463649424e+16,6241857197298466.0,1.0715695729913536e+16,459870674174.9726,1726311472989.8943,67652213578411.79,2502589022745111.5
11.083484256693197,1.5086642270343104e+16,3.495226669660032e+16,6324488811997792.0,1.0857553392100516e+16,479721088587.80865,1800828238401.0857,70572688929055.88,2610728983902881.5
11.405153941827061,1.5284031758971582e+16,3.54892448781307e+16,6407236689174526.0,1.099961064786014e+16,500218343735.48114,1877773199392.7778,73588344883174.83,2722399445698133.5
11.733257020663602,1.5481710161044458e+16,3.603056854465329e+16,6490105682117429.0,1.1141875829070126e+16,521379986161.637,1957212225046.9172,76701764103284.86,2837696516106785.0
12.067922161076874,1.5679687969888072e+16,3.657636138683185e+16,6573100189746485.0,1.1284356487571646e+16,543223999046.0547,2039212823587.6206,79915593551961.11,2956718709251096.5
12.409280604298411,1.5877974633169742e+16,3.71267473805288e+16,6656224172629861.0,1.1427059422666234e+16,565768810786.3822,2123844174598.4675,83232545756981.11,3079566993320595.5
12.75746621638438,1.6076578588037572e+16,3.7681850911943416e+16,6739481167714722.0,1.1569990706405052e+16,589033303707.1953,2211177161717.8506,86655400095284.72,3206344839225335.0
13.112615540712067,1.6275507293477606e+16,3.824179689754269e+16,6822874301891792.0,1.17131557068757e+16,613036822894.7189,2301284405806.165,90187004095507.81,3337158269973401.0
13.474867851526309,1.647476726014601e+16,3.880671089932667e+16,6906406304501368.0,1.1856559109672004e+16,637799185155.6455,2394240298578.918,93830274758863.4,3472115910764676.0
13.844365208556836,1.6674364077909928e+16,3.9376719235919096e+16,6990079518878703.0,1.2000204937714452e+16,663340688098.4849,2490121036699.8633,97588199898135.84,3611329039793089.5
14.221252512727972,1.6874302441308072e+16,3.995194908992879e+16,7073895913027373.0,1.2144096569573628e+16,689682119335.871,2589004656328.3643,101463839494564.92,3754911639749523.0
14.605677562982532,1.7074586173123366e+16,4.053252861198395e+16,7157857089501233.0,1.2288236756435148e+16,716844765806.3488,2690971068115.394,105460327072398.78,3902980450017884.5
14.997791114242183,1.7275218246243424e+16,4.111858702180743e+16,7241964294568516.0,1.2432627637832082e+16,744850423214.136,2796102092642.397,109580871090896.62,4055655019556711.5
15.397746936527026,1.747620080396828e+16,4.171025470666756e+16,7326218426725109.0,1.2577270756259934e+16,773721405585.3385,2904481496297.521,113828756353560.14,4213057760458763.0
15.805701875257567,1.767753517891211e+16,4.2307663317508776e+16,7410620044618348.0,1.2722167070780098e+16,803480554939.1886,3016195027583.7305,118207345434384.12,4375314002181257.5
16.221815912762718,1.7879221910633478e+16,4.291094586304402e+16,7495169374437758.0,1.2867316969707694e+16,834151251072.8503,3131330453853.2764,122720080120910.2,4542552046439211.0
16.64625223101797,1.8081260762116628e+16,4.3520236802062344e+16,7579866316824351.0,1.3012720282473018e+16,865757421458.3057,3249977598463.1562,127370482873869.75,4714903222754573.0
17.079177275638333,1.828365073521874e+16,4.4135672134189944e+16,7664710453346052.0,1.3158376290738434e+16,898323551249.9835,3372228378346.2886,132162158303219.3,4892501944653892.0
17.5207608211511,1.8486390085186504e+16,4.47573894893189e+16,7749701052583470.0,1.3304283738845922e+16,931874693401.6487,3498176841993.0684,137098794660348.17,5075485766507191.0
17.97117603757412,1.8689476334340276e+16,4.5385528215905496e+16,7834837075866223.0,1.3450440843665054e+16,966436478891.2454,3627919207838.2324,142184165346271.4,5263995441000906.0
18.430599558325603,1.889290628501451e+16,4.602022946832212e+16,7920117182697845.0,1.3596845303906042e+16,1002035127052.3291,3761553903047.996,147422130435602.88,5458174977238044.0
18.899211549492115,1.909667603183829e+16,4.66616362934331e+16,8005539735903894.0,1.3743494308957778e+16,1038697456010.7628,3899181602702.556,152816638216120.4,5658171699458342.0
19.37719578048196,1.930078097343322e+16,4.730989371655411e+16,8091102806535798.0,1.3890384547306628e+16,1076450893225.4727,4040905269369.194,158371726743735.34,5864136306372042.0
19.864739696091597,1.950521582360104e+16,4.796514882694197e+16,8176804178560872.0,1.4037512214587804e+16,1115323486131.9834,4186830193061.544,164091525412696.03,6076222931100388.0
20.36203449001343,1.970997462206764e+16,4.862755086295382e+16,8262641353366295.0,1.4184873021317598e+16,1155343912887.6228,4337064031580.555,169980256540839.47,6294589201717021.0
20.869275179813698,1.991505074484671e+16,4.929725129700077e+16,8348611554103734.0,1.4332462200352196e+16,1196541493217.2988,4491716851233.178,176042236969748.38,6519396302383921.0
21.38666068340997,2.0120436914282108e+16,4.9974403920419e+16,8434711729899108.0,1.4480274514114554e+16,1238946199358.8325,4650901167924.898,182281879679656.1,6750809035076262.0
21.91439389707817,2.032612520882335e+16,5.065916492836978e+16,8520938559950663.0,1.4628304261629842e+16,1282588667106.8835,4814731988622.593,188703695418955.75,6988995881891183.0
22.452681775019734,2.0532107072586116e+16,5.1351693004872424e+16,8607288457536863.0,1.4776545285405966e+16,1327500206954.6987,4983326853184.773,195312294348204.7,7234129067935215.0
23.00173541052013,2.073837332474682e+16,5.2052149408072696e+16,8693757573954604.0,1.4924990978194482e+16,1373712815332.9062,5156805876556.166,202112387698501.25,7486384624786340.0
23.561770118730532,2.0944914168816e+16,5.27606980558355e+16,8780341802406745.0,1.5073634289664534e+16,1421259185944.7163,5335291791324.663,209108789444152.53,7745942454526766.0
24.133005521105144,2.1151719201833696e+16,5.347750561175589e+16,8867036781857007.0,1.5222467733020794e+16,1470172721197.1323,5518909990638.561,216306417989554.28,8012986394343022.0
24.715665631527248,2.1358777423527696e+16,5.420274157166756e+16,8953837900869118.0,1.5371483391593978e+16,1520487543727.7488,5707788571482.843,223710297870238.47,8287704281691293.0
25.309978944157795,2.156607724547157e+16,5.493657835072996e+16,9040740301446034.0,1.5520672925432322e+16,1572238508026.9563,5902058378314.122,231325561468047.75,8570288020025556.0
25.91617852304095,2.1773606500279404e+16,5.567919137116982e+16,9127738882884294.0,1.5670027577918172e+16,1625461212155.5664,6101853047053.615,239157450740445.62,8860933645088323.0
26.53450209350177,2.198135245086941e+16,5.643075915074871e+16,9214828305657746.0,1.5819538182435392e+16,1680192009558.0222,6307309049439.21,247211318963972.4,9159841391763160.0
27.165192135371807,2.2189301799829784e+16,5.71914633920239e+16,9302002995343492.0,1.596919516910939e+16,1736468020971.4807,6518565737737.784,255492632491901.78,9467215761490572.0
27.808495978079243,2.239744069891473e+16,5.796148907246976e+16,9389257146602924.0,1.611898857164137e+16,1794327146431.4229,6735765389820.053,264006972526182.47,9783265590248424.0
28.464665897640828,2.2605754758699716e+16,5.8741024535522376e+16,9476584727229246.0,1.6268908034257026e+16,1853808077374.528,6959053254600.508,272760036903774.66,1.0108204117100676e+16
29.133959215593645,2.281422905842171e+16,5.953026158260521e+16,9563979482272728.0,1.6418942818788344e+16,1914950308839.8708,7188577597847.069,281757641897528.44,1.0442249053318234e+16
29.816638399905518,2.3022848156028796e+16,6.0329395566197464e+16,9651434938253284.0,1.6569081811905974e+16,1977794151769.7234,7424489748364.534,291005724031799.06,1.0785622652077458e+16
30.51297116790363,2.323159609846146e+16,6.113862548399768e+16,9738944407470994.0,1.6719313532518682e+16,2042380745411.5095,7666944144558.248,300510341913016.5,1.1138551778743612e+16
31.223230591261704,2.3440456432187824e+16,6.195815407423867e+16,9826500992422100.0,1.6869626139355146e+16,2108752069822.809,7916098381384.568,310277678075486.6,1.1501267981746938e+16
31.947695203086937,2.364941221401104e+16,6.278818791220413e+16,9914097590330004.0,1.7020007438741946e+16,2176950958481.506,8172113257696.622,320314040842722.56,1.1874007564062094e+16
32.686649107148675,2.3858446022168348e+16,6.362893750799869e+16,1.0001726897797684e+16,1.7170444892591158e+16,2247021111003.597,8435152823994.079,330625866204692.94,1.225701165530172e+16
33.44038208929165,2.4067539967736144e+16,6.44806174056198e+16,1.0089381415589374e+16,1.7320925626608614e+16,2319007105971.444,8705384430588.158,341219719711361.9,1.2650526284437794e+16
34.20918973107749,2.427667570635908e+16,6.53434462833797e+16,1.0177053453546968e+16,1.7471436438734808e+16,2392954413875.6,8982978776193.0,352102298383006.3,1.3054802453165776e+16
34.993373525699035,2.4485834450313896e+16,6.621764705572184e+16,1.026473513564767e+16,1.7621963807827124e+16,2468909410173.8276,9268109956957.31,363280432637809.56,1.3470096209928206e+16
35.793240996213015,2.469499698092147e+16,6.71034469764799e+16,1.035241840520715e+16,1.7772493902592584e+16,2546919388471.1113,9560955515950.584,374761088237312.56,1.3896668724616988e+16
36.60910581613728,2.4904143661317536e+16,6.800107774362151e+16,1.044009503023329e+16,1.7923012590778506e+16,2627032573824.9404,9861696493119.592,386551368250339.56,1.4334786363974896e+16
37.44128793246003,2.511325444959112e+16,6.891077560552078e+16,1.052775660893357e+16,1.8073505448628136e+16,2709298136180.71,10170517475734.137,398658515036082.75,1.4784720767719902e+16
38.29011369110923,2.5322308912297852e+16,6.983278146880136e+16,1.0615394575380582e+16,1.822395777060568e+16,2793766203942.2285,10487606649339.676,411089912247111.8,1.524674892541682e+16
39.15591596493141,2.5531286238355116e+16,7.076734100779294e+16,1.070300020533656e+16,1.8374354579396724e+16,2880487877682.9277,10813155849239.068,423853086853101.0,1.5721153254124612e+16
40.03903428423004,2.5740165253323188e+16,7.1714704775640776e+16,1.079056462224045e+16,1.852468063618568e+16,2969515244003.8535,11147360612524.896,436955711186166.7,1.6208221676848676e+16
40.93981496991464,2.5948924434076764e+16,7.26751283171097e+16,1.08780788033582e+16,1.8674920451214816e+16,3060901389544.78,11490420230687.902,450405605008752.75,1.6708247701830682e+16
