t(s),Total solute volume 1,Total retention volume 1,Total 1 volume 1,Total 2 volume 1,Total 3 volume 1,Total 4 volume 1,Total 5 volume 1,Total 6 volume 1
0.1,898666397951953.1,1036126891881881.2,66325422320955.914,71135071608968.8,0.0,0.0,0.0,0.0
0.202,1313284011864520.8,1595738155263224.0,96925975064622.66,103954652201041.17,155035726045.41553,282318471589.7371,3777651603773.2524,77358510331632.31
0.30604000000000003,1601742766442748.5,2047703918414212.5,118215464500344.95,126787968831249.39,381917197334.9536,695509950390.9406,9306553207504.65,190573738284639.53
0.41216080000000005,1825280576860283.8,2451399853145335.5,134713510675639.42,144482386215283.84,659301218633.6843,1200729381120.565,16066933951255.729,328996414843121.7
0.5204040160000001,2007645659704445.0,2828593618378417.0,148172833518185.06,158917724414179.38,976516981684.37,1778560801072.6125,23799004392298.32,487303318566556.56
0.6308120963200001,2161048000744916.2,3189924994453485.5,159494582183437.06,171060480255543.84,1327028054752.854,2417114505483.54,32343681578915.805,662234107130437.4
0.7434283382464002,2292777722482629.0,3541475842588874.5,169216798881484.84,181487712581199.9,1706416332747.6277,3108356934483.1045,41593480145202.46,851585355231129.2
0.8582969050113283,2407610135863819.0,3887089630915292.5,177691921977248.3,190577417151783.28,2111520252286.6108,3846541930421.024,51471521553682.73,1053780572186059.0
0.9754628431115548,2508876384337783.0,4229373883108797.5,185165804099708.12,198593274828118.72,2539993884237.0605,4627408181563.426,61920795459070.11,1267650222318318.2
1.094972099973786,2599008140375467.5,4570195143121124.0,191817913073910.25,205727767711310.44,2990054029540.044,5447718902697.98,72898000418561.6,1492305548609647.8
1.2168715419732616,2679842354170322.5,4910947750271927.0,197783823678064.47,212126301910553.5,3460323228141.225,6304976107357.497,84369720738453.67,1727060250439039.0
1.3412089728127268,2752804340247601.0,5252710622757358.0,203168730218111.2,217901699994615.66,3949726522190.7905,7197232726277.191,96309912555281.48,1971378980493276.2
1.4680331522689813,2819024029672261.5,5596343981129693.0,208056026437704.7,223143403081962.56,4457420528202.11,8122963534585.143,108698176806929.36,2224841961068049.0
1.597393815314361,2879413119830831.5,5942551770725746.0,212512999501972.38,227923577729037.72,4982743005040.463,9080973384623.684,121518531370537.02,2487119825903698.0
1.729341691620648,2934718153777597.0,6291923470919362.0,216594747480200.8,232301317492847.9,5525175992305.934,10070330138603.326,134758513695242.48,2757955232342562.5
1.863928525453061,2985558148938142.0,6644962984111128.0,220346956505041.9,236325621478440.0,6084318251032.005,11090314532479.867,148408509982096.44,3037149114423894.5
2.001207095962122,3032451954329417.0,7002109134250364.0,223807919852319.94,240037559834157.66,6659864266471.688,12140381983524.152,162461244175784.6,3324550209808696.0
2.1412312378813647,3075838573133144.5,7363750549252851.0,227010037833836.84,243471882410564.88,7251587992717.448,13220133028600.625,176911382439059.0,3620046952414923.5
2.284055862638992,3116092542752249.0,7730236684817590.0,229980952911293.03,246658236188204.75,7859330094744.648,14329290128305.68,191755222805325.1,3923561109937463.5
2.4297369798917723,3153535764453749.5,8101886136016149.0,232744422774515.0,249622101667904.3,8482987815984.507,15467679250144.29,206990448777144.1,4235042731276710.0
2.578331719489608,3188446732662912.5,8478993003789905.0,235321001502815.6,252385523427186.97,9122506847435.7,16635215095132.637,222615931675767.88,4554466092578661.0
2.7298983538794,3221067826892933.5,8861831841446194.0,237728577740591.88,254967687322168.22,9777874743404.031,17831889139949.734,238631570664480.1,4881826414942653.0
2.884496320956988,3251611138171704.5,9250661547871336.0,239982804712521.2,257385381685704.84,10449115546785.543,19057759881210.67,255038162237890.66,5217137185635482.0
3.0421862473761276,3280263171751611.5,9645728468227960.0,242097447303656.06,259653369576326.44,11136285370489.164,20312944820731.66,271837293007181.28,5560427956397972.0
3.2030299723236504,3307188677599999.5,1.004726889060071e+16,244084664765999.34,261784691985537.34,11839468742035.861,21597613840660.84,289031251083152.06,5911742522583339.0
3.3670905717701234,3332533796374964.5,1.0455511076815352e+16,245955242904964.34,263790916861495.75,12558775562687.137,22911983698000.98,306622952438088.3,6271137408975126.0
3.5344323832055258,3356428662790939.5,1.0870676930178538e+16,247718786218885.56,265682345181700.78,13294338565391.934,24256313427994.516,324615879429544.94,6638680604564073.0
3.7051210308696363,3378989574915224.0,1.1292983377453806e+16,249383878002384.12,267468182666395.8,14046311180621.904,25630900490939.293,343014029272583.94,7014450500925649.0
3.879223451487029,3400320813307921.0,1.172264352390971e+16,250958214606662.1,269156683774882.2,14814865738015.496,27036077531313.926,361821870706040.7,7398534998244879.0
4.0568079205167695,3420516175515192.0,1.2159867626681668e+16,252448718691676.22,270755273170271.84,15600191946240.053,28472209644457.098,381044307451246.4,7791030750262580.0
4.237944078927105,3439660277522170.5,1.2604863921569196e+16,253861635278921.75,272270648737631.1,16402495604718.555,29939692066500.434,400686647335268.1,8192042525023981.0
4.422702960505647,3457829663157735.5,1.305783933077862e+16,255202613630246.8,273708869400314.34,17221997509659.863,31438948219254.914,420754576164854.5,8601682662696580.0
4.61115701971576,3475093754264123.5,1.3519000073338028e+16,256476777374437.0,275075430331840.2,18058932523764.23,32970428054370.008,441254135606120.0,9020070615183360.0
4.803380160110075,3491515668085809.5,1.3988552195476354e+16,257688784834004.78,276375327657336.9,18913548784482.746,34534606651107.914,462191704459105.4,9447332555004498.0
4.9994477633122765,3507152923347533.0,1.4466702034830718e+16,258842881136771.6,277613114344043.1,19786107030113.41,36131983030093.35,483573982823647.5,9883601043118506.0
5.199436718578522,3522058052555327.5,1.4953656629670086e+16,259942943406295.34,278792948668761.7,20676880026562.926,37763079151850.69,505407978739332.75,1.0329014747121968e+16
5.403425452950093,3536279134922798.0,1.5449624082225532e+16,260992520094116.1,279918636402318.72,21586152080470.227,39428439074167.24,527700996952189.8,1.0783718202699438e+16
5.611493962009095,3549860261817948.0,1.595481388355398e+16,261994865331714.78,280993667652589.0,22514218626728.01,41128628246574.055,550460629517750.8,1.1247861612360668e+16
5.823723841249277,3562841944605329.5,1.6469437206041036e+16,262952969031013.3,282021249147756.7,23461385880347.348,42864232923718.97,573694747996698.0,1.1721600676456174e+16
6.040198318074262,3575261473120951.0,1.6993707168586186e+16,263869583341349.72,283004332611850.94,24427970544186.21,44635859682271.61,597411497037596.2,1.2205096452247996e+16
6.261002284435747,3587153231682793.5,1.7527839078660742e+16,264747245972411.1,283945639778957.0,25414299565359.625,46444135028365.266,621619289172975.6,1.2698515237459906e+16
6.486222330124463,3598548978446542.0,1.8072050654734924e+16,265588300811877.88,284847684505964.0,26420709934229.12,48289705084548.83,646326800681225.1,1.3202028475270508e+16
6.715946776726952,3609478093015841.5,1.862656223200508e+16,266394916200120.03,285712792372481.3,27447548520768.203,50173235346858.16,671542968388791.6,1.3715812678160226e+16
6.950265712261491,3619967796472071.5,1.919159695389208e+16,267169101169333.16,286543118097559.0,28495171943849.973,52095410503987.41,697276987305439.0,1.4240049368399852e+16
7.18927102650672,3630043347369517.5,1.9767380951396636e+16,267912719908826.4,287340661053943.0,29563946469638.2,54056934311694.93,723538309000760.6,1.4774925033282276e+16
7.433056447036854,3639728216726483.0,2.0354143512087748e+16,268627504680106.44,288107279119709.1,30654247935790.832,56058529516546.28,750336640643200.6,1.5320631093465904e+16
7.681717575977592,3649044244609548.0,2.09521172402342e+16,269315067373470.88,288844701072893.2,31766461698639.12,58100937823922.75,777681944633752.2,1.587736388302199e+16
7.935351927497144,3658011780545431.5,2.1561538209374612e+16,269976909871002.84,289554537705968.1,32900982600883.65,60184919905920.37,805584438775902.0,1.6445324639969516e+16
8.194058966047088,3666649809687684.5,2.2182646108436532e+16,270614433358210.44,290238291812726.3,34058214957675.164,62311255445354.79,834054596931326.0,1.7024719506243518e+16
8.45794014536803,3674976066405585.0,2.2815684382362956e+16,271228946707376.2,290897367179552.75,35238572559225.35,64480743212604.586,863103150117666.5,1.7615759536180936e+16
8.72709894827539,3683007136742020.0,2.3460900368075184e+16,271821674039384.56,291533076695608.44,36442478688328.07,66694201172451.23,892741088010506.6,1.821866071272694e+16
9.0016409272409,3690758550998800.5,2.411854542649075e+16,272393761556913.03,292146649681536.44,37670366151376.266,68952466618453.02,922979660816704.8,1.883364397066698e+16
9.281673745785717,3698244867546892.5,2.4788875071221668e+16,272946283729990.0,292739238523569.2,38922677321635.81,71256396332714.44,953830381490579.1,1.9460935226276244e+16
9.567307220701432,3705479748821335.0,2.5472149094501588e+16,273480248904738.06,293311924688995.44,40199864193685.06,73606866769184.8,985305028268102.6,2.0100765412855604e+16
9.85865336511546,3712476030341572.0,2.6168631690819024e+16,273996604397376.03,293865724189562.3,41502388448061.91,76004774258869.08,1017415647497604.6,2.075337052168606e+16
10.155826432417769,3719245783496085.5,2.6878591578678268e+16,274496241127989.2,294401592551260.4,42830721525272.8,78451035235537.61,1050174556748200.8,2.1418991647993876e+16
10.458942961066125,3725800372741379.0,2.760230212085826e+16,274979997842059.22,294920429341993.7,44185344708413.68,80946586480708.31,1083594348179657.1,2.2097875041564056e+16
10.768121820287448,3732150507789036.0,2.8340041443498828e+16,275448664962095.5,295423082302499.25,45566749213741.02,83492385386831.83,1117687892159570.5,2.2790272161685056e+16
11.083484256693197,3738306291287810.5,2.909209255430179e+16,275902988106773.38,295910351120695.3,46975436288602.22,86089410237753.02,1152468341115540.2,2.3496439736144584e+16
11.405153941827061,3744277262449921.5,2.9858743460108052e+16,276343671310743.9,296382990884966.75,48411917316200.29,88738660505640.11,1187949133611765.8,2.4216639824028836e+16
11.733257020663602,3750072437019954.5,3.0640287284078596e+16,276771379974506.12,296841715247959.8,49876713926725.59,91441157163685.62,1224143998640824.0,2.4951139882104896e+16
12.067922161076874,3755700343940719.5,3.143702238268595e+16,277186743570509.0,297287199328906.44,51370358114433.43,94197943013977.64,1261066960122800.0,2.5700212834594572e+16
12.409280604298411,3761169059031556.5,3.2249252462699576e+16,277590358128750.88,297720082379485.0,52893392360290.58,97010083030017.3,1298732341604943.0,2.6464137146164536e+16
12.75746621638438,3766486235960550.5,3.307728669833065e+16,277982788522664.2,298140970235454.25,54446369759853.19,99878664713446.77,1337154771156149.0,2.7243196897982536e+16
13.112615540712067,3771659134762283.5,3.392143984868463e+16,278364570573842.6,298550437574017.3,56029854156068.96,102804798464603.05,1376349186451347.2,2.803768186670247e+16
13.474867851526309,3776694648126143.5,3.4782032375656092e+16,278736212992235.06,298949029994705.2,57644420276726.14,105789617966582.05,1416330840041773.8,2.8847887606257956e+16
13.844365208556836,3781599325657103.5,3.5659390562386564e+16,279098199166694.78,299337265939767.5,59290653876297.734,108834280582547.36,1457115304807747.8,2.9674115532356476e+16
14.221252512727972,3786379396290163.0,3.6553846632395576e+16,279450988819259.7,299715638468421.6,60969151881950.2,111939967766063.48,1498718479591259.0,3.0516673009578484e+16
14.605677562982532,3791040789021465.0,3.746573886948378e+16,279795019535196.5,300084616897839.6,62680522543506.15,115107885484279.05,1541156595006178.5,3.1375873440995404e+16
14.997791114242183,3795589152102668.0,3.839541173850011e+16,280130708179628.9,300444648322513.5,64425385587167.555,118339264653819.81,1584446219424569.2,3.2252036360229636e+16
15.397746936527026,3800029870830996.5,3.93432160070525e+16,280458452210518.34,300796159022445.56,66204372372819.234,121635361589289.84,1628604265137807.2,3.3145487525888628e+16
15.805701875257567,3804368084054392.0,4.030950886824187e+16,280778630896818.22,301139555769632.06,68018126054745.8,124997458464305.08,1673647994691964.5,3.4056559018310056e+16
16.221815912762718,3808608699499814.0,4.129465406448241e+16,281091606449761.2,301475227041397.1,69867301745606.95,128426863785021.34,1719595027396929.2,3.49855893385638e+16
16.64625223101797,3812756408022353.0,4.229902201247437e+16,281397725074511.38,301803544148298.25,71752566683525.27,131924912876130.08,1766463346009442.2,3.5932923509660116e+16
17.079177275638333,3816815696863955.5,4.332298992938669e+16,281697317948713.4,302124862283637.25,73674600402145.3,135492968379331.28,1814271303590312.5,3.689891317991858e+16
17.5207608211511,3820790862002102.0,4.436694196029861e+16,281990702133870.3,302439521500935.6,75634094903536.42,139132420764312.4,1863037630536436.2,3.788391672845741e+16
17.97117603757412,3824686019661460.0,4.543126930694996e+16,282278181424967.9,302747847625154.5,77631754833810.25,142844688852274.78,1912781441788656.2,3.888829937276362e+16
18.430599558325603,3828505117055188.5,4.651637035784481e+16,282560047143213.44,303050153102935.6,79668297661333.31,146631220352074.03,1963522244216458.5,3.991243327831365e+16
18.899211549492115,3832251942416263.0,4.762265081974502e+16,282836578876396.9,303346737796642.7,81744453857414.61,150493492409058.66,2015279944181109.0,4.0956697670208216e+16
19.37719578048196,3835930134374099.5,4.875052385059149e+16,283108045170930.3,303637889726582.06,83860967079357.23,154433012166697.56,2068074855278743.0,4.202147894679499e+16
19.864739696091597,3839543190726888.5,4.990041019388533e+16,283374704179274.56,303923885765385.25,86018594355758.97,158451317341117.9,2121927706265267.2,4.310717079525169e+16
20.36203449001343,3843094476655606.5,5.107273831455966e+16,283636804266177.7,304204992288202.6,88218106273948.5,162549976808667.25,2176859649165198.2,4.4214174309101816e+16
20.869275179813698,3846587232421904.5,5.226794453636424e+16,283894584576802.8,304481465782034.56,90460287169451.36,166730591206652.2,2232892267566571.0,4.5342898107640856e+16
21.38666068340997,3850024580588275.0,5.348647318079235e+16,284148275569612.8,304753553417260.75,92745935317370.66,170994793547384.1,2290047585104357.5,4.649375845724799e+16
21.91439389707817,3853409532796020.0,5.472877670756519e+16,284398099516615.44,305021493584147.8,95075863125573.9,175344249845720.75,2348348074135028.5,4.766717939456203e+16
22.452681775019734,3856744996133235.5,5.599531585669569e+16,284644270973342.0,305285516396928.75,97450897329573.94,179780659760248.8,2407816664604846.0,4.886359285149751e+16
23.00173541052013,3860033779122745.0,5.728655979214456e+16,284886997220785.75,305545844167770.1,99871879188987.28,184305757248307.6,2468476753114926.0,5.008343878208086e+16
23.561770118730532,3863278597357161.0,5.860298624708282e+16,285126478681291.9,305802691852834.56,102339664685457.94,188921311235043.84,2530352212186076.0,5.132716529108489e+16
24.133005521105144,3866482078806348.0,5.994508167077178e+16,285362909310276.0,306056267472397.6,104855124721927.06,193629126296690.4,2593467399726452.5,5.259522876443775e+16
24.715665631527248,3869646768820481.0,6.1313341377066456e+16,285596476965463.06,306306772506863.94,107419145323126.2,198431043358299.4,2657847168705548.5,5.388809400138661e+16
25.309978944157795,3872775134849902.0,6.270826969454877e+16,285827363755239.8,306554402270379.94,110032627837171.66,203328940406118.94,2723516877037880.0,5.520623434839211e+16
25.91617852304095,3875869570901559.5,6.413038011829585e+16,286055746367555.94,306799346263591.6,112696489138131.08,208324733214878.3,2790502397679876.0,5.655013183473022e+16
26.53450209350177,3878932401750294.5,6.558019546327936e+16,286281796380732.56,307041788506984.75,115411661829428.47,213420376090187.8,2858830128943860.0,5.792027730977779e+16
27.165192135371807,3881965886921528.0,6.705824801939885e+16,286505680557410.5,307281907856145.94,118179094447954.83,218617862626308.12,2928527005032795.5,5.931717058195663e+16
27.808495978079243,3884972224461122.0,6.8565079708141256e+16,286727561122773.0,307519878300173.7,120999751668738.97,223919226479554.72,2999620506799891.0,6.074132055930897e+16
28.464665897640828,3887953554506655.0,7.010124224086162e+16,286947596028122.4,307755869244357.5,123874614510031.72,229326542157565.34,3072138672737113.5,6.219324539167772e+16
29.133959215593645,3890911962673431.5,7.166729727867491e+16,287165939200786.06,307990045778209.44,126804680538655.33,234841925824728.06,3146110110196757.0,6.367347261446244e+16
29.816638399905518,3893849483267595.5,7.326381659394734e+16,287382740781258.4,308222568929804.7,129790964075455.77,240467536124028.78,3221564006850508.5,6.5182539293918616e+16
30.51297116790363,3896768102337785.0,7.489138223337058e+16,287598147348419.7,308453595907329.6,132834496400692.83,246205575015600.8,3298530142390422.5,6.672099217397025e+16
31.223230591261704,3899669760575981.0,7.6550586682605e+16,287812302133634.3,308683280328703.94,135936325959200.9,252058288632262.9,3377038900476340.0,6.828938782449883e+16
31.947695203086937,3902556356077255.5,7.82420330324687e+16,288025345224438.25,308911772440044.6,139097518565139.69,258027968152344.1,3457121280934494.5,6.988829279107493e+16
32.686649107148675,3905429746967898.5,7.99663351466492e+16,288237413758495.56,309139219323680.94,142319157606146.56,264116950690097.88,3538808912212103.5,7.151828374609081e+16
33.44038208929165,3908291753910193.5,8.172411783091371e+16,288448642108466.25,309365765096436.6,145602344246704.97,270327620204008.4,3622134064092876.0,7.317994764125506e+16
34.20918973107749,3911144162491915.0,8.351601700378646e+16,288659162058364.75,309591551098764.94,148948197630519.9,276662408423301.62,3707129660678482.0,7.487388186140517e+16
34.993373525699035,3913988725507937.0,8.534267986866371e+16,288869102971946.2,309816716075356.8,152357855081696.06,283123795792997.1,3793829293641150.0,7.660069437959262e+16
35.793240996213015,3916827165140898.5,8.720476508732555e+16,289078591953655.06,310041396347754.2,155832472304498.47,289714312437805.5,3882267235752642.5,7.836100391338838e+16
36.60910581613728,3919661175047319.0,8.910294295481226e+16,289287754002582.56,310265725979476.9,159373223581472.5,296436539145223.1,3972478454695174.0,8.015544008236091e+16
37.44128793246003,3922492422355197.5,9.103789557561627e+16,289496712159905.0,310489836934145.94,162981301969679.06,303293108368160.8,4064498627159504.5,8.198464356666944e+16
38.29011369110923,3925322549578814.5,9.30103170411491e+16,289705587650197.4,310713859227053.2,166657919494806.88,310286705247439.5,4158364153236156.5,8.384926626671445e+16
39.15591596493141,3928153176455871.5,9.502091360842838e+16,289914500017029.9,310937921070579.6,170404307342907.44,317420068654525.0,4254112171105350.0,8.5749971463782e+16
40.03903428423004,3930985901711983.0,9.707040387993528e+16,290123567253187.2,311162149013870.56,174221716049472.84,324695992254843.3,4351780572031556.5,8.768743398162048e+16
40.93981496991464,3933822304757131.5,9.915951898458232e+16,290332905925881.1,311386668077116.94,178111415685600.22,332117325592052.1,4451408015668665.5,8.96623403488758e+16
41.85861126931294,3936663947318396.0,1.0128900275972997e+17,290542631297247.56,311611601880797.94,182074696040936.72,339686975193628.06,4553033945682044.0,9.167538896231715e+16
42.7957834946992,3939512375013072.0,1.0345961193418702e+17,290752857440449.0,311837072770199.0,186112866803118.47,347407905698156.25,4656698605693479.0,9.372729025076845e+16
43.751699164593184,3942369118865824.0,1.0567211631212118e+17,290963697351655.44,312063201935512.8,190227257733385.38,355283141004693.0,4762443055555590.0,9.581876683967453e+16
