t(s),Total solute volume 1,Total retention volume 1,Total 1 volume 1,Total 2 volume 1,Total 3 volume 1,Total 4 volume 1,Total 5 volume 1,Total 6 volume 1
0.1,1389665646485961.5,7115728075414663.0,1732020487244934.5,3994041941683769.0,0.0,0.0,0.0,0.004426733051481951
0.202,2047965396052009.0,1.049434065300016e+16,2552498477971769.0,5886080817132937.0,2562418101.4161763,15069297969.754154,769080073399.3496,7009250053978.33
0.30604000000000003,2558802645870729.0,1.3123631472647352e+16,3189184804836302.0,7354286230367035.0,6467278822.341438,38047933810.17111,1992384091348.583,19320892269302.54
0.41216080000000005,2992090577095359.0,1.5360564007535998e+16,3729216844262135.0,8599605259220166.0,11457440288.47434,67416092660.918884,3570676732936.4707,36001776692443.47
0.5204040160000001,3376782978565667.5,1.7352868836597758e+16,4208681425403351.0,9705254956504484.0,17414229061.34062,102474513831.69524,5461743105535.959,56567844275826.305
0.6308120963200001,3727724767570692.0,1.9176260388448876e+16,4646080643519136.0,1.071390145530068e+16,24272692983.425323,142840614664.7044,7643328654004.319,80743080096725.67
0.7434283382464002,4053644005464429.0,2.0875248592171948e+16,5052292793741379.0,1.1650630250001172e+16,31994681535.695473,188289704478.14288,10102527995604.305,108358730583361.53
0.8582969050113283,4360165634604459.0,2.247852219092955e+16,5434328571165765.0,1.2531608086942174e+16,40557644311.780846,238688969827.5625,12831717955194.535,139308933647822.08
0.9754628431115548,4651157734737008.0,2.4005818159454156e+16,5797008989839192.0,1.336795227767093e+16,49949082912.092026,293964790105.30914,15826627647688.928,173528615686314.9
1.094972099973786,4929411362148482.0,2.547138942235415e+16,6143812706342000.0,1.4167684640680818e+16,60163466351.38121,354084569649.6513,19085288790119.508,210981176356728.75
1.2168715419732616,5197016487487534.0,2.6885921724011376e+16,6477344573182107.0,1.493681199214804e+16,71200370704.85216,419045781822.3168,22607410489547.77,251651014551637.94
1.3412089728127268,5455584835168174.0,2.8257669434743376e+16,6799613376612145.0,1.5679966612913764e+16,83063287449.75241,488868951703.1228,26393981909425.637,295538695900720.56
1.4680331522689813,5706389408707403.0,2.9593166438949016e+16,7112205735230800.0,1.6400807260750396e+16,95758824080.4231,563592949021.3241,30447007151886.594,342657675335432.44
1.597393815314361,5950455806545445.0,3.0897691221427476e+16,7416399912233876.0,1.7102281622711874e+16,109296148084.68466,643271714216.6257,34769321546079.348,393031990527887.1
1.729341691620648,6188624210860618.0,3.2175582474106748e+16,7713243075700004.0,1.7786804478199418e+16,123686588871.18701,727971914603.7996,39364460481676.48,446694590361553.94
1.863928525453061,6421592779486020.0,3.3430459945173668e+16,8003605380473055.0,1.8456382412356572e+16,138943346105.84427,817771227106.0236,44236563493517.94,503686094791297.2
2.001207095962122,6649948824419745.0,3.4665383077118796e+16,8288218827761366.0,1.91127034267071e+16,155081272017.12088,912757056523.993,49390302770501.3,564053857131547.2
2.1412312378813647,6874191725064527.0,3.5882967558185824e+16,8567705823246986.0,1.9757202794444144e+16,172116706515.7886,1013025564773.0308,54830829057806.32,627851244101069.4
2.284055862638992,7094750100975011.0,3.708547265316326e+16,8842600580483486.0,2.0391112416878772e+16,190067350910.20996,1118680927362.814,60563730242344.445,695137076305393.4
2.4297369798917723,7311994906163633.0,3.827486778086634e+16,9113365441094052.0,2.101549845797692e+16,208952170406.37946,1229834759352.5696,66594999380393.23,765975189321585.5
2.578331719489608,7526249567253775.0,3.9452884054304184e+16,9380403510543624.0,2.1631290482572492e+16,228791318466.91312,1346605670002.7063,72931009884619.86,840434087061179.8
2.7298983538794,7737797940520263.0,4.06210547298833e+16,9644068575462990.0,2.2239304325812068e+16,249606078040.29,1469118916750.0767,79578496229323.2,918586666863884.1
2.884496320956988,7946890633872642.0,4.1780747345309496e+16,9904672983105530.0,2.2840260263256936e+16,271418816002.0717,1597506136967.86,86544538972379.31,1000510001149023.2
3.0421862473761276,8153750085469598.0,4.293318953952222e+16,1.0162493971120792e+16,2.343479760740104e+16,294252948082.1767,1731905141460.6807,93836553199867.05,1086285164241365.4
3.2030299723236504,8358574684507315.0,4.407949000742414e+16,1.0417778803533482e+16,2.4023486551286532e+16,318132912217.56616,1872459757562.8052,101462279718395.31,1175997095708620.0
3.3670905717701234,8561542145418152.0,4.522065566383126e+16,1.0670748976204186e+16,2.4606837866335716e+16,343084148752.17316,2019319712547.8848,109429778478771.83,1269734493533138.2
3.5344323832055258,8762812293846992.0,4.6357605821943496e+16,1.0921603689154266e+16,2.5185310909564308e+16,369133086261.0235,2172640550149.6453,117747423831258.67,1367589731910257.2
3.7051210308696363,8962529384594345.0,4.7491183997337016e+16,1.1170522735553536e+16,2.57593202856141e+16,396307132040.3764,2332583574552.3066,126423901299529.25,1469658799568893.5
3.879223451487029,9160824043769034.0,4.862216780628628e+16,1.1417668922338606e+16,2.632924142872081e+16,424634666505.70197,2499315817387.23,135468205625983.7,1576041255347977.0
4.0568079205167695,9357814906680476.0,4.975127732185914e+16,1.1663190111613406e+16,2.6895415310202904e+16,454145040892.0638,2673010024171.262,144889639891078.16,1686840198406185.5
4.237944078927105,9553610007470234.0,5.087918217224439e+16,1.1907220952628162e+16,2.745815243242071e+16,484868577769.272,2853844657316.1646,154697815547866.3,1802162250942324.8
4.422702960505647,9748307964714456.0,5.200650760593842e+16,1.2149884359464962e+16,2.8017736236333216e+16,516836573975.94653,3042003913378.513,164902653242966.94,1922117551695458.2
4.61115701971576,9941998998222592.0,5.313383970262908e+16,1.2391292778333174e+16,2.85744260238925e+16,550081305648.7347,3237677752644.1636,175514384318711.3,2046819758803821.8
4.803380160110075,1.0134765805300508e+16,5.426172987326513e+16,1.2631549279707376e+16,2.9128459476524164e+16,584636035080.0116,3441061939477.3833,186543552909902.28,2176386060848609.8
4.9994477633122765,1.0326684319327774e+16,5.539069876526042e+16,1.2870748503786328e+16,2.9680054835364164e+16,620535019182.972,3652358092133.103,198001018563473.84,2310937195107369.5
5.199436718578522,1.051782436924171e+16,5.652123966716432e+16,1.3108977482446724e+16,3.0229412796691844e+16,657813519379.6375,3871773740946.286,209897959321302.84,2450597472202391.0
5.403425452950093,1.070825025515485e+16,5.7653821490025496e+16,1.3346316356668464e+16,3.0776718166318844e+16,696507812756.8959,4099522393986.7607,222245875216093.9,2595494806460511.5
5.611493962009095,1.089802125264701e+16,5.8788891389053464e+16,1.3582839005063556e+16,3.1322141308982972e+16,736655204359.7935,4335823609409.526,235056592138109.6,2745760751408055.0
5.823723841249277,1.1087192056122664e+16,5.9926877078252056e+16,1.3818613596458116e+16,3.186583942260683e+16,778294040510.9886,4580903073846.721,248342266036953.66,2901530539913180.0
6.040198318074262,1.1275813169884992e+16,6.1068188881883944e+16,1.4053703077310772e+16,3.2407957662289736e+16,821463723061.4691,4834992686282.665,262115387427902.34,3062943128561255.0
6.261002284435747,1.146393125416816e+16,6.221322155946264e+16,1.4288165602992986e+16,3.2948630134843388e+16,866204724491.016,5098330646932.015,276388786176645.62,3230141245910027.0
6.486222330124463,1.165158943221679e+16,6.336235593512736e+16,1.4522054920520034e+16,3.3487980781373676e+16,912558603787.9766,5371161550706.662,291175636539918.8,3403271444322460.0
6.715946776726952,1.183882756355605e+16,6.451596035745771e+16,1.4755420709143468e+16,3.4026124162689656e+16,960568023047.1426,5653736484910.988,306489462442530.2,3582484155118064.0
6.950265712261491,1.2025682487815384e+16,6.567439201182835e+16,1.4988308884242866e+16,3.456316616008081e+16,1010276764732.2589,5946313130850.751,322344142973805.56,3767933746819850.5
7.18927102650672,1.2212188242822182e+16,6.683799810412617e+16,1.5220761869148772e+16,3.5099204602143292e+16,1061729749556.1049,6249155869078.871,338753918088593.5,3959778586304683.0
7.433056447036854,1.2398376260143314e+16,6.8007116931922344e+16,1.5452818838857346e+16,3.5634329826788176e+16,1114973054936.5676,6562535888033.168,355733394499745.5,4158181102690821.0
7.681717575977592,1.2584275540801482e+16,6.91820788569073e+16,1.5684515939036056e+16,3.616862518627065e+16,1170053933991.6624,6886731295848.238,373297551750490.44,4363307853818771.5
7.935351927497144,1.2769912813515698e+16,7.036320719048161e+16,1.5915886483247978e+16,3.670216750199095e+16,1227020835040.313,7222027235146.118,391461748456393.44,4575329595200354.0
8.194058966047088,1.295531267749578e+16,7.155081900278024e+16,1.6146961130924924e+16,3.7235027474902344e+16,1285923421578.979,7568716000629.76,410241728707646.44,4794421351327345.0
8.45794014536803,1.3140497731551342e+16,7.27452258640396e+16,1.6377768048283426e+16,3.7767270056584584e+16,1346812592706.9294,7927097159319.408,429653628623370.4,5020762489244824.0
8.72709894827539,1.3325488691046132e+16,7.394673452605662e+16,1.6608333054091884e+16,3.8298954785384536e+16,1409740503975.3252,8297477673285.608,449713983050349.9,5254536794306478.0
9.0016409272409,1.3510304494033706e+16,7.51556475505014e+16,1.6838679751953574e+16,3.883013609146207e+16,1474760588637.2595,8680172024744.435,470439732399307.6,5495932548039387.0
9.281673745785717,1.369496239774311e+16,7.637226388999642e+16,1.70688296505624e+16,3.9360863574100904e+16,1541927579277.4854,9075502343390.074,491848229612349.9,5745142608054898.0
9.567307220701432,1.3879478066440442e+16,7.759687942715389e+16,1.7298802273209844e+16,3.989118225423252e+16,1611297529802.07,9483798535848.31,513957247255708.4,6002364489949681.0
9.85865336511546,1.4063865651568302e+16,7.882978747613782e+16,1.752861525766754e+16,4.04211328047668e+16,1682927837769.352,9905398417141.479,536784984732292.7,6267800451147984.0
10.155826432417769,1.4248137864959978e+16,8.00712792507775e+16,1.775828444743834e+16,4.095075176101734e+16,1756877267044.571,10340647844061.229,560350075608903.56,6541657576641869.0
10.458942961066125,1.4432306045832066e+16,8.132164430279694e+16,1.7987823975253038e+16,4.148007171324623e+16,1833205970761.4302,10789900850350.758,584671595053254.0,6824147866591182.0
10.768121820287448,1.4616380222180396e+16,8.2581170933319e+16,1.821724633959188e+16,4.200912148312293e+16,1911975514574.493,11253519783601.67,609769067376169.1,7115488325749480.0
11.083484256693197,1.4800369167134418e+16,8.385014658045408e+16,1.8446562474922156e+16,4.253792628569311e+16,1993248900186.9824,11731875443775.027,635662473674559.1,7415901054685885.0
11.405153941827061,1.4984280450764806e+16,8.512885818547355e+16,1.8675781816269164e+16,4.3066507878279944e+16,2077090589138.9688,12225347223258.176,662372259570916.1,7725613342776244.0
11.733257020663602,1.5168120487786358e+16,8.641759253980523e+16,1.8904912358671024e+16,4.359488469758753e+16,2163566526841.4602,12734323248371.988,689919343045226.5,8044857762939850.0
12.067922161076874,1.5351894581551792e+16,8.771663661485142e+16,1.9133960712010836e+16,4.412307198614404e+16,2252744166842.0767,13259200522245.053,718325122355334.5,8373872268100322.0
12.409280604298411,1.5535606964691708e+16,8.902627787642418e+16,1.9362932151668444e+16,4.4651081909105944e+16,2344692495308.5,13800385068972.756,747611484041847.1,8712900289351943.0
12.75746621638438,1.5719260836720162e+16,9.034680458541363e+16,1.9591830665390684e+16,4.517892366234044e+16,2439482055715.9346,14358292078981.229,777800811013813.5,9062190835813800.0
13.112615540712067,1.5902858398893836e+16,9.167850608614464e+16,1.982065899673828e+16,4.5706603572614904e+16,2537184973725.181,14933346055516.588,808915990711431.0,9421998596156950.0
13.474867851526309,1.6086400886584994e+16,9.302167308373605e+16,2.0049418685434164e+16,4.623412519064034e+16,2637874982237.9194,15525980962181.732,840980423342118.1,9792584041790024.0
13.844365208556836,1.6269888599403934e+16,9.437659791165322e+16,2.0278110104906856e+16,4.6761489377647144e+16,2741627446616.2446,16136640371443.281,874018030186334.1,1.0174213531690898e+16
14.221252512727972,1.645332092928481e+16,9.574357479053336e+16,2.050673249729542e+16,4.728869438610645e+16,2848519390053.2954,16765777614032.629,908053261969596.2,1.0567159418873062e+16
14.605677562982532,1.6636696386729198e+16,9.712290007926618e+16,2.0735284006158468e+16,4.7815735935157576e+16,2958629519082.253,17413855929165.34,943111107297139.6,1.0971700158475546e+16
14.997791114242183,1.6820012625385018e+16,9.851487251922354e+16,2.0963761707108176e+16,4.834260728125055e+16,3072038249210.9385,18081348615504.473,979217101147752.0,1.1388120417467438e+16
15.397746936527026,1.7003266465122342e+16,9.991979347245616e+16,2.11921616365711e+16,4.88692992844684e+16,3188827730669.5317,18768739182794.125,1016397333423336.1,1.1816711185957546e+16
15.805701875257567,1.7186453913754936e+16,1.0133796715460426e+17,2.1420478818860948e+16,4.9395800470957816e+16,3309081874258.936,19476521504090.133,1054678457550792.0,1.2257769890101426e+16
16.221815912762718,1.7369570187543032e+16,1.0276970086320843e+17,2.1648707291732504e+16,4.9922097091856184e+16,3432886377287.641,20205199968516.598,1094087699132855.4,1.2711600506598032e+16
16.64625223101797,1.7552609730602988e+16,1.0421530520205029e+17,2.1876840130572704e+16,5.044817317907673e+16,3560328749585.0596,20955289634477.125,1134652864644588.2,1.3178513678769238e+16
17.079177275638333,1.7735566233338466e+16,1.0567509430210528e+17,2.210486947137294e+16,5.097401059828297e+16,3691498339579.5522,21727316383252.03,1176402350172256.0,1.3658826834215796e+16
17.5207608211511,1.791843265000026e+16,1.0714938603963997e+17,2.2332786532614556e+16,5.149958909935645e+16,3826486360429.5903,22521817072913.414,1219365150191418.5,1.415286430404397e+16
17.97117603757412,1.8101201215472652e+16,1.0863850225195394e+17,2.256058163619073e+16,5.202488636464331e+16,3965385916196.8984,23339339692492.652,1263570866381075.0,1.4660957443657524e+16
18.430599558325603,1.8283863461377896e+16,1.1014276895122235e+17,2.2788244227478548e+16,5.2549878055240104e+16,4108292028050.6704,24180443516335.723,1309049716470872.0,1.5183444755110478e+16
18.899211549492115,1.846641023158369e+16,1.1166251653686827e+17,2.3015762894666704e+16,5.307453785556406e+16,4255301660492.325,25045699258585.4,1355832543118388.5,1.572067201101623e+16
19.37719578048196,1.8648831697192216e+16,1.1319808000686171e+17,2.32431253874374e+16,5.359883751643353e+16,4406513747590.858,25935689227730.707,1403950822813679.0,1.6272992380009576e+16
19.864739696091597,1.8831117371084972e+16,1.1474979916831709e+17,2.3470318635094224e+16,5.4122746896870776e+16,4562029219219.17,26851007481167.855,1453436674808359.8,1.6840766553758412e+16
20.36203449001343,1.9013256122091396e+16,1.1631801884773445e+17,2.3697328764221492e+16,5.464623400482497e+16,4721951027282.318,27792259979719.88,1504322870066639.5,1.7424362875522912e+16
20.869275179813698,1.919523618884639e+16,1.1790308910121157e+17,2.3924141115955588e+16,5.51692650369995e+16,4886384171929.6,28760064742065.258,1556642840235900.8,1.8024157470260176e+16
21.38666068340997,1.9377045193396596e+16,1.1950536542493301e+17,2.4150740262943224e+16,5.569180441795832e+16,5055435727742.398,29755051999031.36,1610430686634550.2,1.8640534376273516e+16
21.91439389707817,1.9558670154611916e+16,1.211252089662197e+17,2.4377110026057132e+16,5.621381483867203e+16,5229214869891.284,30777864347711.098,1665721189255087.2,1.927388567840596e+16
22.452681775019734,1.9740097501456108e+16,1.2276298673541603e+17,2.4603233490935852e+16,5.673525729465889e+16,5407832900256.029,31829156905368.227,1722549815780566.8,1.9924611642778924e+16
23.00173541052013,1.992131308616591e+16,1.2441907181886486e+17,2.482909302440965e+16,5.7256091123862696e+16,5591403273503.68,32909597463100.543,1780952730612814.0,2.0593120853077092e+16
23.561770118730532,2.010230219738584e+16,1.2609384359321819e+17,2.5054670290871344e+16,5.777627404440469e+16,5780041623120.408,34019866639237.14,1840966803911066.0,2.1279830348383052e+16
24.133005521105144,2.0283049573303956e+16,1.2778768794131086e+17,2.5279946268647776e+16,5.829576219233532e+16,5973865787394.21,35160658032452.37,1902629620639976.5,2.19851657625641e+16
24.715665631527248,2.046353941482913e+16,1.2950099746981592e+17,2.5504901266423924e+16,5.881451015950893e+16,6172995835346.813,36332678374585.555,1965979489626219.8,2.2709561465217732e+16
25.309978944157795,2.0643755398850756e+16,1.312341717288925e+17,2.5729514939768804e+16,5.933247103169234e+16,6377554092614.122,37536647683164.625,2031055452623297.8,2.3453460704181452e+16
25.91617852304095,2.0823680691617424e+16,1.329876174340237e+17,2.5953766307810268e+16,5.984959642701648e+16,6587665167276.431,38773299413637.9,2097897293384495.8,2.4217315749614252e+16
26.53450209350177,2.1003297962269596e+16,1.3476174869023494e+17,2.617763377010163e+16,6.03658365348715e+16,6803455975640.598,40043380611330.28,2166545546744340.5,2.500158803966085e+16
27.165192135371807,2.1182589396560468e+16,1.365569872188733e+17,2.6401095123722612e+16,6.08811401553413e+16,7025055767978.558,41347652063146.37,2237041507709347.0,2.5806748327708428e+16
27.808495978079243,2.136153671079513e+16,1.3837376258712646e+17,2.66241275806525e+16,6.139545473926597e+16,7252596154227.832,42686888449055.57,2309427240559312.5,2.6633276831250212e+16
28.464665897640828,2.1540121166017936e+16,1.4021251244044374e+17,2.684670778545305e+16,6.190872642901817e+16,7486211129661.906,44061878493404.57,2383745587960847.0,2.7481663382370604e+16
29.133959215593645,2.1718323582476108e+16,1.4207368273802496e+17,2.7068811833294652e+16,6.2420900100072264e+16,7726037100540.088,45473425116113.86,2460040180095487.5,2.8352407579869812e+16
29.816638399905518,2.1896124354384324e+16,1.4395772799152962e+17,2.7290415288358864e+16,6.293191940343984e+16,7972212909748.694,46922345583827.73,2538355443805114.5,2.9246018943048004e+16
30.51297116790363,2.207350346501552e+16,1.4586511150715734e+17,2.751149320264668e+16,6.344172680904163e+16,8224879862447.578,48409471661100.01,2618736611758200.5,3.016301706717179e+16
31.223230591261704,2.225044050213944e+16,1.4779630563124208e+17,2.7732020135220628e+16,6.395026365008007e+16,8484181751738.433,49935649761711.76,2701229731640887.0,3.1103931780647904e+16
31.947695203086937,2.2426914673830464e+16,1.4975179199950483e+17,2.795197017190675e+16,6.4457470168471544e+16,8750264884373.557,51501741100231.51,2785881675377643.0,3.206930330393382e+16
32.686649107148675,2.260290482466308e+16,1.5173206179009078e+17,2.8171316945480028e+16,6.4963285561394296e+16,9023278106526.895,53108621843944.3,2872740148386948.5,3.3059682410216028e+16
33.44038208929165,2.2778389452312436e+16,1.5373761598053235e+17,2.8390033656354876e+16,6.54676480290004e+16,9303372829651.092,54757183265291.445,2961853698878142.0,3.40756305878916e+16
34.20918973107749,2.2953346724576612e+16,1.557689656087557e+17,2.8608093093800508e+16,6.597049482333844e+16,9590703056447.867,56448331894979.06,3053271727196513.5,3.5117720204892236e+16
34.993373525699035,2.312775449683313e+16,1.5782663203825782e+17,2.882546765769835e+16,6.647176229852566e+16,9885425406981.826,58182989675933.13,3147044495224269.5,3.618653467489335e+16
35.793240996213015,2.3301590329943296e+16,1.5991114722757178e+17,2.90421293808571e+16,6.697138596220721e+16,10187699144970.334,59962094118293.81,3243223135846149.0,3.728266862545496e+16
36.60910581613728,2.3474831508614356e+16,1.6202305400413792e+17,2.9258049951898504e+16,6.746930052832944e+16,10497686204286.38,61786598455663.49,3341859662489185.5,3.840672806814648e+16
37.44128793246003,2.364745506022817e+16,1.641629063426858e+17,2.9473200738724692e+16,6.796543997125677e+16,10815551215713.553,63657471802840.664,3443006978747081.0,3.955933057071046e+16
38.29011369110923,2.381943777414399e+16,1.6633126964824595e+17,2.968755281257627e+16,6.845973758124859e+16,11141461533996.438,65575699315293.06,3546718888100596.5,4.074110543132716e+16
