t(s),Total solute volume 1,Total retention volume 1,Total 1 volume 1,Total 2 volume 1,Total 3 volume 1,Total 4 volume 1,Total 5 volume 1,Total 6 volume 1
0.1,941999071437344.5,1111941895936827.4,80338108873842.89,89604715625638.98,0.0,0.0,0.0,0.0
0.202,1406938711301564.2,1685658785995081.5,119990347181766.06,133830645910150.42,38471012617.38985,74397955067.31833,1089619615147.8599,23696593018766.875
0.30604000000000003,1751951053364997.0,2130644106040537.5,149414621621537.8,166648866375018.28,96764450585.30717,187132055055.2023,2740716194174.6943,59604951979173.23
0.41216080000000005,2036241677710990.2,2513874975440628.5,173660262511268.38,193691123231921.44,170385936414.5003,329511914381.9977,4826007899014.826,104956006236639.95
0.5204040160000001,2282161293712341.0,2860333656640351.0,194633443426977.12,217083457876455.3,257171391449.14667,497353458695.8342,7284215501149.177,158416721273291.25
0.6308120963200001,2500933769811238.0,3182429766662647.5,213291388634590.22,237893505712668.56,355824246048.5102,688150186981.5403,10078629710706.682,219188498360415.25
0.7434283382464002,2699132896845872.0,3487362706819854.0,230194741920469.47,256746578043872.16,465478603118.18,900228429452.6569,13184738900774.494,286738044076291.94
0.8582969050113283,2881001648103503.5,3779742190214330.0,245705363992709.94,274046274439160.75,585518265932.212,1132397392584.2764,16585103647576.008,360685884372864.9
0.9754628431115548,3049468894743226.5,4062730158527749.5,260073042752239.97,290071194610566.75,715486790225.2593,1383775224486.9072,20266809286821.473,440750955120177.75
1.094972099973786,3206658674211925.0,4338609377152380.5,273478926097473.62,305023380979315.0,855037197234.6738,1653691775100.537,24220041745578.746,526719625145756.06
1.2168715419732616,3354170760076090.5,4609094855990648.0,286059450238553.94,319055007004037.0,1003901435659.82,1941629545870.376,28437222697093.51,618426884993346.0
1.3412089728127268,3493246722273681.0,4875517104007955.0,297920502096279.6,332284173143092.6,1161870660839.933,2247185557124.4985,32912451075538.766,715744199201402.8
1.4680331522689813,3624873878532812.5,5138936190431883.0,309146284767772.1,344804794908300.9,1328781879728.7537,2570045525208.1997,37641124878776.74,818571279939290.2
1.597393815314361,3749853367443192.0,5400216019610517.0,319805123118012.5,356693078103036.75,1504508558290.4934,2909965701867.166,42619675191880.34,926830301494235.5
1.729341691620648,3868846410722771.5,5660074530390940.0,329953409243421.1,368011919375711.3,1688953809248.4626,3266759703329.8145,47845373289389.46,1040461704247064.9
1.863928525453061,3982406744831019.5,5919118698480068.0,339638368392300.1,378813991175592.4,1882045323791.7585,3640288711734.515,53316187128643.07,1159421072916992.0
2.001207095962122,4091003965117381.0,6177869598928681.0,348900049863544.06,389143962291932.7,2083731519238.0442,4030454027899.1846,59030672280667.95,1283676763828030.2
2.1412312378813647,4195040715147677.5,6436780766902845.0,357772792993211.1,399040132934909.5,2293978557272.0474,4437191307571.447,64987887517185.1,1413208068445017.2
2.284055862638992,4294865596752351.5,6696251919914151.0,366286328184123.56,408535662763593.56,2512767999875.3384,4860466030834.559,71187328458323.7,1548003769725032.2
2.4297369798917723,4390783035952276.0,6956639395158098.0,374466618318391.2,417659509351294.0,2740094941745.295,5300269892956.951,77628874715748.03,1688060991985685.5
2.578331719489608,4483060939325637.5,7218264213191644.0,382336511728387.4,426437156473527.6,2975966505035.652,5756617895924.984,84312747297967.45,1833384273965165.5
2.7298983538794,4571936717634215.0,7481418395430986.0,389916255919899.6,434891187086624.94,3220400613915.6553,6229545981128.659,91239473941371.02,1983984814253824.2
2.884496320956988,4657622083503306.0,7746369976367971.0,397223906740833.4,443041739692037.06,3473424988251.0723,6719109085836.115,98409860648098.06,2139879851709612.2
3.0421862473761276,4740306915271717.0,8013367025954423.0,404275657908506.0,450906875872988.3,3735076311033.5356,7225379535724.197,105824968145817.8,2301092152908619.0
3.2030299723236504,4820162400220055.0,8282640911555778.0,411086109078922.9,458502879284231.7,4005399535148.605,7748445706932.074,113486092294998.0,2467649585435484.0
3.3670905717701234,4897343615103551.0,8554408968782572.0,417668485926754.25,465844501117175.0,4284447303046.7407,8288410906525.12,121394747695069.5,2639584760730446.0
3.5344323832055258,4971991662547835.0,8828876707845610.0,424034822347207.44,472945163317834.7,4572279458766.744,8845392431635.46,129552653907565.31,2816934733834780.5
3.7051210308696363,5044235453409454.0,9106239651341690.0,430196112464116.0,479817128128327.75,4868962636163.756,9419520776059.725,137961723838997.33,2999740750088570.0
3.879223451487029,5114193204352619.0,9386684876921022.0,436162438350309.56,486471640539154.56,5174569910527.99,10010938959541.092,146624053920662.38,3188048030888240.0
4.0568079205167695,5181973704420930.0,9670392321678310.0,441943078046820.56,492919048767887.9,5489180503334.017,10619801959901.375,155541915794886.03,3381905592184534.5
4.237944078927105,5247677392771314.0,9957535892679512.0,447546597477096.7,499168906775247.3,5812879531836.751,11246276232009.498,164717749273179.84,3581366090618830.0
4.422702960505647,5311397280925611.0,1.0248284418637394e+16,452980929100945.56,505230061991381.5,6145757796773.953,11890539300559.285,174154156375529.9,3786485693146617.0
4.61115701971576,5373219746144554.0,1.0542802470565316e+16,458253439577202.6,511110730783106.0,6487911602653.115,12552779415983.441,183853896294493.16,3997323966747301.0
4.803380160110075,5433225217307997.0,1.0841251073703998e+16,463370988258818.0,516818563696096.06,6839442606067.265,13233195264701.377,193819881155200.28,4213943785415110.0
4.9994477633122765,5491488770612167.0,1.1143788328710086e+16,468339977996725.0,522360702118744.7,7200457688260.429,13931995726397.932,204055172464313.7,4436411252103471.0
5.199436718578522,5548080649192826.0,1.145056995671859e+16,473166399455735.8,527743827709678.44,7571068848787.652,14649399672239.553,214562978158692.06,4664795633680614.0
5.403425452950093,5603066718245408.0,1.1761749780226782e+16,477855869929334.2,532974205689637.3,7951393117623.689,15385635798916.545,225346650178920.62,4899169307266949.0
5.611493962009095,5656508865188572.0,1.2077480149624802e+16,482413667467503.4,538057722905788.6,8341552483488.991,16140942494204.164,236409682504620.44,5139607716580611.0
5.823723841249277,5708465352791869.0,1.239791232350004e+16,486844760993108.56,542999921421888.6,8741673836503.219,16915567730394.395,247755709598123.88,5386189337128160.0
6.040198318074262,5758991131872665.0,1.2723196809473674e+16,491153836970169.6,547806028262599.6,9151888923559.52,17709768982498.777,259388505211117.9,5638995649251067.0
6.261002284435747,5808138119099497.0,1.3053483671217136e+16,495345323096222.1,552480981838658.06,9572334315046.756,18523813168574.9,271311981515489.75,5898111118183610.0
6.486222330124463,5855955444563954.0,1.3388922806392276e+16,499423409416430.44,557029455496390.1,10003151381743.799,19357976609910.418,283530188525199.56,6163623180398665.0
6.715946776726952,5902489673065491.0,1.3729664199517764e+16,503392067195781.56,561455878566729.1,10444486280874.658,20212545009116.11,296047313780641.5,6435622235619146.0
6.950265712261491,5947785002459259.0,1.4075858153151398e+16,507255065835127.06,565764455232434.4,10896489950451.383,21087813444448.96,308867682270930.94,6714201643958740.0
7.18927102650672,5991883441924416.0,1.4427655500275324e+16,511015988074740.4,569959181485298.6,11359318111150.934,21984086378914.977,321995756572849.7,6999457727727946.0
7.433056447036854,6034824972599121.0,1.4785207800348492e+16,514678243694026.5,574043860406066.5,11833131275070.232,22901677682893.145,335436137188062.4,7291489777503242.0
7.681717575977592,6076647692684619.0,1.5148667521140526e+16,518245081886681.3,578022115966994.2,12318094760790.87,23840910669189.613,349193563062615.6,7590400062109623.0
7.935351927497144,6117387948830550.0,1.5518188208166648e+16,521719602465839.4,581897405529464.6,12814378714257.39,24802118139571.844,363272912274819.3,7896293842212161.0
8.194058966047088,6157080455369537.0,1.5893924643295746e+16,525104766032976.8,585673031185817.9,13322158135035.676,25785642441955.32,377679202879391.4,8209279387251052.0
8.45794014536803,6195758402762196.0,1.627603299389391e+16,528403403226592.7,589352150074826.4,13841612907573.082,26791835537520.35,392417593897311.8,8529467995487920.0
8.72709894827539,6233453556436307.0,1.6664670953688176e+16,531618223151692.0,592937783783479.4,14372927837128.701,27821059077127.965,407493386442141.7,8856974016960294.0
9.0016409272409,6270196347054918.0,1.7059997876384434e+16,534751821078271.5,596432826933441.2,14916292690082.332,28873684486483.37,422912024974750.6,9191914879166478.0
9.281673745785717,6306015953118133.0,1.7462174902944578e+16,537806685485977.5,599840055038290.2,15471902238367.812,29950093059564.72,438679098679394.1,9534411115324838.0
9.567307220701432,6340940376693155.0,1.7871365083316402e+16,540785204522734.94,603162131707102.8,16039956307805.602,31050676059895.418,454800342954974.44,9884586395070748.0
9.85865336511546,6374996512971619.0,1.828773349331628e+16,543689671936919.25,606401615260891.5,16620659830138.414,32175834829291.285,471281641016108.8,1.024256755747131e+16
10.155826432417769,6408210214271270.0,1.8711447347282188e+16,546522292535710.3,609560964820535.0,17214222898596.3,33325980903760.445,488129025599285.75,1.0608484646253036e+16
10.458942961066125,6440606349026636.0,1.9142676107043676e+16,549285187216109.56,612642545918109.0,17820860826839.508,34501536136274.887,505348680770018.44,1.098247094714971e+16
10.768121820287448,6472208856252396.0,1.95815915876951e+16,551980397609823.2,615648635677531.8,18440794211145.54,35702932826169.47,522946943827437.75,1.136466302729056e+16
11.083484256693197,6503040795908364.0,2.002836806060418e+16,554609890378621.5,618581427605369.2,19074248995723.414,36930613854957.484,540930307303213.2,1.1755200776557914e+16
11.405153941827061,6533124395547768.0,2.0483182354043204e+16,557175561192737.06,621443036028125.1,19721456541052.57,38185032828376.42,559305421052151.25,1.2154227450853014e+16
11.733257020663602,6562481093589893.0,2.094621395178825e+16,559679238421341.9,624235500208394.9,20382653695157.605,39466654224510.21,578079094432166.8,1.2561889717216774e+16
12.067922161076874,6591131579520695.0,2.14176450899971e+16,562122686561058.4,626960788168842.6,21058082867739.766,40775953547848.67,597258298571674.5,1.2978337700759266e+16
12.409280604298411,6619095831294250.0,2.1897660852646972e+16,564507609425724.0,629620800249880.4,21747992107098.14,42113417489174.09,616850168722727.2,1.3403725033358142e+16
12.75746621638438,6646393150179025.0,2.2386449265783092e+16,566835653118245.2,632217372424323.0,22452635179782.754,43479544091175.44,636862006698543.9,1.3838208904092024e+16
13.112615540712067,6673042193268459.0,2.2884201390808412e+16,569108408803257.8,634752279389848.8,23172271652927.617,44874842919713.516,657301283394247.9,1.4281950111379948e+16
13.474867851526309,6699061003853219.0,2.33911114170211e+16,571327415297405.6,637227237458063.2,23907166979223.16,46299835240671.02,678175641389918.0,1.4735113116802616e+16
13.844365208556836,6724467039833063.0,2.3907376753590464e+16,573494161492452.4,639643907257098.6,24657592584488.727,47755054202337.45,699492897635236.9,1.5197866100585728e+16
14.221252512727972,6749277200329114.0,2.4433198121141748e+16,575610088624885.5,642003896263015.2,25423825957819.016,49241045023289.78,721261046215133.8,1.5670381018728458e+16
14.605677562982532,6773507850641528.0,2.496877964311072e+16,577676592404437.1,644308761173822.1,26206150744275.555,50758365185743.445,743488261196147.4,1.6152833661764756e+16
14.997791114242183,6797174845684226.0,2.5514328937010704e+16,579695025012696.1,646560010138634.2,27004856840105.81,52307584634353.22,766182899553163.8,1.664540371514753e+16
15.397746936527026,6820293552015821.0,2.6070057205747096e+16,581666696982020.0,648759104853298.8,27820240490473.285,53889285980459.55,789353504176542.4,1.7148274821248488e+16
15.805701875257567,6842878868575187.0,2.6636179329102636e+16,583592878963954.0,650907462532789.4,28652604389687.855,55504064711780.08,813008806959598.1,1.766163464296967e+16
16.221815912762718,6864945246219822.0,2.7212913955507396e+16,585474803395560.4,653006457769751.5,29502257783926.92,57152529407553.08,837157731966611.8,1.818567492896411e+16
16.64625223101797,6886506706157002.0,2.7800483594199176e+16,587313666071304.5,655057424287686.2,30369516576444.117,58835301959153.125,861809398681653.9,1.872059158046589e+16
17.079177275638333,6907576857349098.0,2.8399114707874428e+16,589110627627475.2,657061656596592.4,31254703435262.855,60553017796195.71,886973125338548.6,1.9266584719731256e+16
17.5207608211511,6928168912967864.0,2.900903780592079e+16,590866814945478.1,659020411558130.1,32158147903356.242,62306326118167.01,912658432332428.4,1.9823858760095332e+16
17.97117603757412,6948295705965916.0,2.963048753831719e+16,592583322479831.8,660934909866789.2,33080186511315.977,64095890131605.29,938875045713453.5,2.0392622477648308e+16
18.430599558325603,6967969703827327.0,3.0263702790284736e+16,594261213516196.4,662806337453023.0,34021162892516.785,65922387292881.49,965632900763258.8,2.0973089084539556e+16
18.899211549492115,6987203022555236.0,3.0908926777762176e+16,595901521364267.6,664635846813745.4,34981427900782.953,67786509556618.555,992942145654887.2,2.1565476303916636e+16
19.37719578048196,7006007439947951.0,3.1566407143780316e+16,597505250490063.6,666424558275206.5,35961339730567.62,69688963629802.51,1020813145196891.0,2.2170006446509852e+16
19.864739696091597,7024394408212652.0,3.2236396055801944e+16,599073377591638.0,668173561192805.9,36961264039653.914,71630471231637.86,1049256484662498.4,2.2786906488871076e+16
20.36203449001343,7042375065959813.0,3.2919150304093544e+16,600606852622067.5,669883915092051.5,37981574074393.57,73611769359206.53,1078282973704710.8,2.3416408153281316e+16
20.869275179813698,7059960249620193.0,3.3614931401189596e+16,602106599763099.4,671556650754538.1,39022650797493.32,75633610558992.1,1107903650358260.4,2.4058747989336984e+16
21.38666068340997,7077160504320793.0,3.432400568250836e+16,603573518352739.6,673192771252509.8,40084883018367.484,77696763204333.7,1138129785129461.2,2.4714167457230164e+16
21.91439389707817,7093986094255110.0,3.5046644408176824e+16,605008483769665.1,674793252935285.5,41168667526070.99,79802011778885.98,1168972885175004.2,2.538291301273673e+16
22.452681775019734,7110447012579142.0,3.5783123866116596e+16,606412348277197.1,676359046370590.6,42274409224830.734,81950157166146.44,1200444698570813.0,2.6065236193927868e+16
23.00173541052013,7126552990862826.0,3.653372547644519e+16,607785941829364.9,677891077243593.5,43402521272193.61,84142016945138.11,1232557218672069.0,2.6761393709619956e+16
23.561770118730532,7142313508123950.0,3.729873589724049e+16,609130072841375.4,679390247216237.0,44553425219808.98,86378425692317.84,1265322688565720.2,2.747164752958105e+16
24.133005521105144,7157737799470096.0,3.80784471317186e+16,610445528926610.0,680857434749254.2,45727551156868.23,88660235289798.34,1298753605616581.2,2.819626497650928e+16
24.715665631527248,7172834864371467.0,3.887315663687034e+16,611733077602196.6,682293495889120.5,46925337856216.17,90988315239965.25,1332862726108438.5,2.8935518819802868e+16
25.309978944157795,7187613474586741.0,3.968316743360259e+16,612993466964955.4,683699265021961.1,48147232923161.57,93363552986578.1,1367663069981446.2,2.9689687371137704e+16
25.91617852304095,7202082181762006.0,4.0508788218428056e+16,614227426339463.5,685075555596377.0,49393692947001.18,95786854242447.55,1403167925667140.8,3.0459054581873652e+16
26.53450209350177,7216249324721001.0,4.1350333476746376e+16,615435666899813.6,686423160816914.9,50665183655284.945,98259143323776.2,1439390855022618.5,3.124391014230697e+16
27.165192135371807,7230123036464719.0,4.2208123597757256e+16,616618882266562.6,687742854309871.6,51962180070839.32,100781363491264.77,1476345698365168.5,3.2044549582788852e+16
27.808495978079243,7243711250896065.0,4.308248499104854e+16,617777749080254.0,689035390762960.1,53285166671572.46,103354477298078.27,1514046579608980.5,3.28612743767306e+16
28.464665897640828,7257021709284859.0,4.397375020489538e+16,618912927552763.2,690301506540278.4,54634637553084.586,105979466944769.77,1552507911505358.8,3.369439204551425e+16
29.133959215593645,7270061966487102.0,4.488225804631287e+16,620025061997729.8,691541920273885.9,56011096594101.89,108657334641269.81,1591744400988113.2,3.4544216265330736e+16
29.816638399905518,7282839396931809.0,4.580835370289726e+16,621114781341129.2,692757333433297.2,57415057624760.086,111389102976039.8,1631771054625573.0,3.5411066975964696e+16
30.51297116790363,7295361200387449.0,4.675238886649378e+16,622182699613066.9,693948430873982.1,58847044597756.44,114175815292501.11,1672603184180992.5,3.629527049154804e+16
31.223230591261704,7307634407519681.0,4.771472185872829e+16,623229416421755.4,695115881366037.9,60307591762393.805,117018536072844.6,1714256412282942.2,3.719715961330255e+16
31.947695203086937,7319665885250768.0,4.8695717758436984e+16,624255517410614.5,696260338103981.6,61797243841537.32,119918351329332.73,1756746678207385.8,3.81170737442933e+16
32.686649107148675,7331462341931175.0,4.969574853103023e+16,625261574699303.9,697382439198685.8,63316556211503.81,122876369003208.67,1800090243773172.2,3.905535900621303e+16
33.44038208929165,7343030332332259.0,5.071519315982421e+16,626248147309545.4,698482808152288.5,64866095084908.305,125893719371323.72,1844303699352708.0,4.0012368358221e+16
34.20918973107749,7354376262469281.0,5.17544377793741e+16,627215781576433.4,699562054316968.5,66446437696482.94,128971555460601.7,1889403969999623.8,4.098846171785464e+16
34.993373525699035,7365506394262785.0,5.281387581084285e+16,628165011545990.2,700620773338349.5,68058172491892.27,132111053470458.55,1935408321695170.2,4.198400608403821e+16
35.793240996213015,7376426850046194.0,5.389390809943691e+16,629096359359593.5,701659547584260.9,69701899319561.71,135313413203296.56,1982334367715300.5,4.299937566220864e+16
36.60910581613728,7387143616927036.0,5.4994943053940616e+16,630010335625921.2,702678946559598.5,71378229625538.47,138579858503195.53,2030200075120250.0,4.403495199157906e+16
37.44128793246003,7397662551008584.0,5.61173967883829e+16,630907439780987.8,703679527307877.5,73087786651403.11,141911637702924.34,2079023771368532.2,4.509112407456263e+16
38.29011369110923,7407989381478367.0,5.726169326586357e+16,631788160436844.2,704661834800164.5,74831205635246.19,145310024079400.38,2128824151057283.0,4.616828850837628e+16
39.15591596493141,7418129714569906.0,5.842826444457246e+16,632652975719438.6,705626402311898.1,76609134015730.39,148776316317717.97,2179620282790958.0,4.7266849618846696e+16
40.03903428423004,7428089037403135.0,5.961755042602874e+16,633502353596160.2,706573751788214.0,78422231639249.16,152311838983882.5,2231431616180317.0,4.838721959643778e+16
40.93981496991464,7437872721709230.0,6.082999960557158e+16,634336752193487.6,707504394198250.6,80271170970195.42,155917943006373.62,2284277988973740.5,4.952981863452028e+16
41.85861126931294,7447486027444824.0,6.206606882512733e+16,635156620105259.9,708418829878944.2,82156637304357.66,159596006166674.1,2338179634322932.5,5.06950750699044e+16
42.7957834946992,7456934106300603.0,6.332622352828463e+16,635962396691876.4,709317548868778.2,84079328985450.47,163347433598893.4,2393157188185082.5,5.188342552565395e+16
43.751699164593184,7466222005108924.0,6.461093791770125e+16,636754512370925.4,710201031231902.1,86039957624789.7,167173658298624.28,2449231696863528.0,5.309531505620252e+16
44.72673314788505,7475354669154573.0,6.5920695114870344e+16,637533388899543.6,711069747373079.6,88039248324124.48,171076141641163.06,2506424624689119.5,5.433119729478867e+16
