t(s),Total solute volume 1,Total retention volume 1,Total 1 volume 1,Total 2 volume 1,Total 3 volume 1,Total 4 volume 1,Total 5 volume 1,Total 6 volume 1
0.1,1117071271046687.6,1512117690109863.2,171218609237430.47,223827809825744.56,0.0,0.0,0.0,0.0
0.202,1682038342562622.2,2276919416237023.5,257813691065167.44,337030392262367.56,24680739.159061708,60933226.25441013,1286876155.9186006,35617856745.01938
0.30604000000000003,2112559699927224.5,2859749284213530.0,323801663966903.5,423294052364358.25,62614708.7232378,154586929.4170964,3264880887.0626726,90385872523.78442
0.41216080000000005,2476750961940794.0,3352807764619862.5,379622920412912.94,496267136075395.3,111216728.80789647,274578598.22486955,5799173484.483352,160561221952.16473
0.5204040160000001,2800188225648237.5,3790714085626496.5,429197625564962.6,561074332005948.8,169338977.97052616,418074411.6988991,8829896415.881388,244485097542.53287
0.6308120963200001,3095621248171779.5,4190725965975961.0,474479992887046.94,620270311897942.9,236365882.22435987,583554599.8136117,12324949248.105228,341268149466.0566
0.7434283382464002,3370461998624900.5,4562876051274099.0,516606088709125.8,675340213669039.4,311945660.6082172,770150662.657433,16265987777.99266,450402186928.44305
0.8582969050113283,3629459261079262.5,4913592210816865.0,556303780835209.8,727235552243820.0,395880008.56205636,977373013.0069004,20642671085.45367,571600734453.386
0.9754628431115548,3875867420399891.5,5247279576891733.0,594071883683244.4,776608409441309.6,488069742.6056556,1204976780.2295432,25449827025.22554,704720493738.8739
1.094972099973786,4112029954540395.0,5567110340923238.0,630269592812174.9,823928348458851.4,588484699.2455534,1452887494.7062128,30685882547.75876,849717857060.6268
1.2168715419732616,4339699806922841.0,5875457396742941.0,665165589858654.6,869546606958083.5,697145648.7506754,1721156435.3732111,36351920567.51232,1006622780709.8738
1.3412089728127268,4560228357874631.0,6174150123482430.0,698967007051491.9,913733961314105.4,814112757.3693446,2009932144.4923348,42451078312.74635,1175522118989.648
1.4680331522689813,4774683314529658.0,6464633955070059.0,731837496734762.1,956704348241301.9,939477885.3256046,2319441412.4455776,48988145697.93387,1356548499333.8936
1.597393815314361,4983925648938389.0,6748074519115735.0,763909024023002.0,998630280899574.8,1073359262.2856649,2649976132.1835704,55969287672.26278,1549872631699.7512
1.729341691620648,5188661708002763.0,7025428169579716.0,795289853928713.5,1039653290173607.0,1215897705.2885158,3001883961.809989,63401847001.46166,1755697845968.171
1.863928525453061,5389479621691988.0,7297491266450045.0,826070131815726.1,1079891219795121.2,1367253875.990333,3375561553.091109,71294201245.48622,1974256130530.5203
2.001207095962122,5586875422107959.0,7564935528649786.0,856325886787523.6,1119443459825807.5,1527606260.9702172,3771449565.1060143,79655657440.7208,2205805215239.11
2.1412312378813647,5781272212518130.0,7828333979844827.0,886121969812387.1,1158394787560698.5,1697149669.1384962,4190028954.552821,88496373746.78024,2450626401226.662
2.284055862638992,5973034517134272.0,8088180371261268.0,915514253179445.1,1196818242796490.5,1876094107.9988055,4631818201.393623,97827300848.81458,2709022937907.6475
2.4297369798917723,6162479211775189.0,8344903976660232.0,944551305891242.0,1234777318010880.5,2064663943.514125,5097371234.678985,107660138148.44267,2981318809585.1377
2.578331719489608,6349883979361520.0,8598881037138509.0,973275689675988.0,1272327652591893.5,2263097276.4473524,5587275892.818834,118007301242.82304,3267857834705.095
2.7298983538794,6535493941221539.0,8850443736878231.0,1001724975398068.1,1309518361554114.8,2471645486.9166107,6102152799.152482,128881898175.31367,3569003008054.909
2.884496320956988,6719526922292737.0,9099887329875534.0,1029932550079504.4,1346393090528290.0,2690572911.858631,6642654565.650891,140297712616.6531,3885136034912.711
3.0421862473761276,6902177678442548.0,9347475861907522.0,1057928264840703.6,1382990862790513.8,2920156629.1677213,7209465259.986366,152269192608.75162,4216657019259.8906
3.2030299723236504,7083621324944901.0,9593446811278156.0,1085738960398681.8,1419346766226817.2,3160686328.7510147,7803300087.186647,164811443840.73608,4563984277518.849
3.3670905717701234,7264016142782574.0,9838014887469274.0,1113388897201845.8,1455492515632602.5,3412464255.4349165,8424905248.680139,177940226671.68317,4927554256058.24
3.5344323832055258,7443505895115973.0,1.008137516682086e+16,1140900110485726.8,1491456916864006.8,3675805212.1133704,9075057950.06978,191671956294.6596,5307821535698.23
3.7051210308696363,7622221754275534.0,1.0323705701076142e+16,1168292705631912.5,1527266252949796.5,3951036614.106838,9754566535.33955,206023705571.143,5705258910173.311
3.879223451487029,7800283916243979.0,1.0565169702964372e+16,1195585105627068.0,1562944607585518.5,4238498587.64945,10464270730.007189,221013210166.50046,6120357528323.168
4.0568079205167695,7977802962270089.0,1.0805917389547882e+16,1222794259763743.8,1598514137960353.8,4538544106.911007,11205041979.41445,236658875694.87265,6553627091933.825
4.237944078927105,8154881014276639.0,1.1046087546490606e+16,1249935820734985.8,1633995306266492.5,4851539165.111606,11977783871.18744,252979786641.80014,7005596102813.511
4.422702960505647,8331612720895980.0,1.1285808863102224e+16,1277024295768521.0,1669407077271243.2,5177862976.184714,12783432633.117136,269995716879.80328,7476812153984.479
4.61115701971576,8508086103448973.0,1.1525201077837276e+16,1304073176293804.0,1704767087826073.8,5517908204.152651,13622957699.457838,287727141629.01605,7967842260895.115
4.803380160110075,8684383285380325.0,1.1764375966073598e+16,1331095049745905.0,1740091793023697.2,5872081217.940841,14497362340.030941,306195250744.3257,8479273229368.551
4.9994477633122765,8860581124145341.0,1.2003438195879988e+16,1358101696417668.2,1775396592809369.0,6240802369.809087,15407684347.635698,325421963234.00366,9011712057656.857
5.199436718578522,9036751760996008.0,1.2242486072682122e+16,1385104173727940.5,1810695942141654.2,6624506295.942293,16354996780.169046,345429942933.85516,9565786370495.738
5.403425452950093,9212963101310660.0,1.2481612189940474e+16,1412112889843887.0,1846003447236173.5,7023642238.04116,17340408754.5913,366242615276.3858,10142144883485.205
5.611493962009095,9389279235877076.0,1.2720903999930492e+16,1439137668252970.8,1881331949978201.8,7438674384.997138,18365066290.47773,387884185107.2785,10741457896473.771
5.823723841249277,9565760811747996.0,1.2960444316290618e+16,1466187804605677.5,1916693602231065.0,7870082233.938471,19430153201.394234,410379655511.95044,11364417814916.13
6.040198318074262,9742465359842914.0,1.3200311758048262e+16,1493272116928525.2,1952099931477783.0,8318360970.102584,20536892032.753353,433754847623.82275,12011739698417.578
6.261002284435747,9919447585297062.0,1.344058114324678e+16,1520398990127192.0,1987561898998343.8,8784021865.131603,21686545045.154377,458036421393.24396,12684161835882.799
6.486222330124463,1.0096759625600844e+16,1.3681323838998906e+16,1547576415552721.5,2023089951593221.8,9267592693.508272,22880415242.50989,483251897302.3537,13382446346860.752
6.715946776726952,1.0274451280788018e+16,1.392260807373111e+16,1574812026283500.2,2058694067706136.5,9769618166.951271,24119847444.511623,509429679016.4256,14107379808824.35
6.950265712261491,1.045257021928183e+16,1.4164499216504676e+16,1602113128676265.5,2094383798669569.2,10290660386.67739,25406229403.20759,536599076966.8724,14859773910250.842
7.18927102650672,1.063116216247276e+16,1.4407060027573096e+16,1629486730657121.2,2130168305688609.0,10831299313.514273,26740992963.64975,564790332865.0724,15640466129479.686
7.433056447036854,1.0810271050653148e+16,1.4650350883730732e+16,1656939567155177.8,2166056393089316.5,11392133255.91377,28125615268.736275,594034645149.6117,16450320439420.127
7.681717575977592,1.0989939192561488e+16,1.4894429981501282e+16,1684478123023826.2,2202056538282956.0,11973779375.975384,29561620008.518085,624364195372.6622,17290228038266.395
7.935351927497144,1.117020740047429e+16,1.5139353520790482e+16,1712108653746882.2,2238176918834368.2,12576874213.64071,31050578714.36787,655812175533.874,18161108106452.86
8.194058966047088,1.1351115112519788e+16,1.5385175871268872e+16,1739837204186215.0,2274425436969994.5,13202074229.267244,32594112098.52501,688412816372.6685,19063908590150.31
8.45794014536803,1.1532700503663432e+16,1.5631949723448566e+16,1767669625592945.2,2310809741816077.0,13850056364.831816,34193891439.635174,722201416631.9595,19999607011664.54
8.72709894827539,1.1715000586625246e+16,1.5879726226159428e+16,1795611591075558.8,2347337249619520.5,14521518624.052887,35851640014.99747,757214373308.4022,20969211307154.42
9.0016409272409,1.1898051303827782e+16,1.612855511191265e+16,1823668609693149.5,2384015162171414.5,15217180671.75585,37569134580.32169,793489212906.049,21973760692138.855
9.281673745785717,1.2081887611333432e+16,1.637848481145043e+16,1851846039320893.2,2420850483625713.5,15937784452.839264,39348206897.87587,831064623712.1204,23014326555307.863
9.567307220701432,1.2266543555613294e+16,1.6629562558621804e+16,1880149098416753.0,2457850035881329.5,16684094831.229826,41190745313.98542,869980489115.0469,24092013381198.88
9.85865336511546,1.2452052343885706e+16,1.6881834486585212e+16,1908582876802602.8,2495020472675943.0,17456900249.24364,43098696386.911766,910277921986.6317,25207959702341.184
10.155826432417769,1.263844640867583e+16,1.713534571621876e+16,1937152345559547.5,2532368292521738.5,18257013407.798416,45074066566.21046,951999300151.4652,26363339081510.11
10.458942961066125,1.2825757467170396e+16,1.7390140437517984e+16,1965862366125510.5,2569899850598449.0,19085271967.948605,47118923924.73147,995188302968.2003,27559361124772.36
10.768121820287448,1.301401657587645e+16,1.7646261984669006e+16,1994717698673029.8,2607621369705223.0,19942539274.23903,49235399944.48834,1039889949048.5905,28797272526039.83
11.083484256693197,1.320325418103496e+16,1.7903752905408916e+16,2023723009836373.2,2645538950362091.5,20829705100.399372,51425691357.68383,1086150635141.4729,30078358143883.65
11.405153941827061,1.3393500165189762e+16,1.8162655025216144e+16,2052882879849377.8,2683658580140953.0,21747686417.925266,53692062044.23905,1134018176210.1438,31403942111398.535
11.733257020663602,1.3584783890269096e+16,1.8423009506815504e+16,2082201809148755.0,2721986142297831.5,22697428188.114063,56036844987.23006,1183541846732.8145,32775388979937.113
12.067922161076874,1.3777134237497934e+16,1.8684856905429052e+16,2111684224491640.0,2760527423770170.0,23679904178.148403,58462444287.69621,1234772423257.0264,34194104897570.66
12.409280604298411,1.3970579644426146e+16,1.894823722015967e+16,2141334484631029.8,2799288122596079.0,24696117801.843464,60971337240.33841,1287762228240.1206,35661538823165.59
12.75746621638438,1.4165148139326826e+16,1.921318994185364e+16,2171156885588245.5,2838273854806857.0,25747102985.694767,63566076471.68455,1342565175209.0784,37179183776996.31
13.112615540712067,1.4360867373194776e+16,1.9479754097751924e+16,2201155665557414.5,2877490160838415.5,26833925060.889782,66249292142.35245,1399236815274.141,38748578128850.15
13.474867851526309,1.45577646495494e+16,1.9747968293211428e+16,2231335009473538.8,2916942511502960.0,27957681681.965168,69023694215.10184,1457834385031.963,40371306924611.86
13.844365208556836,1.475586695222848e+16,2.0017870750745864e+16,2261699053272552.5,2956636313558043.5,29119503772.81849,71892074790.41856,1518416855895.086,42049003252348.35
14.221252512727972,1.4955200971338916e+16,2.028949934661492e+16,2292251887868908.5,2996576914906240.0,30320556500.802883,74857310511.43346,1581044984885.8467,43783349648948.16
14.605677562982532,1.5155793127515596e+16,2.056289164516611e+16,2322997562873863.5,3036769609456004.5,31562040279.65864,77922365040.03699,1645781366933.9807,45576079548403.01
14.997791114242183,1.535766959462467e+16,2.0838084931115716e+16,2353940090075327.0,3077219641670702.5,32845191802.05847,81090291606.10428,1712690488718.4,47428978772853.2
15.397746936527026,1.5560856321035282e+16,2.1115116239936628e+16,2385083446698220.0,3117932210830766.5,34171285102.56558,84364235631.80814,1781838784094.8828,49343887067551.55
15.805701875257567,1.576537904957081e+16,2.139402238650693e+16,2416431578462532.5,3158912475031400.0,35541632651.83014,87747437433.0574,1853294691152.6865,51322699680938.21
16.221815912762718,1.5971263336242526e+16,2.1674839992156932e+16,2447988402454724.5,3200165554936221.0,36957586482.872284,91243235000.14853,1927128710944.2834,53367368991049.72
16.64625223101797,1.6178534567857584e+16,2.1957605510243196e+16,2479757809826547.0,3241696537305394.5,38420539350.324165,94855066859.79402,2003413467933.801,55479906179524.445
17.079177275638333,1.6387217978585714e+16,2.2242355250362776e+16,2511743668334349.0,3283510478315064.0,39931925923.53059,98586475020.74109,2082223772210.959,57662382954500.78
17.5207608211511,1.6597338665561862e+16,2.2529125401315428e+16,2543949824730505.0,3325612406683715.5,41493224014.43032,102441108005.26381,2163636683518.734,59916933323743.83
17.97117603757412,1.6808921603594864e+16,2.2817952052908436e+16,2576380107017920.5,3368007326619309.0,43105955841.170525,106422723968.86913,2247731577144.2036,62245755419369.02
18.430599558325603,1.7021991659045552e+16,2.3108871216693296e+16,2609038326577173.5,3410700220600043.0,44771689328.426254,110535193910.63327,2334590211723.5576,64651113375577.1
18.899211549492115,1.7236573602934102e+16,2.3401918845714696e+16,2641928280175557.5,3453696052000734.0,46492039445.43224,114782504976.63625,2424296799013.416,67135339260840.9
19.37719578048196,1.7452692123329866e+16,2.369713085334638e+16,2675053751866094.0,3496999767575256.0,48268669582.75311,119168763859.04541,2516938075682.375,69700835066040.9
19.864739696091597,1.7670371837072454e+16,2.3994543131282348e+16,2708418514784120.5,3540616299805213.5,50103292968.85337,123698200293.45401,2612603377177.7773,72350074750069.08
20.36203449001343,1.7889637300870128e+16,2.429419156674517e+16,2742026332848359.5,3584550569123666.0,51997674127.55126,128375170657.16147,2711384713724.4033,75085606344475.14
20.869275179813698,1.8110513021816664e+16,2.4596112058971296e+16,2775880962372882.0,3628807486022400.5,53953630377.472374,133204161671.14693,2813376848513.3335,77910054118764.61
21.38666068340997,1.8333023467364536e+16,2.4900340535024316e+16,2809986153595765.0,3673391953050290.5,55973033374.64818,138189794208.5589,2918677378140.499,80826120807998.47
21.91439389707817,1.8557193074790204e+16,2.5206912964987636e+16,2844345652129893.0,3718308866709816.0,58057810699.43326,143336827212.62656,3027386815356.352,83836589904397.19
22.452681775019734,1.8783046260183464e+16,2.5515865376580492e+16,2878963200340726.0,3763563119258271.5,60209947488.947754,148650161726.97092,3139608674189.3423,86944328014682.03
23.00173541052013,1.901060742699036e+16,2.582723386924134e+16,2913842538655812.5,3809159600419543.0,62431488116.27978,154134845041.35226,3255449557507.8516,90152287284946.31
23.561770118730532,1.923990097413822e+16,2.6141054627715292e+16,2948987406810054.5,3855103199012106.5,64724537917.717896,159796074956.00937,3375019247086.4985,93463507894883.4
24.133005521105144,1.947095130376703e+16,2.6457363935184576e+16,2984401545030785.5,3901398804498125.5,67091264969.31309,165639204167.78003,3498430796244.9556,96881120623251.73
24.715665631527248,1.970378282859106e+16,2.6776198185974052e+16,3020088695166123.5,3948051308458554.5,69533901914.10411,171669744781.31152,3625800625128.41,100408349486501.69
25.309978944157795,1.9938419978912732e+16,2.7097593897863236e+16,3056052601759982.5,3995065605998512.5,72054747841.37459,177893372948.72507,3757248618701.413,104048514452541.22
25.91617852304095,2.017488720930827e+16,2.7421587724035e+16,3092297013076839.0,4042446597086831.5,74656170219.34111,184315933641.20114,3892898227527.8022,107805034231659.2
26.53450209350177,2.0413209005003868e+16,2.77482164646871e+16,3128825682079028.5,4090199187833686.0,77340606882.7119,190943445556.03558,4032876571411.9307,111681429146688.08
27.165192135371807,2.0653409887959436e+16,2.8077517078333084e+16,3165642367359242.0,4138328291709621.0,80110568076.58658,197782106162.78717,4177314545977.77,115681324084524.19
27.808495978079243,2.089551442267613e+16,2.840952669281485e+16,3202750834030653.5,4186838830709161.0,82968638558.2034,204838296892.26138,4326346932264.5967,119808451531187.7
28.464665897640828,2.113954722174192e+16,2.874428261605113e+16,3240154854576922.0,4235735736462009.0,85917479758.08418,212118588472.12354,4480112509419.857,124066654692652.89
29.133959215593645,2.1385532951129108e+16,2.9081822346540476e+16,3277858209664170.5,4285023951294486.0,88959832002.1544,219629746413.06818,4638754170571.673,128459890703731.23
29.816638399905518,2.1633496335256524e+16,2.9422183583639948e+16,3315864688916857.5,4334708429243848.0,92098516796.46367,227378736649.53268,4802419041965.707,132992233927349.94
30.51297116790363,2.188346216182744e+16,2.976540423763719e+16,3354178091659406.5,4384794137027722.5,95336439176.1625,235372731339.0601,4971258605452.622,137667879346620.02
31.223230591261704,2.2135455286455716e+16,3.0111522439633244e+16,3392802227625143.5,4435286054970924.0,98676590120.43834,243619114824.50836,5145428824414.988,142491146052146.03
31.947695203086937,2.238950063708768e+16,3.0460576551252536e+16,3431740917634145.0,4486189177891587.5,102122049035.14888,252125489763.39264,5325090273224.35,147466480827087.56
32.686649107148675,2.264562321823194e+16,3.0812605174194676e+16,3470997994241525.5,4537508515948623.0,105675986304.93225,260899683428.7669,5510408270321.056,152598461832543.12
33.44038208929165,2.2903848115003216e+16,3.1167647159643536e+16,3510577302357284.0,4589249095452028.0,109341665916.61636,269949754186.13535,5701553015012.139,157891802395876.44
34.20918973107749,2.316420049699026e+16,3.152574161754635e+16,3550482699839138.5,4641415959637859.0,113122448155.79439,279283998150.9965,5898699728084.127,163351354904683.6
34.993373525699035,2.342670562195396e+16,3.188692792577647e+16,3590718058059342.0,4694014169409283.0,117021792378.4679,288910956031.73456,6102028796330.6045,168982114809136.25
35.793240996213015,2.369138883936335e+16,3.2251245739191664e+16,3631287262446673.0,4747048804044996.0,121043259859.71364,298839420162.6683,6311725921095.632,174789224735524.88
36.60910581613728,2.395827559377511e+16,3.2618734998599204e+16,3672194213004435.0,4800524961876448.0,125190516721.36221,309078441732.17236,6527982270937.581,180777978713856.47
37.44128793246003,2.4227391428063084e+16,3.2989435939639616e+16,3713442824805457.0,4854447760934933.0,129467336940.73392,319637338210.9298,6750994638519.334,186953826522456.38
38.29011369110923,2.4498761986503588e+16,3.336338910159912e+16,3755037028464953.0,4908822339569762.0,133877605442.51201,330525700985.43195,6980965601833.42,193322378152562.97
39.15591596493141,2.477241301771968e+16,3.3740635336160096e+16,3796980770591891.5,4963653857038223.0,138425321275.88315,341753403202.005,7218103689873.372,199889408395975.38
40.03903428423004,2.5048370377491588e+16,3.4121215816100464e+16,3839278014219663.5,5018947494068715.0,143114600879.1233,353330607826.72845,7462623552864.563,206660861558887.5
40.93981496991464,2.5326660031435316e+16,3.4505172043949164e+16,3881932739216719.5,5074708453397467.0,147949681433.84872,365267775926.7322,7714746137170.156,213642856305085.1
41.85861126931294,2.5607308057554372e+16,3.4892545860607948e+16,3924948942677614.5,5130941960279775.0,152934924311.20917,377575675178.47815,7974698864990.974,220841690631771.75
42.7957834946992,2.589034064866706e+16,3.5283379453946228e+16,3968330639295165.0,5187653262976441.0,158074818612.3264,390265388608.74835,8242715818979.346,228263846981333.94
43.751699164593184,2.617578411471398e+16,3.5677715367376668e+16,4012081861713984.0,5244847633216027.0,163373984805.35922,403348323574.1781,8519037931890.662,235915997492430.78
