t(s),Total solute volume 1,Total retention volume 1,Total 1 volume 1,Total 2 volume 1,Total 3 volume 1,Total 4 volume 1,Total 5 volume 1,Total 6 volume 1
0.1,1090211262672958.4,1436790320131653.8,152346489675587.4,194232567783107.2,0.0,0.0,0.0,0.0
0.202,1641779322035833.5,2163722943117696.2,229422797645963.56,292500207644148.5,15697098.967317818,37289650.426225685,743407692.3551415,19819397310.144695
0.30604000000000003,2062049982535995.0,2717629692247316.5,288151562016808.06,367375835047878.06,39824336.44571475,94605800.93119442,1886102146.6385753,50292114351.4868
0.41216080000000005,2417566349200784.0,3186205619929335.5,337831539386882.75,430714805327651.2,70737190.37370482,168041731.31100437,3350179743.7451816,89337055350.79973
0.5204040160000001,2733300403667309.5,3602360362071883.0,381952322972443.0,486966139260496.0,107705613.14524496,255863151.71491987,5101061935.203364,136031540932.42577
0.6308120963200001,3021699319543289.5,3982497544618429.0,422253285036926.75,538347431464933.0,150338117.89733228,357140052.7380032,7120206459.484814,189880888648.29666
0.7434283382464002,3289998814696552.0,4336152832175430.5,459745547247144.06,586147801005163.9,198411010.5713594,471341030.80987585,9397018413.947645,250602456120.9587
0.8582969050113283,3542834633989331.5,4669435511056978.0,495076910160036.75,631193154466969.6,251798219.7308735,598166592.9378958,11925526631.807373,318036949198.0021
0.9754628431115548,3783383651154601.0,4986532302958614.0,528691311186503.75,674049485235784.1,310436723.198849,737467024.7968456,14702746146.425053,392104731833.44604
1.094972099973786,4013933512337577.0,5290458073492768.0,560908426773131.1,715124361472109.1,374307402.2760855,889196908.3441037,17727771379.56645,472781634247.29626
1.2168715419732616,4236195394746879.5,5583468001957242.0,591967377402106.1,754722647347176.0,443423538.2245733,1053387794.2727313,21001231298.099014,560084418453.2041
1.3412089728127268,4451488483029046.0,5867300693259016.0,622052506382305.2,793079369444754.1,517823473.9570494,1230130769.2562013,24524941849.748585,654061506821.4714
1.4680331522689813,4660855053017630.0,6143329840445263.0,651309461691346.4,830380220138509.1,597565715.4998419,1419564819.0750153,28301673954.521004,754786793297.453
1.597393815314361,4865135577510232.0,6412663202219383.0,679855691282318.1,866774938474171.2,682725545.6572286,1621868784.1017478,32334993118.631172,862355365212.5259
1.729341691620648,5065019594651544.0,6676209639264422.0,707787551448833.9,902386372905646.8,773392618.7680093,1837255645.4506662,36629145515.821754,976880464621.0156
1.863928525453061,5261081248406676.0,6934725950770472.0,735185273262805.6,937316813203201.4,869669216.5255373,2065968381.537386,41188975378.49679,1098491284815.3372
2.001207095962122,5453804784940533.0,7188850474446526.0,762116525447133.1,971652532900930.4,971668963.7101259,2308276917.197753,46019864171.54908,1227331347877.6353
2.1412312378813647,5643603264552465.0,7439127745739288.0,788639029187777.1,1005467123024216.2,1079515872.8356044,2564475854.168936,51127685344.425,1363557297763.3823
2.284055862638992,5830832569212716.0,7686026957438378.0,814802515551645.9,1038823987679290.4,1193343629.7786505,2834882774.0446286,56518770496.75245,1507337997825.6409
2.4297369798917723,6015802072492201.0,7929956020883896.0,840650216506189.2,1071778245013159.1,1313295059.8090663,3119836969.7873764,62199884088.208534,1658853856242.7195
2.578331719489608,6198782893344176.0,8171272443111527.0,866220018305646.1,1104378197711395.1,1439521731.3250914,3419698504.3702703,68178204670.43676,1818296325409.2192
2.7298983538794,6380014369204437.0,8410291857376417.0,891545366044253.9,1136666486248845.8,1572183666.5996737,3734847523.631885,74461311187.26276,1985867536513.4048
2.884496320956988,6559709195575499.0,8647294796346553.0,916655981863480.8,1168681004560463.8,1711449137.082575,4065683770.0004425,81057173279.6737,2161780040932.6523
3.0421862473761276,6738057552493299.0,8882532130196766.0,941578441585876.9,1200455635214634.2,1857494526.5746262,4412626257.453769,87974144805.38457,2346256637370.1724
3.2030299723236504,6915230451213009.0,9116229477101638.0,966336642382089.2,1232020845660383.2,2010504249.7077975,4776113077.862754,95220959977.81337,2539530268857.8115
3.3670905717701234,7091382473570965.0,9348590813395840.0,990952185570216.9,1263404176273422.5,2170670716.150543,5156601315.958718,102806731670.71065,2741843977521.7515
3.5344323832055258,7266654033206311.0,9579801453643176.0,1015444692599683.5,1294630643216485.2,2338194333.1557374,5554567055.386936,110740951538.78209,2953450907784.588
3.7051210308696363,7441173256605364.0,9810030529713004.0,1039832067909029.5,1325723073567163.2,2513283540.708605,5970505462.204143,119033491682.31802,3174614350749.3433
3.879223451487029,7615057559099092.0,1.0039433067871294e+16,1064130719156319.1,1356702386098351.0,2696154874.771488,6404930935.122052,127694607642.55186,3405607824076.3438
4.0568079205167695,7788414974031760.0,1.0268151740608788e+16,1088355742957624.9,1387587828083599.8,2887033055.06943,6858377314.049948,136734942559.32428,3646715182860.95
4.237944078927105,7961345280650153.0,1.049631835323072e+16,1112521082498641.2,1418397176242401.0,3086151094.5927577,7331398140.227616,146165532357.31577,3898230757944.867
4.422702960505647,8133940966667478.0,1.0724055112590302e+16,1136639662043696.5,1449146908231061.5,3293750428.5644727,7824566962.598579,155997811854.1676,4160459518815.5947
4.61115701971576,8306288054118373.0,1.0951475715676078e+16,1160723502341011.0,1479852349777416.5,3510081061.070072,8338477686.141844,166243621705.1402,4433717258817.549
4.803380160110075,8478466811456538.0,1.117868628830013e+16,1184783820131451.0,1510527801548510.2,3735401727.906009,8873744958.732544,176915216115.9161,4718330800850.553
4.9994477633122765,8650552370436421.0,1.1405786198320768e+16,1208831114351804.2,1541186649054526.8,3969980074.489742,9431004593.782413,188025271268.75406,5014638222094.389
5.199436718578522,8822615262858750.0,1.1632868763272006e+16,1232875241139745.5,1571841458275635.2,4214092847.906744,10010914026.46387,199586894418.19485,5322989096590.865
5.403425452950093,8994721889521446.0,1.1860021868664532e+16,1256925479365257.8,1602504059210546.2,4468026102.358936,10614152801.770601,211613633621.49637,5643744754754.885
5.611493962009095,9166934931538136.0,1.208732851034932e+16,1280990588108344.5,1633185619157152.2,4732075417.43465,11241423093.036318,224119488076.31204,5977278559081.289
5.823723841249277,9339313712436692.0,1.2314867272030728e+16,1305078857258866.2,1663896707224265.8,5006546128.748875,11893450249.84053,237118919044.25885,6323976195477.839
6.040198318074262,9511914518041032.0,1.2542712747157814e+16,1329198152216892.0,1694647351321841.0,5291753570.609864,12570983374.483604,250626861344.07034,6684235979789.556
6.261002284435747,9684790879993500.0,1.2770935912913092e+16,1353355953512233.5,1725447088673521.0,5588023330.45823,13274795926.428986,264658735402.3372,7058469179194.226
6.486222330124463,9857993827840900.0,1.2999604462786226e+16,1377559392031016.0,1756305010728358.2,5895691514.901775,14005686354.291542,279230459853.4224,7447100348245.006
6.715946776726952,1.0031572113840514e+16,1.3228783103210964e+16,1401815280430176.5,1787229803212396.8,6215105027.233617,14764478755.10557,294358464683.26654,7850567679418.724
6.950265712261491,1.0205572414009824e+16,1.3458533818908238e+16,1426130141232173.8,1818229781947792.5,6546621856.378021,15552023560.74068,310059704914.4252,8269323368099.349
7.18927102650672,1.0380039508419502e+16,1.3688916110889048e+16,1450510232019227.8,1849312924973860.5,6890611377.256749,16369198251.44745,326351674832.00696,8703833991987.504
7.433056447036854,1.0555016443292862e+16,1.3919987210495362e+16,1474961568085150.0,1880486901426857.5,7247454662.611174,17216908096.61804,343252422752.18506,9154580904980.768
7.681717575977592,1.0730544677110642e+16,1.415180227237643e+16,1499489942852068.0,1911759097570017.0,7617544806.353402,18096086922.93461,360780566336.73364,9622060645616.922
7.935351927497144,1.090666421261283e+16,1.4384414548894174e+16,1524100946316392.8,1943136640311101.2,8001287258.552514,19007697910.157726,378955308458.6521,10106785360214.559
8.194058966047088,1.1083413716331864e+16,1.4617875548111884e+16,1548799981752452.0,1974626418498466.5,8399100172.192489,19952734414.8798,397796453625.28674,10609283240883.002
8.45794014536803,1.1260830627072736e+16,1.4852235177231396e+16,1573592280871513.2,2006235102247970.5,8811414761.86484,20932220822.630672,417324424966.73865,11130098978608.24
8.72709894827539,1.1438951254570154e+16,1.5087541873100632e+16,1598482917608186.2,2037969160519727.8,9238675674.584541,21947213428.78284,437560281798.4387,11669794231652.559
9.0016409272409,1.1617810869394646e+16,1.532384272120448e+16,1623476820683930.0,2069834877135871.8,9681341372.940136,22998801348.757454,458525737767.8923,12228948109533.783
9.281673745785717,1.1797443785044964e+16,1.556118356437426e+16,1648578785078672.8,2101838365406159.2,10139884530.809887,24088107458.08253,480243179596.5902,12808157672878.408
9.567307220701432,1.1977883433047516e+16,1.5799609102298182e+16,1673793482525216.8,2133985581507711.0,10614792441.896202,25216289362.90226,502735686429.0157,13408038449465.807
9.85865336511546,1.2159162431784466e+16,1.603916298278368e+16,1699125471127310.8,2166282336747479.0,11106567441.349028,26384540401.579838,526027049801.56665,14029224966806.322
10.155826432417769,1.2341312649685638e+16,1.6279887885610162e+16,1724579204190131.5,2198734308820537.0,11615727340.766695,27594090678.079807,550141794245.0712,14672371301617.037
10.458942961066125,1.2524365263345636e+16,1.652182559971056e+16,1750159038341554.2,2231347052164265.2,12142805876.87958,28846208127.855347,575105198535.3445,15338151646581.584
10.768121820287448,1.270835081106236e+16,1.6765017094337992e+16,1775869241013657.0,2264126007496771.0,12688353174.238995,30142199617.006306,600943317607.0681,16027260894800.762
11.083484256693197,1.289329924223708e+16,1.7009502584796832e+16,1801713997345900.0,2297076510618075.0,13252936222.249075,31483412075.51023,627683005146.9834,16740415242360.832
11.405153941827061,1.3079239963027672e+16,1.725532159325544e+16,1827697416564724.8,2330203800543658.5,13837139366.895643,32871233665.36744,655351936883.1582,17478352809466.555
11.733257020663602,1.3266201878603368e+16,1.7502513005099282e+16,1853823537888277.0,2363513027032644.5,14441564817.54065,34307094984.53582,683978634587.8046,18241834280604.66
12.067922161076874,1.3454213432312128e+16,1.775111512123609e+16,1880096335999609.5,2397009257565852.5,15066833169.167,35792470307.569275,713592490811.8531,19031643564223.797
12.409280604298411,1.3643302642038528e+16,1.8001165706718876e+16,1906519726127393.8,2430697483823327.0,15713583940.472408,37328878863.907394,744223794370.1687,19848588472434.297
12.75746621638438,1.3833497134001602e+16,1.8252702036016364e+16,1933097568768818.2,2464582627705776.5,16382476128.226713,38917886154.80046,775903756597.0447,20693501421251.832
13.112615540712067,1.402482417421552e+16,1.850576093522553e+16,1959833674085930.5,2498669546939664.0,17074188778.321838,40561105309.888885,808664538392.2999,21567240151926.344
13.474867851526309,1.4217310697814876e+16,1.876037882149224e+16,1986731806003550.8,2532963040301762.5,17789421573.958008,42260198484.491875,842539278078.9796,22470688473917.234
13.844365208556836,1.4410983336424856e+16,1.9016591739878296e+16,2013795686033993.0,2567467852495473.5,18528895441.425682,44016878298.69706,877562120094.4312,23404757030095.113
14.221252512727972,1.460586844373969e+16,1.9274435397890736e+16,2041028996851394.8,2602188678707869.5,19293353173.95727,45832909319.37466,913768244537.2062,24370384084767.973
14.605677562982532,1.4801992119456578e+16,1.9533945197868996e+16,2068435385636279.2,2637130168873787.5,20083560074.137623,47710109586.28205,951193897592.9467,25368536335151.707
14.997791114242183,1.499938023169891e+16,1.979515626740526e+16,2096018467208957.2,2672296931670795.5,20900304615.378548,49650352183.455956,989876422863.1881,26400209746920.08
15.397746936527026,1.5198058438049092e+16,2.005810348795818e+16,2123781826968681.8,2707693538266326.5,21744399122.9776,51655566857.12762,1029854293621.7164,27466430414494.41
15.805701875257567,1.5398052205300718e+16,2.032282152180627e+16,2151729023653793.2,2743324525836822.5,22616680475.297123,53727741681.43789,1071167146023.8595,28568255446748.023
16.221815912762718,1.559938682802967e+16,2.058934483747058e+16,2179863591936888.2,2779194400876311.5,23518010825.61603,55868924773.261246,1113855813294.9097,29706773878823.973
16.64625223101797,1.5802087446074874e+16,2.085770773372935e+16,2208189044867557.0,2815307642310833.0,24449278345.223145,58081226057.49017,1157962360924.5376,30883107610784.082
17.079177275638333,1.6006179061011082e+16,2.1127944362332332e+16,2236708876174321.8,2851668704433176.0,25411397988.335724,60366819084.17028,1203530122894.9973,32098412373828.316
17.5207608211511,1.6211686551688866e+16,2.1400088749515624e+16,2265426562436166.5,2888282019671573.0,26405312279.44781,62727942898.916374,1250603738971.5476,33353878724845.305
17.97117603757412,1.6418634688910794e+16,2.1674174816407784e+16,2294345565133435.0,2925152001204341.0,27431992123.72471,65166903968.07902,1299229193084.4626,34650733070075.312
18.430599558325603,1.6627048149306388e+16,2.195023639841228e+16,2323469332586679.5,2962283045431900.0,28492437641.081985,67686078160.17626,1349453852832.77,35990238718690.586
18.899211549492115,1.683695152846358e+16,2.2228307263640584e+16,2352801301791670.0,2999679534316246.0,29587679024.60286,70287912785.14172,1401326510140.7434,37373696967119.08
19.37719578048196,1.7048369353369176e+16,2.250842113046854e+16,2382344900157845.5,3037345837597373.0,30718777423.967224,72974928692.99168,1454897423098.9253,38802448214962.44
19.864739696091597,1.7261326094206628e+16,2.2790611684279404e+16,2412103547156931.0,3075286314895159.5,31886825854.581738,75749722433.54855,1510218359022.545,40277873113379.08
20.36203449001343,1.747584617555603e+16,2.3074912593453012e+16,2442080655887993.5,3113505317704767.5,33092950133.123917,78614968478.91055,1567342638760.8108,41801393746832.86
20.869275179813698,1.769195398703621e+16,2.3361357524656224e+16,2472279634564629.0,3152007191292652.5,34338309840.226673,81573421510.4001,1626325182291.76,43374474849124.055
21.38666068340997,1.7909673893427374e+16,2.36499801574852e+16,2502703887929457.5,3190796276499982.0,35624099311.054565,84627918771.76854,1687222555638.0764,44998625054653.99
21.91439389707817,1.8129030244308136e+16,2.3940814198504816e+16,2533356818600846.0,3229876911459638.0,36951548654.539566,87781382490.48608,1750093019140.2734,46675398185890.46
22.452681775019734,1.835004738323956e+16,2.4233893394730476e+16,2564241828356242.5,3269253433232374.5,38321924802.066795,91036822368.99373,1814996577124.7825,48406394578033.86
23.00173541052013,1.857274965652445e+16,2.4529251546589796e+16,2595362319356247.0,3308930179367453.0,39736532586.42135,94397338147.8407,1881995029005.1218,50193262441908.25
23.561770118730532,1.879716142157065e+16,2.4826922520402572e+16,2626721695313259.0,3348911489392574.5,41196715851.82573,97866122242.68713,1951152021855.7847,52037699266125.664
24.133005521105144,1.902330705488162e+16,2.5126940260412504e+16,2658323362608123.0,3389201706237572.5,42703858595.92589,101446462457.19328,2022533104499.1328,53941453259606.12
24.715665631527248,1.9251210959699132e+16,2.5429338800402756e+16,2690170731358098.0,3429805177595943.0,44259386144.597275,105141744773.8907,2096205783146.8145,55906324835555.67
25.309978944157795,1.948089757331797e+16,2.5734152274924428e+16,2722267216439038.5,3470726257228129.0,45864766360.4743,108955456225.1512,2172239578638.3516,57934168138041.06
25.91617852304095,1.971239137409443e+16,2.604141493016555e+16,2754616238464716.5,3511969306210058.5,47521510886.120605,112891187846.463,2250706085320.4497,60026892612323.08
26.53450209350177,1.9945716888164564e+16,2.635116113448636e+16,2787221224725693.0,3553538694130189.0,49231176422.79042,116952637714.24663,2331679031611.94,62186464620143.69
27.165192135371807,2.018089869589183e+16,2.6663425388643796e+16,2820085610090274.5,3595438800238100.0,50995366045.74721,121143614070.52194,2415234342300.152,64414909101192.59
27.808495978079243,2.041796143805799e+16,2.697824233572891e+16,2853212837869625.0,3637674014547557.5,52815730557.13537,125468038536.78587,2501450202615.956,66714311282006.33
28.464665897640828,2.06569298218129e+16,2.7295646770835732e+16,2886606360649245.0,3680248738896502.5,54693969877.42483,129929949419.52509,2590407124135.641,69086818433589.664
29.133959215593645,2.0897828626397044e+16,2.7615673650483452e+16,2920269641088568.5,3723167387966566.5,56631834476.47388,134533505109.8409,2682188012559.1616,71534641679075.69
29.816638399905518,2.1140682708648596e+16,2.7938358101807964e+16,2954206152690572.5,3766434390264196.5,58631126845.27974,139282987579.74063,2776878237415.5537,74060057852779.55
30.51297116790363,2.1385517008307604e+16,2.826373543154115e+16,2988419380542978.0,3810054189065761.0,60693703009.517006,144182805977.69254,2874565703747.399,76665411412029.22
31.223230591261704,2.163235655312835e+16,2.859184113479259e+16,3022912822032626.0,3854031243328187.5,62821474085.98668,149237500326.12842,2975340925827.662,79353116403191.1
31.947695203086937,2.1881226463809124e+16,2.892271090365043e+16,3057689987534388.0,3898370028567420.0,65016407883.131,154451745323.61682,3079297102963.513,82125658483348.0
32.686649107148675,2.2132151958749896e+16,2.9256380635613244e+16,3092754401076022.5,3943075037705954.5,67280530546.79091,159830354254.53134,3186530197442.9404,84985596999114.33
33.44038208929165,2.2385158358646384e+16,2.959288644186791e+16,3128109600980115.5,3988150781891360.0,69615928252.4197,165378283009.06534,3297139014681.6074,87935567124112.33
34.20918973107749,2.2640271090928692e+16,2.9932264655425496e+16,3163759140484332.5,4033601791287034.5,72024748944.98784,171100634216.55258,3411225285628.262,90978282056673.25
34.993373525699035,2.289751566123786e+16,3.027455184007818e+16,3199706583768254.5,4079432610057253.0,74509204037.63074,177002661591.88214,3528893932175.409,94116579217056.67
35.793240996213015,2.3156917788566044e+16,3.0619784795378456e+16,3235955524787304.5,4125647820177111.5,77071570608.79414,183089773919.42154,3650252436625.5474,97353248066854.8
36.60910581613728,2.3418503213131492e+16,3.0968000567383704e+16,3272509560500861.0,4172252007602897.5,79714192759.92728,189367540118.8146,3775412000176.3643,100691292415348.92
37.44128793246003,2.368229783083503e+16,3.1319236455313116e+16,3309372309610866.0,4219249785960993.0,82439483911.97311,195841693482.0277,3904486927275.9307,104133760801509.39
38.29011369110923,2.3948327664420236e+16,3.1673530019137332e+16,3346547408544329.0,4266645791476143.5,85249928715.74135,202518136514.1798,4037594895964.3955,107683791735482.42
39.15591596493141,2.4216618904852296e+16,3.2030919086002788e+16,3384038517222557.0,4314444690274839.0,88148085223.9549,209402945735.6062,4174856847996.488,111344565774153.83
40.03903428423004,2.4487197764240256e+16,3.2391441760960736e+16,3421849298560464.0,4362651152456201.0,91136586532.7539,216502377002.64127,4316397911525.9717,115119508828775.94
40.93981496991464,2.4760090704759496e+16,3.27551364309633e+16,3459983450378454.5,4411269892466054.5,94218143650.2783,223822870205.3796,4462346278468.929,119011996066917.0
41.85861126931294,2.503532429187573e+16,3.312204177332265e+16,3498444684943696.0,4460305643220760.0,97395547263.91191,231371054867.37885,4612834121368.826,123025552558946.69
42.7957834946992,2.5312925235035396e+16,3.349219676295561e+16,3537236734643252.5,4509763163288346.0,100671670146.81274,239153755514.6654,4767997500513.732,127163807062469.98
43.751699164593184,2.559292039078187e+16,3.3865640679580108e+16,3576363352419572.0,4559647237443680.0,104049469512.92293,247177997270.29996,4927976475469.824,131430494992704.88
