t(s),Total solute volume 1,Total retention volume 1,Total 1 volume 1,Total 2 volume 1,Total 3 volume 1,Total 4 volume 1,Total 5 volume 1,Total 6 volume 1
0.1,1171626138357391.5,1690659390667246.5,218249522949102.88,300783729360751.56,0.0,0.0,0.0,0.0
0.202,1763690837654880.0,2545049867987238.5,328538835837823.2,452780552048777.2,20051496.174672138,53694234.987176776,1280478587.0186,38288221443.73146
0.30604000000000003,2214986592036648.0,3196331735234741.0,412605827203665.4,568638694817004.5,50867598.63271682,136214330.6383841,3248560927.8663297,97185534565.23206
0.41216080000000005,2596773629658214.0,3747329510770223.0,483724793467471.2,666652328414321.9,90349412.30429117,241939721.08562475,5770120897.080139,172656820181.56305
0.5204040160000001,2935846226776672.0,4236705553975767.0,546886949861706.6,753700169026527.8,137564757.7315679,368374179.4829281,8785612292.78927,262916759627.49146
0.6308120963200001,3245565338532726.0,4683738765662116.0,604581163831403.6,833212285514870.1,192013703.3475166,514178971.8020288,12263102237.363102,367008488205.6389
0.7434283382464002,3533699212562290.5,5099638180419538.0,658254497980879.8,907182968212672.9,253410570.3670691,678589097.9561313,16184343477.600197,484385320545.3447
0.8582969050113283,3805225239821274.5,5491585866695302.0,708834136488329.6,976890029442105.9,321594339.9470266,861173376.40763,20539051203.98343,614739124667.4066
0.9754628431115548,4063554621388207.5,5864504036540980.0,756955515005058.9,1043209204057208.8,396484506.525748,1061716226.6333334,25322083141.54438,757915806622.7507
1.094972099973786,4311143833693688.0,6221937343015018.0,803076223882164.2,1106771126831457.2,478056629.45473033,1280152200.452309,30531877937.071426,913868520938.524
1.2168715419732616,4549830386008422.0,6566537349968962.0,847538552791676.5,1168047529235617.8,566327643.01104,1516526644.6989293,36169516869.89917,1082629562084.0448
1.3412089728127268,4781030877483163.0,6900348310283944.0,890606384624555.9,1227402085298579.2,661346485.1409259,1770970606.5763633,42238125291.777054,1264292435263.5054
1.4680331522689813,5005864559996448.0,7224985454975456.0,932488212673466.5,1285122133071653.8,763187841.7328548,2043684081.8773763,48742473064.97335,1458999888898.5828
1.597393815314361,5225233981018562.0,7541751352480369.0,973352162717266.0,1341439377532084.8,871947821.9682647,2334924434.3069763,55688698342.66105,1666935641865.5654
1.729341691620648,5439879604066279.0,7851714720024849.0,1013336167673128.2,1396543912927359.8,987740886.5406104,2644998169.7749996,63084111372.11966,1888318507649.4375
1.863928525453061,5650417971706766.0,8155765488521706.0,1052555076568596.0,1450594020108081.2,1110697620.0687451,2974254971.298529,70937052217.6943,2123398133453.5615
2.001207095962122,5857369083934941.0,8454654306388473.0,1091105754562561.2,1503723195195777.2,1240963090.832872,3323083306.6544,79256785996.5843,2372451862804.751
2.1412312378813647,6061176491696776.0,8749021532134705.0,1129070825949785.8,1556045308058803.2,1378695630.5448484,3691907160.8125396,88053424942.49345,2635782401611.089
2.284055862638992,6262222338905544.0,9039418938221606.0,1166521476174959.0,1607658463948607.5,1524065921.861053,4081183592.4514456,97337870124.92017,2913716072855.827
2.4297369798917723,6460838820516448.0,9326326243741248.0,1203519586233134.2,1658647945054618.5,1677256316.2716093,4491400907.382323,107121767882.63284,3206601511930.865
2.578331719489608,6657317046081235.0,9610163903545206.0,1240119383765178.2,1709088485985361.0,1838460327.8404706,4923077302.871925,117417477488.74135,3514808698309.866
2.7298983538794,6851913991132277.0,9891303138377086.0,1276368737955739.5,1759046058350823.8,2007882263.5976808,5376759877.896506,128238047543.72792,3838728248581.4644
2.884496320956988,7044858016561550.0,1.017007389883186e+16,1312310187678452.8,1808579287715713.5,2185736961.906503,5853023932.534083,139597199264.79932,4178770915989.9727
3.0421862473761276,7236353300042568.0,1.0446771259561984e+16,1347981766977509.2,1857740591248750.8,2372249617.4985747,6352472499.438968,151509315310.69617,4535367255729.675
3.2030299723236504,7426583430058925.0,1.072166060526294e+16,1383417674560216.8,1906577100393638.2,2567655677.1282787,6875736064.422333,163989433116.90952,4908967425296.685
3.3670905717701234,7615714347731332.0,1.0994981875645708e+16,1418648821798073.0,1955131416104600.0,2772200793.6105304,7423472443.373694,177053241959.8127,5300041096495.505
3.5344323832055258,7803896775167072.0,1.1266953069556818e+16,1453703285077623.2,2003442232260306.2,2986140828.8130093,7996366790.274051,190717083147.475,5709077461066.5625
3.7051210308696363,7991268235531721.0,1.1537773160035256e+16,1488606682097743.2,2051544854263411.5,3209741898.2683697,8595131716.66018,204997952868.71133,6136585315906.808
3.879223451487029,8177954745523074.0,1.1807624536715462e+16,1523382487142212.0,2099471633538013.8,3443280451.654605,9220507507.137697,219913507332.99448,6583093216882.473
4.0568079205167695,8364072242767202.0,1.2076675065784892e+16,1558052296973875.0,2147252333975551.5,3687043384.601539,9873262418.780273,235482069911.13632,7049149692547.525
4.237944078927105,8549727797051702.0,1.2345079838072546e+16,1592636056462125.0,2194914442886578.5,3941328178.2163634,10554193054.755661,251722640046.3559,7535323510868.866
4.422702960505647,8735020644007251.0,1.2612982660979496e+16,1627152251136241.2,2242483436370943.5,4206443063.450976,11264124804.473738,268654903751.95593,8042203993455.559
4.61115701971576,8920043071968880.0,1.2880517338591756e+16,1661618072389141.8,2289983006995729.5,4482707208.008525,12003912344.090916,286299245548.56274,8570401372888.462
4.803380160110075,9104881186664834.0,1.3147808775539048e+16,1696049559923005.2,2337435260108755.0,4770450923.944315,12774440192.430397,304676761723.07355,9120547189621.828
4.9994477633122765,9289615573645160.0,1.3414973933330032e+16,1730461725145868.8,2384860883899357.0,5070015894.482431,13576623318.358917,323809274814.89667,9693294725629.191
5.199436718578522,9474321874644310.0,1.3682122662529526e+16,1764868658535988.8,2432279297364184.0,5381755418.866178,14411407796.45502,343719349253.9765,10289319472532.742
5.403425452950093,9659071291132120.0,1.3949358429902162e+16,1799283623442896.8,2479708779580459.0,5706034674.301999,15279771508.450724,364430308090.5557,10909319632418.479
5.611493962009095,9843931025965982.0,1.421677895626887e+16,1833719138357974.0,2527166583088334.5,6043230994.255038,16182724888.460253,385966250769.2991,11554016649917.674
5.823723841249277,1.00289646721795e+16,1.4484476778111536e+16,1868187049337694.8,2574669033702079.0,6393734162.518962,17121311710.449461,408352071910.8803,12224155774450.625
6.040198318074262,1.021423255642793e+16,1.4752539743778202e+16,1902698593980327.2,2622231618680463.5,6757946722.619457,18096609916.766224,431613481072.91345,12920506651790.06
6.261002284435747,1.039979204338102e+16,1.5021051453365132e+16,1937264458127990.8,2669869064871540.5,7136284302.226208,19109732486.861317,455777023469.4552,13643863944322.668
6.486222330124463,1.058569780635067e+16,1.5290091649904196e+16,1971894826278948.0,2717595408189065.5,7529175952.345709,20161828345.589462,480870101634.5268,14395047979572.277
6.715946776726952,1.0772002068616488e+16,1.55597365682969e+16,2006599426541510.5,2765424055566382.0,7937064501.150414,21254083310.7046,506920998020.43567,15174905426709.18
6.950265712261491,1.0958754819233886e+16,1.5830059247455354e+16,2041387570834609.0,2813367840359395.0,8360406922.371477,22387721079.35354,533958898526.25195,15984310000906.104
7.18927102650672,1.114600400654608e+16,1.61011298102982e+16,2076268190935031.8,2861439072025612.5,8799674718.244225,23564004253.539333,562013916955.7367,16824163195519.93
7.433056447036854,1.1333795712152476e+16,1.6373015715574764e+16,2111249870884092.0,2909649580785899.5,9255354317.050076,24784235404.672493,591117120407.5266,17695395042182.61
7.681717575977592,1.1522174307694768e+16,1.6645781984923794e+16,2146340876193657.8,2958010757875096.5,9727947485.346357,26049758177.452545,621300555603.414,18598964898976.52
7.935351927497144,1.1711182596492912e+16,1.6919491408099466e+16,2181549180229935.0,3006533591903314.5,10217971755.017992,27361958433.440983,652597276163.2423,19535862266949.332
8.194058966047088,1.1900861941785376e+16,1.7194204728897936e+16,2216882488101970.5,3055228701778156.0,10725960865.323153,28722265434.785812,685041370837.4908,20507107635298.938
8.45794014536803,1.2091252383094266e+16,1.7469980813977302e+16,2252348258338037.5,3104106366578379.5,11252465220.139732,30132153068.65037,718667992710.6643,21513753355622.598
8.72709894827539,1.2282392742036094e+16,1.7746876806478648e+16,2287953722596013.0,3153176552717986.5,11798052360.650848,31593141112.986504,753513389390.7728,22556884545686.33
9.0016409272409,1.2474320718729722e+16,1.8024948266109636e+16,2323705903622120.5,3202448938696394.5,12363307453.736464,33106796544.365414,789614934201.9163,23637620023225.066
9.281673745785717,1.2667072979807392e+16,1.8304249297143296e+16,2359611631645582.5,3251932937692905.0,12948833796.365503,34674734888.655014,827011158398.8115,24757113270336.387
9.567307220701432,1.286068523891089e+16,1.85848326656046e+16,2395677559373322.5,3301637718231931.5,13555253336.307543,36298621615.39991,865741784423.6105,25916553429078.94
9.85865336511546,1.3055192330446944e+16,1.886674990676386e+16,2431910175729205.0,3351572223117823.0,14183207209.50774,37980173576.8201,905847760226.967,27117166328929.81
10.155826432417769,1.3250628277285036e+16,1.9150051423922076e+16,2468315818464501.0,3401745186814305.5,14833356294.490128,39721160492.41213,947371294676.683,28360215546802.977
10.458942961066125,1.3447026352999102e+16,1.9434786579357732e+16,2504900685752405.0,3452165151423518.0,15506381784.177273,41523406480.185974,990355894078.7145,29647003500367.527
10.768121820287448,1.3644419139186556e+16,1.9721003778205696e+16,2541670846865335.5,3502840481401113.0,16202985775.534512,43388791635.63391,1034846399836.5946,30978872575447.223
11.083484256693197,1.3842838578337746e+16,2.0008750545951204e+16,2578632252023331.5,3553779377129028.0,16923891877.467533,45319253659.57964,1080889027276.6492,32357206288321.816
11.405153941827061,1.4042316022675128e+16,2.0298073600145456e+16,2615790741491849.0,3604989887453671.5,17669845837.421326,47316789536.10555,1128531405667.683,33783430483786.215
11.733257020663602,1.42428822793369e+16,2.0589018916883904e+16,2653152053998538.5,3656479921285656.5,18441616187.149117,49383457261.81541,1177822619464.9832,35259014569863.414
12.067922161076874,1.4444567652239188e+16,2.0881631792530548e+16,2690721834531211.5,3708257258346707.0,19239994908.13823,51521377627.733185,1228813250809.7737,36785472790102.24
12.409280604298411,1.464740198091431e+16,2.117595690111938e+16,2728505641572718.5,3760329559140432.0,20065798117.198215,53732736055.1955,1281555423316.4465,38364365534427.805
12.75746621638438,1.4851414676593634e+16,2.147203834781955e+16,2766508953822333.0,3812704374215577.5,20919866772.73774,56019784487.14334,1336102847181.0881,39997300689547.33
13.112615540712067,1.5056634755774122e+16,2.176991971881239e+16,2804737176448543.0,3865389152783397.0,21803067402.27271,58384843336.26855,1392510865646.0725,41685935029954.27
13.474867851526309,1.526309087148454e+16,2.2069644127892044e+16,2843195646913299.0,3918391250744361.0,22716292851.729458,60830303491.52445,1450836502856.6125,43431975650604.16
13.844365208556836,1.5470811342445378e+16,2.2371254260070384e+16,2881889640403883.5,3971717938174211.5,23660463057.124054,63358628384.55445,1511138513146.4673,45237181442374.37
14.221252512727972,1.5679824180297346e+16,2.267479241244175e+16,2920824374905020.0,4025376406314189.5,24636525839.218803,65972356117.65223,1573477431791.1987,47103364611460.47
14.605677562982532,1.589015711505723e+16,2.298030053253459e+16,2960005015940762.0,4079373774106050.5,25645457721.776394,68674101654.910385,1637915627268.503,49032392243888.695
14.997791114242183,1.6101837618942976e+16,2.328782025435949e+16,2999436681012615.0,4133717094308635.5,26688264774.05064,71466559078.27243,1704517355066.5376,51026187916374.37
15.397746936527026,1.6314892928698796e+16,2.3597392932341444e+16,3039124443758235.5,4188413359229134.5,27765983478.17297,74352503910.2514,1773348813082.3057,53086733354780.234
15.805701875257567,1.6529350066536852e+16,2.390905967330592e+16,3079073337852425.5,4243469506099401.5,28879681622.114574,77334795505.1352,1844478198653.517,55216070141477.97
16.221815912762718,1.6745235859802726e+16,2.4222861366676496e+16,3119288360670426.5,4298892422124485.5,30030459218.922867,80416379510.5513,1917975767268.5056,57416301472947.8
16.64625223101797,1.6962576959461706e+16,2.4538838713023532e+16,3159774476731484.0,4354688949228498.5,31219449452.951797,83600290401.31624,1993913893000.2969,59689593968993.32
17.079177275638333,1.7181399857494202e+16,2.4857032251093456e+16,3200536620939295.5,4410865888520438.0,32447819653.82792,86889654087.55759,2072367130712.003,62038179534988.33
17.5207608211511,1.7401730903280998e+16,2.517748238343737e+16,3241579701634206.0,4467430004500632.5,33716772298.913197,90287690599.1447,2153412280082.3694,64464357278611.62
17.97117603757412,1.7623596319051596e+16,2.55002294007462e+16,3282908603470929.5,4524388029026741.0,35027546045.04832,93797716848.53033,2237128451501.3433,66970495482569.55
18.430599558325603,1.7847022214463718e+16,2.5825313504989744e+16,3324528190134421.5,4581746665056607.0,36381416790.38233,97423149474.1559,2323597133887.272,69559033634845.195
18.899211549492115,1.8072034600374388e+16,2.6152774831452164e+16,3366443306905094.0,4639512590183623.0,37779698767.116875,101167507766.64244,2412902264478.534,72232484518059.06
19.37719578048196,1.8298659401859824e+16,2.6482653469745824e+16,3408658783084197.5,4697692459979263.0,39223745666.01456,105034416680.042,2505130300653.9375,74993436359566.9
19.864739696091597,1.8526922470535376e+16,2.681498948387958e+16,3451179434288789.5,4756292911155879.0,40714951793.547714,109027609930.49405,2600370293837.752,77844555043966.75
20.36203449001343,1.875684959622318e+16,2.7149822931452036e+16,3494010064625085.0,4815320564562085.0,42254753262.58301,113150933184.68472,2698713965546.7236,80788586389732.94
20.869275179813698,1.8988466518010732e+16,2.748719388203496e+16,3537155468748537.5,4874782028021735.0,43844629217.52649,117408347340.58809,2800255785637.954,83828358491738.0
21.38666068340997,1.9221798934740844e+16,2.782714243480485e+16,3580620433817810.5,4934683899026845.0,45486103094.87341,121803931903.01453,2905093052818.0903,86966784131476.66
21.91439389707817,1.9456872514969284e+16,2.8169708735479892e+16,3624409741349761.0,4995032767294177.0,47180743920.13782,126341888456.57735,3013325977475.9673,90206863256846.27
22.452681775019734,1.969371290642472e+16,2.8514932992612068e+16,3668528168981583.5,5055835217193582.0,48930167642.15625,131026544238.74492,3125057766902.4224,93551685533397.42
23.00173541052013,1.9932345745001676e+16,2.8862855493280884e+16,3712980492146010.5,5117097830056889.0,50736038505.79239,135862355815.72203,3240394712962.5674,97004432969004.2
23.561770118730532,2.017279666331572e+16,2.9213516618234344e+16,3757771485664954.0,5178827186374070.0,52600070464.09265,140853912863.97513,3359446282287.8574,100568382613976.02
24.133005521105144,2.04150912988468e+16,2.9566956856515756e+16,3802905925266522.5,5241029867883981.0,54524028630.96981,146005942060.28665,3482325209056.638,104246909338657.64
24.715665631527248,2.0659255301696812e+16,2.992321681961543e+16,3848388589029940.5,5303712459565755.0,56509730775.52155,151323311083.3011,3609147590433.788,108043488690646.7
25.309978944157795,2.090531434198219e+16,3.028233725518182e+16,3894224258762806.0,5366881551536750.0,58559048859.11941,156811032729.60352,3740032984742.127,111961699833786.9
25.91617852304095,2.115329411688406e+16,3.064435906032412e+16,3940417721314268.5,5430543740862477.0,60673910616.4287,162474269147.43683,3875104512439.626,116005228571168.28
26.53450209350177,2.1403220357374764e+16,3.100932329453807e+16,3986973769828077.0,5494705633283461.0,62856301181.555725,168318336191.26724,4014488959978.8105,120177870454414.05
27.165192135371807,2.1655118834638932e+16,3.137727119228213e+16,4033897204938694.0,5559373844863584.0,65108264760.54208,174348707900.4581,4158316886626.4136,124483533981589.92
27.808495978079243,2.1909015366205296e+16,3.174824417523112e+16,4081192835913510.0,5624555003564387.0,67431906351.46334,180571021105.41995,4306722734323.3315,128926243886140.48
28.464665897640828,2.2164935821805412e+16,3.2122283864232364e+16,4128865481744226.0,5690255750749081.0,69829393513.41513,186991080164.67493,4459844940667.015,133510144519303.08
29.133959215593645,2.2422906128973068e+16,3.2499432090986756e+16,4176919972189921.0,5756482742620136.0,72302958185.70316,193614861836.36282,4617826055100.445,138239503328521.53
29.816638399905518,2.2682952278398144e+16,3.287973090947758e+16,4225361148774275.0,5823242651593509.0,74854898558.5907,200448520287.80423,4780812858393.841,143118714434442.03
30.51297116790363,2.2945100329046292e+16,3.3263222607166812e+16,4274193865739381.5,5890542167613280.0,77487580996.98087,207498392246.82254,4948956485507.435,148152302309130.4
31.223230591261704,2.3209376413057036e+16,3.36499497159784e+16,4323422990958063.5,5958387999408897.0,80203442018.45578,214771002298.61908,5122412551925.832,153344925558227.38
31.947695203086937,2.347580674042985e+16,3.4039955023086984e+16,4373053406806861.5,6026786875698338.0,83004990327.11992,222273068332.0894,5301341283556.645,158701380809807.0
32.686649107148675,2.3744417603508784e+16,3.4433281581528504e+16,4423090011001358.0,6095745546339265.0,85894808904.73541,230011507139.55368,5485907650288.216,164226606712786.25
33.44038208929165,2.4015235381274052e+16,3.4829972720649104e+16,4473537717395661.0,6165270783430921.0,88875557160.6701,237993440173.98816,5676281503303.752,169925688047794.72
34.20918973107749,2.428828654344951e+16,3.523007205640797e+16,4524401456747542.0,6235369382368552.0,91949973142.21782,246226199467.91214,5872637716251.245,175803859953477.56
34.993373525699035,2.4563597654433572e+16,3.5633623501547996e+16,4575686177450649.0,6306048162852588.0,95120875806.88335,254717333718.21997,6075156330371.2,181866512271285.16
35.793240996213015,2.4841195377061196e+16,3.6040671275648264e+16,4627396846235305.0,6377313969854325.0,98391167358.26688,263474614541.3132,6284022703686.11,188119194011866.06
36.60910581613728,2.5121106476202636e+16,3.645125991507074e+16,4679538448838939.0,6449173674540076.0,101763835647.2157,272506042903.018,6499427664358.7705,194567617946257.88
37.44128793246003,2.5403357822207096e+16,3.686543428281523e+16,4732115990647411.0,6521634175154860.0,105241956639.95465,281819855727.85535,6721567668328.2705,201217665325137.0
38.29011369110923,2.56879763941944e+16,3.728323957829103e+16,4785134497308337.0,6594702397867815.0,108828696954.94127,291424532692.3528,6950644961335.41,208075390729470.9
39.15591596493141,2.5974989283202372e+16,3.770472134702077e+16,4838599015317382.0,6668385297579944.0,112527316470.2366,301328803207.1789,7186867745451.697,215147027055983.97
40.03903428423004,2.6264423695193708e+16,3.8129925490283736e+16,4892514612578154.0,6742689858696155.0,116341171003.21773,311541653593.00867,7430450350228.897,222438990640928.28
40.93981496991464,2.655630695392664e+16,3.855889827470999e+16,4946886378937299.0,6817623095862257.0,120273715064.50345,322072334455.11475,7681613408588.206,229957886525729.88
41.85861126931294,2.685066650369431e+16,3.899168634183562e+16,5001719426694473.0,6893192054668137.0,124328504688.0045,332930368261.8101,7940584037571.418,237710513868147.25
42.7957834946992,2.714752991193617e+16,3.9428336717627544e+16,5057018891088985.0,6969403812318261.0,128509200339.05173,344125557131.97595,8207596024078.6045,245703871502675.12
43.751699164593184,2.744692487172509e+16,3.986889682198859e+16,5112789930763023.0,7046265478270068.0,132819569902.59607,355667990837.0099,8482890015719.877,253945163653986.2
