t(s),Total solute volume 1,Total retention volume 1,Total 1 volume 1,Total 2 volume 1,Total 3 volume 1,Total 4 volume 1,Total 5 volume 1,Total 6 volume 1
0.1,821307387244814.4,914309965951331.9,46537842289353.97,46464736417161.86,0.0,0.0,0.0,0.0
0.202,1237537905862657.2,1377766282289926.5,70122763834159.98,70012608789881.914,257951342.20214227,420696403.7988852,4772194479.127278,87552961001.99742
0.30604000000000003,1554465123936457.8,1730724433740485.0,88080850104920.06,87942484929489.52,654485869.2206255,1067410266.5489624,12108242034.370134,222144631446.45657
0.41216080000000005,1822500442809140.0,2029294505687172.2,103268568622963.48,103106345244247.36,1162524645.5644803,1895978253.8384213,21507168021.689972,394583339899.2734
0.5204040160000001,2060504940846605.0,2294469018843832.0,116754647014246.86,116571238515862.25,1770047233.6607623,2886796152.605516,32746589932.537468,600789033800.4095
0.6308120963200001,2277874027088440.5,2536704966254445.5,129071458507207.33,128868701675683.4,2470602034.1425414,4029342044.357058,45707151394.69395,838571887647.0453
0.7434283382464002,2480067925256363.5,2762079540934968.0,140528396436044.42,140307642036151.22,3260496520.927599,5317593822.357055,60320540122.92531,1106678575943.8682
0.8582969050113283,2670584305084628.0,2974485726335030.5,151323649694810.25,151085937158958.7,4137642947.282823,6748146639.034506,76548132967.54652,1404400474080.146
0.9754628431115548,2851819832269940.0,3176591200774423.5,161593020849168.03,161339176279231.72,5100989643.48451,8319285402.452163,94370474682.04448,1731380626350.692
1.094972099973786,3025500149444390.0,3370316894718503.0,171434290201627.2,171164986097611.25,6150206072.796022,10030471130.504114,113781451331.76909,2087506846339.848
1.2168715419732616,3192915917030143.5,3557099692011749.0,180920590603773.84,180636384582180.75,7285493580.466082,11882032299.472637,134784789077.31894,2472847480692.7637
1.3412089728127268,3355062023958325.0,3738047360897101.0,190108295570510.12,189809656691368.5,8507464644.526639,13874967913.045374,157391820270.00525,2887610424067.5513
1.4680331522689813,3512724426343836.5,3914035196992285.5,199041939830656.84,198729267194927.22,9817062249.527596,16010816008.344126,181619991838.33173,3332115752767.2183
1.597393815314361,3666536816823212.5,4085769089602759.5,207757430388673.2,207431066691431.25,11215504127.443144,18291562718.14733,207491833727.45758,3806776798871.641
1.729341691620648,3817019004453279.0,4253828233366425.5,216284221249616.3,215944462916994.84,12704243130.67069,20719577643.15759,235034225789.0921,4312086699974.982
1.863928525453061,3964603728851096.0,4418694968383754.5,224646832792079.22,224293937731437.0,14284938473.626163,23297566950.013996,264277865745.00034,4848608637973.993
2.001207095962122,4109655895821950.5,4580776186392097.0,232865941718964.34,232500135356875.12,15959434534.553558,26028538799.370216,295256877017.72833,5416968643965.6455
2.1412312378813647,4252486693449727.0,4740419040430389.0,240959180920925.5,240580660988388.56,17729745064.19513,28915777626.356384,328008523539.0989,6017851025106.697
2.284055862638992,4393364162226482.0,4897922704434274.0,248941738406186.9,248550678767870.88,19598041347.235725,31962824696.683235,362572962991.5245,6651991204697.763
2.4297369798917723,4532521240179063.0,5053547330966359.0,256826813172826.1,256423366963219.4,21566643339.35323,35173463857.32626,398993124406.58746,7320177419640.294
2.578331719489608,4670161992096630.0,5207520980248024.0,264625968169296.78,264210270358785.12,23638013051.494797,38551710611.0182,437314558104.1577,8023245341545.2
2.7298983538794,4806466491804503.0,5360045054335622.0,272349406941093.47,271921576471429.9,25814749695.83594,42101804234.392586,477585352810.41003,8762077211866.368
2.884496320956988,4941594699099328.0,5511298611818101.0,280006193310015.22,279566334884698.75,28099586216.04606,45828202119.76667,519856071473.7995,9537600664248.727
3.0421862473761276,5075689572354583.0,5661441832034840.0,287604427744105.7,287152633341703.1,30495386928.50301,49735575928.81596,564179707634.4347,10350787923951.174
3.2030299723236504,5208879592834425.0,5810618824711460.0,295151390393168.44,294687740555943.4,33005146067.503117,53828809220.619095,610611658518.0875,11202655314108.094
3.3670905717701234,5341280830822801.0,5958959929796213.0,302653658162098.94,302178223100733.0,35631987076.60265,58112996296.61217,659209711934.3888,12094263015247.406
3.5344323832055258,5472998651027100.0,6106583615948430.0,310117201344377.4,309630041890884.0,38379162524.363014,62593442063.925934,710034044727.1407,13026715036747.543
3.7051210308696363,5604129131160839.0,6253598059918432.0,317547464003402.5,317048632437781.56,41250054549.72647,67275662762.54518,763147231023.521,14001159368066.797
3.879223451487029,5734760250384653.0,6400102469888869.0,324949431313262.75,324438972084360.06,44248175762.62234,72165387434.94708,818614258905.6772,15018788284489.857
4.0568079205167695,5864972891525140.0,6546188201649922.0,332327686347594.2,331805636704760.06,47377170540.9615,77268560042.25931,876502554416.2191,16080838787421.24
4.237944078927105,5994841691434361.0,6691939705844821.0,339686458263601.06,339152848812650.6,50640816677.20632,82591342150.58678,936882012031.515,17188593163335.768
4.422702960505647,6124435766613086.0,6837435336467000.0,347029663418136.75,346484518612727.6,54043027337.07801,88140116126.46048,999825030910.2496,18343379648678.92
4.61115701971576,6253819335685747.0,6982748044630480.0,354360940639083.6,353804279216678.9,57587853300.35503,93921488792.39491,1065406556361.3685,19546573190518.574
4.803380160110075,6383052256041540.0,7127945976879609.0,361683681633108.4,361115517003181.94,61279485459.580475,99942295503.13004,1133704126084.0833,20799596294741.36
4.9994477633122765,6512190488628444.0,7273092993602179.0,369001057322348.94,368421397913206.56,65122257557.20245,106209604610.79129,1204797920819.669,22103919955181.95
5.199436718578522,6641286502276220.0,7418249120203989.0,376316040754608.9,375724890324233.44,69120649145.46327,112730722293.39142,1278770819124.8857,23461064658363.434
5.403425452950093,6770389626858067.0,7563470941404844.0,383631427114614.9,383028785030064.75,73279288756.45067,119513197726.14534,1355708456034.2197,24872601459574.902
5.611493962009095,6899546362957124.0,7708811947185880.0,390949851270676.06,390335712759926.56,77602957272.2446,126564828579.19666,1435699285424.8071,26340153126871.996
5.823723841249277,7028800654383444.0,7854322837450224.0,398273803216350.2,397648159595874.4,82096591487.20108,133893666828.76065,1518834645936.696,27865395350296.836
6.040198318074262,7158194128824157.0,8000051791275224.0,405605641706436.4,404968480587368.0,86765287856.13846,141508024871.53723,1605208830333.3389,29450058014204.086
6.261002284435747,7287766311045309.0,8146044705673571.0,412947606337655.6,412298911812970.94,91614306423.65747,149416481934.60568,1694919158213.9536,31095926531072.336
6.486222330124463,7417554812358615.0,8292345407995620.0,420301828284428.1,419641581099268.8,96649074931.04878,157627890775.03326,1788066052012.3586,32804843235599.562
6.715946776726952,7547595499488322.0,8438995845462303.0,427670339867399.5,426998517574355.8,101875193098.2903,166151384665.1155,1884753116235.9526,34578708838233.074
6.950265712261491,7677922645495846.0,8586036254786650.0,435055083105296.6,434371660206268.4,107298437079.51762,174996384660.63324,1985087219915.1516,36419483937588.19
7.18927102650672,7808569065024556.0,8733505314402172.0,442457917378328.06,441762865454334.56,112924764091.13033,184172607150.7432,2089178582247.7017,38329190591468.67
7.433056447036854,7939566235798057.0,8881440281450306.0,449880626312651.6,449173914142834.8,118760317212.35023,193690071689.22708,2197140861434.6257,40309913946429.99
7.681717575977592,8070944408029940.0,9029877115372778.0,457324923979870.3,456606517650756.6,124811430358.63673,203559109107.7532,2309091246715.3013,42363803926020.32
7.935351927497144,8202732703171750.0,9178850589697504.0,464792460492404.06,464062323498381.94,131084633428.87077,213790369912.64117,2425150553618.557,44493076978011.695
8.194058966047088,8334959203231713.0,9328394393390824.0,472284827064570.75,471542920400404.7,137586657627.66724,224394832967.36743,2545443322455.203,46700017881081.95
8.45794014536803,8467651031731224.0,9478541222964106.0,479803560599825.5,479049842845979.0,144324440964.59018,235383814463.6891,2670097920084.5947,48986981611549.555
8.72709894827539,8600834427226768.0,9629322866368692.0,487350147856747.25,486584575258152.1,151305133932.3956,246768977184.87665,2799246644994.851,51356395270884.08
9.0016409272409,8734534810205381.0,9780770279579362.0,494926029239548.7,494148555778421.44,158536105366.76157,258562340065.05945,2933025835742.1816,53810760074828.05
9.281673745785717,8868776844059939.0,9932913656653818.0,502532602253117.5,501743179716354.4,166024948490.26025,270776288049.1953,3071575982800.4653,56352653405064.445
9.567307220701432,9003584490763165.0,1.0085782493957884e+16,510171224657686.3,509369802699291.06,173779487143.6109,283423582258.6136,3215041843877.206,58984730924460.79
9.85865336511546,9138981061783882.0,1.023940564916312e+16,517843217353904.9,517029743552896.25,181807782207.4866,296517370467.4951,3363572562756.813,61709728757006.41
10.155826432417769,9274989264724342.0,1.0393811395550916e+16,525549867025456.44,524724286939616.56,190118138218.41757,310071197896.04663,3517321791736.3965,64530465733638.46
10.458942961066125,9411631246101162.0,1.0549027472094728e+16,533292428563156.8,532454685778974.7,198719110182.51523,324099018326.48676,3676447817723.5254,67449845705227.32
10.768121820287448,9548928630643704.0,1.070508112973861e+16,541072127291732.5,540222163470850.06,207619510590.9866,338615205548.28894,3841113692069.1616,70470859924067.2
11.083484256693197,9686902557441678.0,1.0861999174241492e+16,548890161018039.25,548027915940478.2,216828416641.58276,353634565139.4863,4011487364212.7466,73596589495278.8
11.405153941827061,9825573713235858.0,1.1019808005918252e+16,556747701917440.94,555873113521864.7,226355177670.33496,369172346591.10175,4187741819219.8687,76830207899600.8
11.733257020663602,9964962363115054.0,1.1178533656569648e+16,564645898273175.8,563758902694427.5,236209422798.08777,385244255782.12524,4370055219296.33,80174983589107.3
12.067922161076874,1.0105088378852658e+16,1.1338201823864182e+16,572585876082002.6,571686407686109.0,246401068796.54465,401866467812.6706,4558611049365.708,83634282657443.64
12.409280604298411,1.0245971265091676e+16,1.1498837903405816e+16,580568740537932.0,579656731954784.0,256940328178.68268,419055640203.3139,4753598266800.619,87211571586239.28
12.75746621638438,1.0387630183566366e+16,1.1660467018698398e+16,588595577404686.2,587670959558559.9,267837717518.5846,436828926468.7926,4955211455400.897,90910420069401.28
13.112615540712067,1.053008397552713e+16,1.1823114049194828e+16,596667454286370.8,595730156424461.0,279104066005.8657,455203990074.5738,5163650983715.008,94734503917058.06
13.474867851526309,1.067335118252041e+16,1.1986803656601164e+16,604785421804937.5,603835371524021.8,290750524240.0627,474199018785.0202,5379123167803.867,98687608040965.83
13.844365208556836,1.08174500656589e+16,1.2151560309588956e+16,612950514692075.2,611987637963492.9,302788573270.48157,493832739412.1464,5601840438548.901,102773629523248.97
14.221252512727972,1.0962398623504346e+16,1.2317408307053258e+16,621163752802521.9,620187973995527.4,315230033887.1592,514124432974.2111,5832021513609.263,106996580770395.34
14.605677562982532,1.1108214608672964e+16,1.2484371800041622e+16,629426142054973.0,628437383958641.6,328087076168.7457,535093950273.60724,6069891574135.765,111360592754474.55
14.997791114242183,1.1254915543263908e+16,1.2652474812467402e+16,637738675306306.4,636736859150039.6,341372229293.25726,556761727903.7775,6315682446351.628,115869918343601.55
15.397746936527026,1.1402518733199676e+16,1.2821741260708904e+16,646102333164154.1,645087378636932.2,355098391617.77563,579148804695.103,6569632788112.939,120528935723708.34
15.805701875257567,1.1551041281560918e+16,1.2992194972188286e+16,654518084742494.6,653489910010931.5,369278841033.34485,602276838609.9204,6831988280564.162,125342151913744.11
16.221815912762718,1.1700500100988798e+16,1.3163859703014094e+16,662986888364415.1,661945410089701.4,383927245601.40265,626168124097.0886,7103001825006.73,130314206376460.7
16.64625223101797,1.1850911925221972e+16,1.3336759154763932e+16,671509692215822.4,670454825569655.5,399057674478.25574,650845609916.6796,7382933745100.9375,135449874726983.9
17.079177275638333,1.2002293319828186e+16,1.3510916990477346e+16,680087434953535.4,679019093633091.4,414684609134.2178,676332917445.6414,7672051994523.74,140754072541423.88
17.5207608211511,1.2154660692185382e+16,1.3686356849921478e+16,688721046270848.9,687639142512851.0,430822954874.1202,702654359475.3822,7970632370207.294,146231859267806.06
17.97117603757412,1.2308030300761028e+16,1.3863102364186744e+16,697411447423313.0,696315892017303.0,447488052666.06793,729834959512.5088,8278958731285.132,151888442241645.4
18.430599558325603,1.24624182637336e+16,1.4041177169664278e+16,706159551717285.0,705050254018093.9,464695691285.36194,757900471594.0211,8597323223874.324,157729180808517.72
18.899211549492115,1.26178405669961e+16,1.4220604921450664e+16,714966264963389.1,713843132902924.5,482462119780.6042,786877400628.4424,8926026511824.143,163759590556018.78
19.37719578048196,1.2774313071574966e+16,1.44014093062218e+16,723832485896943.8,722695425995294.2,500804060269.0948,816793023274.4824,9265378013562.23,169985347657504.0
19.864739696091597,1.2931851520495684e+16,1.458361405461118e+16,732759106566947.0,731608023942889.5,519738721068.6286,847675409368.8715,9615696145170.904,176412293330043.4
20.36203449001343,1.3090471545119976e+16,1.4767242953124192e+16,741747012695183.4,740581811076128.0,539283810172.856,879553443915.0502,9977308569825.676,183046438409005.4
20.869275179813698,1.3250188670975784e+16,1.49523198556145e+16,750797084006574.6,749617665737970.9,559457549077.3314,912456849644.4006,10350552453728.715,189893968041703.6
21.38666068340997,1.3411018323097356e+16,1.5138868694343394e+16,759910194531739.1,758716460586029.9,580278686963.3438,946416210161.5504,10735774728668.182,196961246502492.53
21.91439389707817,1.3572975830885988e+16,1.5326913490638e+16,769087212882446.5,767879062867574.5,601766515246.4939,981462993685.212,11133332361333.285,204254822131705.8
22.452681775019734,1.373607643250001e+16,1.551647836515837e+16,778329002500345.9,777106334667881.2,623940882496.8583,1017629577395.6925,11543592629511.398,211781432400725.62
23.00173541052013,1.3900335278774146e+16,1.5707587547778088e+16,787636421879062.6,786399133131968.6,646822209737.34,1054949272399.881,11966933405289.936,219548009105451.0
23.561770118730532,1.4065767436665774e+16,1.59002653870759e+16,797010324759465.1,795758310659560.4,670431506126.5214,1093456349324.0695,12403743445380.389,227561683690290.22
24.133005521105144,1.4232387892217284e+16,1.609453635943044e+16,806451560297528.1,805184715072693.0,694790385031.9584,1133186064544.2798,12854422688674.25,235829792704702.22
24.715665631527248,1.4400211553019332e+16,1.629042507770111e+16,815960973203903.5,814679189755062.5,719921080499.3574,1174174687063.0676,13319382561132.67,244359883394130.6
25.309978944157795,1.4569253250151664e+16,1.6487956299472652e+16,825539403853898.2,824242573761823.5,745846464122.5088,1216459526040.7507,13799046288099.746,253159719426989.75
25.91617852304095,1.4739527739572204e+16,1.668715493483106e+16,835187688366175.9,833875701898172.2,772590062318.1403,1260078958987.868,14293849214117.11,262237286759099.5
26.53450209350177,1.4911049702916004e+16,1.6888046053630242e+16,844906658648038.9,843579404764560.8,800176074008.9493,1305072460624.3147,14804239130301.162,271600799636702.9
27.165192135371807,1.5083833747659928e+16,1.7090654892199938e+16,854697142404747.9,853354508765997.8,828629388717.1399,1351480632408.877,15330676609325.49,281258706738831.2
27.808495978079243,1.5257894406598254e+16,1.7295006859435652e+16,864559963109817.4,863201836082388.0,857975605069.5608,1399345232741.1047,15873635348030.02,291219697459403.25
28.464665897640828,1.5433246136567738e+16,1.7501127542201092e+16,874495939932773.8,873122204596403.8,888241049714.2085,1448709207835.0908,16433602517653.125,301492708328979.0
29.133959215593645,1.5609903316350704e+16,1.7709042709963012e+16,884505887620322.6,883116427774855.5,919452796646.34,1499616723262.4053,17011079121653.758,312086929575558.94
29.816638399905518,1.578788024367642e+16,1.7918778318569298e+16,894590616326463.1,893185314499037.6,951638686940.6028,1552113196158.3684,17606580361059.375,323011811823237.0
30.51297116790363,1.5967191131232262e+16,1.813036051306884e+16,904750931386443.9,903329668839074.2,984827348883.7677,1606245328082.8408,18220636007238.383,334277072926849.75
31.223230591261704,1.614785010158711e+16,1.8343815629461896e+16,914987633029116.1,913550289766707.9,1019048218500.3217,1662061138523.023,18853790781956.363,345892704939999.94
31.947695203086937,1.6329871180921478e+16,1.8559170195260852e+16,925301516021672.4,923847970800597.2,1054331560460.8682,1719609999021.8896,19506604744528.508,357868981213059.06
32.686649107148675,1.651326829145108e+16,1.8776450928728988e+16,935693369240323.2,934223499577663.0,1090708489360.6078,1778942667911.5173,20179653685835.94,370216463616809.0
33.44038208929165,1.6698055242422804e+16,1.8995684736659e+16,946163975160116.0,944677657343731.4,1128210991352.2732,1840111325625.9956,20873529528915.582,382946009886447.06
34.20918973107749,1.6884245719556976e+16,1.9216898710541908e+16,956714109256690.0,955211218356188.8,1166871946114.8582,1903169610563.4512,21588840735780.227,396068781079604.0
34.993373525699035,1.7071853272802864e+16,1.9440120120972244e+16,967344539312481.1,965824949191315.9,1206725149136.105,1968172655461.3245,22326212720061.863,409596249140913.2
35.793240996213015,1.726089130227256e+16,1.966537641012871e+16,978056024619667.2,976519607948461.6,1247805334283.2112,2035177124243.3796,23086288265005.61,423540204564468.1
36.60910581613728,1.7451373042213746e+16,1.9892695182165584e+16,988849315072036.0,987295943343337.8,1290148196632.515,2104241249290.7485,23869727946275.605,437912764144235.44
37.44128793246003,1.7643311542882348e+16,2.012210419134742e+16,999725150137826.5,998154693682495.0,1333790415524.9646,2175424869082.9827,24677210558958.668,452726378801178.94
38.29011369110923,1.7836719650176972e+16,2.0353631327760304e+16,1010684257705744.6,1009096585711120.8,1378769677810.1702,2248789466148.539,25509433548078.168,467993841474467.8
39.15591596493141,1.803160998289847e+16,2.058730460043253e+16,1021727352796433.6,1020122333326556.0,1425124701237.6448,2324398205257.173,26367113441854.406,483728295062717.1
40.03903428423004,1.822799490750496e+16,2.082315211770341e+16,1032855136131999.9,1031232636150057.8,1472895257949.5027,2402315971779.8784,27250986286865.04,499943240399770.25
40.93981496991464,1.8425886510237372e+16,2.1061202064684196e+16,1044068292556571.6,1042428177949846.4,1522122198024.5977,2482609410134.6953,28161808084182.27,516652544248024.5
41.85861126931294,1.862529656650211e+16,2.1301482677664024e+16,1055367489301411.4,1053709624908935.1,1572847473019.618,2565346962229.843,29100355225478.883,533870447290846.0
42.7957834946992,1.882623650740653e+16,2.154402221532455e+16,1066753374088730.4,1065077623731927.2,1625114159448.3328,2650598905808.0654,30067424928017.473,551611572104089.94
43.751699164593184,1.9028717383359012e+16,2.178884892664123e+16,1078226573069137.1,1076532799585706.9,1678966482135.7495,2738437392589.4287,31063835667352.6,569890931085317.5
44.72673314788505,1.923274982465913e+16,2.2035991015365344e+16,1089787688588559.5,1088075753869864.0,1734449837379.785,2828936486102.537,32090427606501.195,588723934317788.2
