t(s),Total solute volume 1,Total retention volume 1,Total 1 volume 1,Total 2 volume 1,Total 3 volume 1,Total 4 volume 1,Total 5 volume 1,Total 6 volume 1
0.1,1392571168361754.5,6037270240607699.0,1452613831222594.2,3192085241023349.0,0.0,0.0,0.0,-0.09582846306271511
0.202,2017479142282881.8,9050431299823882.0,2104466172403676.2,4624523511345566.0,74405060441.53491,407141803394.2126,21999210869203.297,281481716058715.94
0.30604000000000003,2458723588457384.0,1.1465374993672966e+16,2564735695754866.0,5635957862998504.0,183171309508.3607,1002541344514.1929,55092307931861.49,749679825876321.1
0.41216080000000005,2800124975406721.5,1.3587956163782106e+16,2920857218148896.5,6418528478579160.0,316047068871.7632,1729965171863.928,95754164106950.16,1350645315299637.0
0.5204040160000001,3077421324668656.0,1.5540661280965646e+16,3210109690345074.0,7054155450342392.0,467787444348.7306,2560682738075.7676,142282760924381.06,2053663584502711.0
0.6308120963200001,3309566116376977.5,1.7385384982116732e+16,3452263811923586.0,7586284614998077.0,635191832677.9033,3477165963447.0146,193663748984113.1,2839494332037852.5
0.7434283382464002,3507968705955791.0,1.9158244428126604e+16,3659220875619770.5,8041068880993098.0,816106708829.6897,4467622863721.99,249224387503734.38,3695477848481653.5
0.8582969050113283,3680125467167654.5,2.0882422531791324e+16,3838800475951510.5,8435691681000564.0,1008999173354.844,5523660818198.935,308490718620202.5,4612781529059843.0
0.9754628431115548,3831233034871530.0,2.257384728787927e+16,3996423310511075.5,8782064906390476.0,1212726625122.1416,6639024635763.538,371112421782664.56,5585161863062642.0
1.094972099973786,3965057480868207.5,2.4244038455281652e+16,4136017832202360.5,9088821263340368.0,1426410874410.7993,7808906942974.487,436821774382493.3,6608084786670836.0
1.2168715419732616,4084426896888900.0,2.5901671483286656e+16,4260534070990932.0,9362443389000864.0,1649362606659.3005,9029534452961.668,505409404223485.75,7678178825122853.0
1.3412089728127268,4191527838851633.5,2.7553498958595044e+16,4372252859974442.0,9607943371365896.0,1881033449931.1223,10297905467681.488,576709115631044.5,8792886833854410.0
1.4680331522689813,4288092067667968.0,2.9204924265530596e+16,4472980627902701.0,9829290802956178.0,2120983917984.974,11611614346642.422,650587873397813.5,9950240295341304.0
1.597393815314361,4375518768692323.5,3.086037500350484e+16,4564176888364038.0,1.002969293634792e+16,2368860935014.3887,12968728455466.76,726938856021878.9,1.1148709964688216e+16
1.729341691620648,4454957307345301.5,3.252355517780879e+16,4647040563579576.0,1.0211784379330938e+16,2624381445977.47,14367698440645.473,805676430653763.6,1.2387104417012588e+16
1.863928525453061,4527365008510523.0,3.4197620878340452e+16,4722570255069287.0,1.0377759538697134e+16,2887320086617.5176,15807290733306.61,886732394693012.1,1.3664499070550574e+16
2.001207095962122,4593548620461850.0,3.5885305940632616e+16,4791607495373938.0,1.0529467665156858e+16,3157499678808.02,17286535521717.246,970053091105245.2,1.4980185033334198e+16
2.1412312378813647,4654194801202941.0,3.7589013911287736e+16,4854868548868974.0,1.0668482735065368e+16,3434783760063.8066,18804685860160.59,1055597148865977.1,1.6333631207664252e+16
2.284055862638992,4709893015671876.0,3.931088671515606e+16,4912968296223162.0,1.0796155936087374e+16,3719070617285.712,20361185012570.977,1143333683545161.8,1.772445552799865e+16
2.4297369798917723,4761153056724517.0,4.105285684256243e+16,4966438510830058.0,1.0913655829316506e+16,4010288457142.447,21955640018300.688,1233240844281108.5,1.915240267293481e+16
2.578331719489608,4808418673981496.0,4.281668764311799e+16,5015742075286392.0,1.1021999589717532e+16,4308391451087.213,23587800045594.305,1325304626406891.5,2.0617326486229012e+16
2.7298983538794,4852078330203869.0,4.4604004881614824e+16,5061284201547152.0,1.1122077662201348e+16,4613356464168.953,25257538487988.96,1419517891114936.8,2.2119175901595324e+16
2.884496320956988,4892473801141529.0,4.6416321770928936e+16,5103421401571069.0,1.1214673474443e+16,4925180326061.464,26964838028583.883,1515879548805640.5,2.365798352661304e+16
3.0421862473761276,4929907131375357.0,4.825505906486264e+16,5142468743075363.0,1.1300479381258914e+16,5243877537565.933,28709778087832.773,1614393873527963.8,2.5233856279999636e+16
3.2030299723236504,4964646319461164.0,5.012156136069903e+16,5178705779804091.0,1.138010969625242e+16,5569478330913.548,30492524207771.51,1715069923648421.8,2.6846967638994216e+16
3.3670905717701234,4996930008555556.0,5.2017110459004536e+16,5212381444397917.0,1.1454111443795808e+16,5902027020525.239,32313319025950.848,1817921049522769.2,2.8497551166686016e+16
3.5344323832055258,5026971389751520.0,5.394293641387029e+16,5243718120028324.0,1.1522973306362704e+16,6241580594483.077,34172474566781.844,1922964473117036.8,3.0185895069449468e+16
3.7051210308696363,5054961475627959.0,5.590022675250018e+16,5272915055091436.0,1.1587133128247154e+16,6588207507188.663,36070365633956.47,2030220927653122.8,3.1912337592739372e+16
3.879223451487029,5081071865146876.0,5.789013423048719e+16,5300151247318144.0,1.1646984253335306e+16,6941986641464.092,38007424130196.555,2139714347729625.5,3.3677263106185604e+16
4.0568079205167695,5105457094079164.0,5.991378340595458e+16,5325587895542127.0,1.170288091281394e+16,7303006414343.449,39984134163386.234,2251471602193126.0,3.5481098760748468e+16
4.237944078927105,5128256644926185.0,6.1972276253585336e+16,5349370496282426.0,1.1755142832366342e+16,7671364005469.093,42001027823687.19,2365522263452223.0,3.7324311624729016e+16
4.422702960505647,5149596674976725.0,6.406669699261561e+16,5371630646308160.0,1.1804059193269832e+16,8047164690680.294,44058681536341.54,2481898408038659.5,3.920740622379518e+16
4.61115701971576,5169591509395248.0,6.61981162670484e+16,5392487600103654.0,1.184989205489205e+16,8430521266300.977,46157712910846.51,2600634444101425.5,4.113092242437885e+16
4.803380160110075,5188344937154462.0,6.836759478876751e+16,5412049621677064.0,1.189287932526137e+16,8821553551976.922,48298778020010.96,2721766962224911.0,4.309543361087772e+16
4.9994477633122765,5205951340535913.0,7.0576186532810264e+16,5430415162761158.0,1.1933237350137642e+16,9220387961809.678,50482569052787.48,2845334606531707.0,4.510154511582923e+16
5.199436718578522,5222496683343052.0,7.282494155728696e+16,5447673893634708.0,1.1971163178220042e+16,9627157135084.332,52709812293254.89,2971377963494309.5,4.714989286916657e+16
5.403425452950093,5238059378545034.0,7.51149085072042e+16,5463907608176018.0,1.2006836549982558e+16,10041999619163.67,54981266385106.98,3099939466260609.5,4.924114223823567e+16
5.611493962009095,5252711052531561.0,7.744713685093323e+16,5479191021069853.0,1.2040421649518884e+16,10465059598179.969,57297720846796.04,3231063312613027.0,5.137598703475492e+16
5.823723841249277,5266517220311382.0,7.982267888965437e+16,5493592472118040.0,1.2072068652249896e+16,10896486662039.19,59659994807316.54,3364795394943440.5,5.355514866856225e+16
6.040198318074262,5279537883678896.0,8.22425915733337e+16,5507174550197089.0,1.2101915096056716e+16,11336435610996.258,62068935936683.57,3501183240846278.5,5.577937543100702e+16
6.261002284435747,5291828062491053.0,8.470793815130318e+16,5519994647441753.0,1.213008709908737e+16,11785066291688.914,64525419548602.11,3640275963117860.5,5.804944189332485e+16
6.486222330124463,5303438267651581.0,8.721978968104426e+16,5532105452622783.0,1.2156700443943584e+16,12242543461052.764,67030347855752.266,3782124218107918.5,6.036614840740159e+16
6.715946776726952,5314414923124716.0,8.977922641511184e+16,5543555391356394.0,1.2181861545031644e+16,12709036674997.928,69584649360620.13,3926780171503918.0,6.273032069805958e+16
6.950265712261491,5324800743242035.0,9.238733908312352e+16,5554389019679266.0,1.2205668313434908e+16,13184720199120.77,72189278366953.72,4074297470744348.5,6.51428095374569e+16
7.18927102650672,5334635070682980.0,9.504523008323667e+16,5564647376601624.0,1.2228210931641762e+16,13669772939063.729,74845214598783.23,4224731223356699.5,6.760449049341574e+16
7.433056447036854,5343954179769035.0,9.775401459546669e+16,5574368300478396.0,1.2249572548764374e+16,14164378388429.428,77553462915548.02,4378137980602079.0,7.011626374454878e+16
7.681717575977592,5352791549087596.0,1.0051482162746242e+17,5583586713387705.0,1.2269829905454352e+16,14668724592411.498,80315053113274.5,4534575725883200.0,7.267905395594394e+16
7.935351927497144,5361178106933230.0,1.0332879500190218e+17,5592334877154672.0,1.2289053896509706e+16,15183004125526.031,83131039802962.69,4694103867437645.0,7.529381020993843e+16
8.194058966047088,5369142452605156.0,1.0619709429344605e+17,5600642624190530.0,1.2307310078138842e+16,15707414082022.852,86002502358404.33,4856783234895299.0,7.796150598717571e+16
8.45794014536803,5376711056216440.0,1.091208957221489e+17,5608537565916873.0,1.23246591259685e+16,16242156077725.682,88930544926590.48,5022676079328802.0,8.068313919371398e+16
8.72709894827539,5383908439341942.0,1.1210139300935509e+17,5616045281202538.0,1.2341157249129784e+16,16787436262199.895,91916296494678.39,5191846076469563.0,8.345973223045435e+16
9.0016409272409,5390757338549644.0,1.1513979820134699e+17,5623189486945840.0,1.2356856565109168e+16,17343465340278.01,94960911008214.53,5364358332800541.0,8.629233210159339e+16
9.281673745785717,5397278853616231.0,1.1823734246538397e+17,5629992192680690.0,1.2371805439492192e+16,17910458602088.94,98065567535936.55,5540279394271005.0,8.918201055918586e+16
9.567307220701432,5403492582016651.0,1.2139527686221214e+17,5636473840864929.0,1.2386048794244146e+16,18488635960839.137,101231470477042.36,5719677257408397.0,9.212986428124018e+16
9.85865336511546,5409416741094262.0,1.2461487309866109e+17,5642653434318015.0,1.2399628387751788e+16,19078221997683.637,104459849807304.7,5902621382628991.0,9.513701508106307e+16
10.155826432417769,5415068279158293.0,1.2789742426353024e+17,5648548652108586.0,1.2412583069483984e+16,19679446013105.55,107751961360845.36,6089182709572660.0,9.820461014583278e+16
10.458942961066125,5420462976616009.0,1.3124424554961941e+17,5654175955047182.0,1.2424949011809708e+16,20292542084292.05,111109087144772.58,6279433674307631.0,1.0133382230260971e+17
10.768121820287448,5425615538124968.0,1.346566749644513e+17,5659550681811756.0,1.2436759921231982e+16,20917749128058.316,114532535684224.3,6473448228269833.0,1.0452585031020046e+17
11.083484256693197,5430539676643366.0,1.3813607403196946e+17,5664687136621987.0,1.2448047231050432e+16,21555310968925.77,118023642395664.05,6671301858817699.0,1.0778191917547141e+17
11.405153941827061,5435248190162378.0,1.4168382848726181e+17,5669598669280075.0,1.2458840277249314e+16,22205476412010.152,121583769986545.23,6873071611297897.0,1.1110328049287355e+17
11.733257020663602,5439753031821187.0,1.4530134896616218e+17,5674297748308874.0,1.2469166459217142e+16,22868499320419.047,125214308879700.47,7078836112530473.0,1.144912128060843e+17
12.067922161076874,5444065374031964.0,1.4899007169140208e+17,5678796027841767.0,1.2479051386735878e+16,23544638696896.37,128916677661018.52,7288675595633351.0,1.1794702199080117e+17
12.409280604298411,5448195667177190.0,1.527514591568337e+17,5683104408850792.0,1.2488519014528476e+16,24234158769486.773,132692323549170.28,7502671926116587.0,1.2147204165784195e+17
12.75746621638438,5452153693383894.0,1.5658700081110614e+17,5687233095239468.0,1.2497591765521926e+16,24937329081022.49,136542722886300.25,7720908629185706.0,1.2506763357580782e+17
13.112615540712067,5455948615828506.0,1.604982137420614e+17,5691191645273464.0,1.2506290643865068e+16,25654424582263.652,140469381648761.56,7943470918201873.0,1.2873518811266154e+17
13.474867851526309,5459589023980155.0,1.6448664336301034e+17,5694989018774722.0,1.2514635338636738e+16,26385725728546.18,144473835977096.47,8170445724253791.0,1.3247612469565918e+17
13.844365208556836,5463082975150091.0,1.6855386410195405e+17,5698633620462265.0,1.2522644319086524e+16,27131518579813.605,148557652724587.25,8401921726802903.0,1.3629189228914794e+17
14.221252512727972,5466438032678428.0,1.727014800947423e+17,5702133339785519.0,1.2530334922167532e+16,27892094903928.68,152722430023807.94,8637989385369067.0,1.4018396988981398e+17
14.605677562982532,5469661301057306.0,1.7693112588307638e+17,5705495587561779.0,1.2537723433046736e+16,28667752283177.355,156969797870699.38,8878740972229465.0,1.4415386703902717e+17
14.997791114242183,5472759458260533.0,1.8124446711821597e+17,5708727329699866.0,1.2544825159212002e+16,29458794223893.402,161301418725777.5,9124270606107842.0,1.48203124351986e+17
15.397746936527026,5475738785524085.0,1.8564320127117974e+17,5711835118264654.0,1.2551654498735786e+16,30265530269145.8,165718988132157.16,9374674286835682.0,1.5233331406341827e+17
15.805701875257567,5478605194798439.0,1.901290583501869e+17,5714825120113035.0,1.2558225003202206e+16,31088276114442.773,170224235350145.28,9630049930970278.0,1.5654604058963843e+17
16.221815912762718,5481364254073013.0,1.9470380162604512e+17,5717703143310298.0,1.2564549435756554e+16,31927353726418.76,174818924008212.75,9890497408358792.0,1.608429411068118e+17
16.64625223101797,5484021210754404.0,1.9936922836614534e+17,5720474661516316.0,1.2570639824693452e+16,32783091464478.527,179504852770213.47,1.0156118579639516e+16,1.6522568614530698e+17
17.079177275638333,5486581013262911.0,2.0412717057769526e+17,5723144836513330.0,1.2576507512961328e+16,33655824205383.586,184283856018766.53,1.0427017334675108e+16,1.6969598020005824e+17
17.5207608211511,5489048330997307.0,2.089794957607903e+17,5725718539031443.0,1.2582163203925986e+16,34545893470772.87,189157804554757.88,1.070329963191468e+16,1.7425556235689533e+17
17.97117603757412,5491427572803512.0,2.1392810767190026e+17,5728200368013651.0,1.2587617003705258e+16,35453647557617.06,194128606312968.16,1.0985073538683854e+16,1.7890620693482336e+17
18.430599558325603,5493722904070997.0,2.1897494709831376e+17,5730594668449389.0,1.259287846035785e+16,36379441671613.14,199198207093850.72,1.1272449272404292e+16,1.83649724144266e+17
18.899211549492115,5495938262569509.0,2.241219926440809e+17,5732905547894086.0,1.2597956600184896e+16,37323638063530.65,204368591311543.0,1.156553924274549e+16,1.884879607613117e+17
19.37719578048196,5498077373128588.0,2.2937126152795917e+17,5735136891781604.0,1.260285996137855e+16,38286606168528.055,209641782758194.6,1.1864458094714036e+16,1.934228008180297e+17
19.864739696091597,5500143761253388.0,2.347248103938644e+17,5737292377627117.0,1.2607596625232848e+16,39268722748460.52,215019845384748.75,1.2169322752686434e+16,1.9845616630893152e+17
20.36203449001343,5502140765762011.0,2.4018473613430966e+17,5739375488209408.0,1.2612174245111376e+16,40270372037207.24,220504884098319.5,1.2480252465393526e+16,2.0359001791369795e+17
20.869275179813698,5504071550522367.0,2.4575317672730326e+17,5741389523813658.0,1.2616600073350678e+16,41291945889048.19,226099045576341.75,1.2797368851865446e+16,2.0882635573628563e+17
21.38666068340997,5505939115359395.0,2.5143231208717117e+17,5743337613609066.0,1.2620880986262418e+16,42333843930126.39,231804519097686.6,1.3120795948347652e+16,2.1416722006056464e+17
21.91439389707817,5507746306197886.0,2.572243649297575e+17,5745222726228950.0,1.2625023507382878e+16,43396473713033.09,237623537390952.16,1.3450660256199228e+16,2.1961469212264458e+17
22.452681775019734,5509495824500272.0,2.631316016524515e+17,5747047679615439.0,1.262903382910665e+16,44480250874558.39,243558377500168.12,1.3787090790786364e+16,2.2517089490006816e+17
23.00173541052013,5511190236053722.0,2.6915633322948112e+17,5748815150185529.0,1.2632917832828738e+16,45585599296650.875,249611361668152.78,1.4130219131383972e+16,2.3083799391806445e+17
23.561770118730532,5512831979156589.0,2.753009161229138e+17,5750527681370391.0,1.2636681107709678e+16,46712951270635.32,255784858237791.56,1.4480179472100298e+16,2.3661819807306838e+17
24.133005521105144,5514423372249706.0,2.8156775320979734e+17,5752187691575782.0,1.2640328968168388e+16,47862747664737.305,262081282571516.72,1.4837108673839566e+16,2.4251376047372752e+17
24.715665631527248,5515966621034500.0,2.8795929472587267e+17,5753797481607081.0,1.2643866470198458e+16,49035438094968.3,268503097989273.56,1.5201146317318518e+16,2.4852697929963e+17
25.309978944157795,5517463825116489.0,2.9447803922628966e+17,5755359241599159.0,1.2647298426596604e+16,50231481099425.79,275052816725285.88,1.557243475715425e+16,2.5466019867799827e+17
25.91617852304095,5518916984209243.0,3.011265345637523e+17,5756875057487907.0,1.265062942118364e+16,51451344316066.38,281733000903932.7,1.5951119177040168e+16,2.6091580957861152e+17
26.53450209350177,5520328003931480.0,3.0790737888452966e+17,5758346917057244.0,1.2653863822092716e+16,52695504664010.78,288546263535070.5,1.6337347646028964e+16,2.6729625072722016e+17
27.165192135371807,5521698701227004.0,3.1482322164275066e+17,5759776715592787.0,1.2657005794193114e+16,53964448528442.984,295495269529141.0,1.6731271175941108e+16,2.738040095377391e+17
27.808495978079243,5523030809434940.0,3.2187676463342624e+17,5761166261170643.0,1.2660059310712448e+16,55258671949166.72,302582736732413.2,1.7133043779918698e+16,2.804416230635078e+17
28.464665897640828,5524325983035580.0,3.290707630446226e+17,5762517279607929.0,1.2663028164115166e+16,56578680812885.0,309811436982732.2,1.7542822532144868e+16,2.8721167896792352e+17
29.133959215593645,5525585802095078.0,3.364080265292251e+17,5763831419099099.0,1.2665915976290888e+16,57924991049270.56,317184197186139.94,1.7960767628749398e+16,2.941168165147552e+17
29.816638399905518,5526811776430391.0,3.438914202967268e+17,5765110254560450.0,1.266872620810145e+16,59298128830895.86,324703900414757.25,1.8387042449922188e+16,3.011597275784665e+17
30.51297116790363,5528005349514374.0,3.5152386622548634e+17,5766355291703603.0,1.2671462168332256e+16,60698630777094.31,332373487026320.0,1.8821813623256504e+16,3.083431576748763e+17
31.223230591261704,5529167902139109.0,3.593083439958978e+17,5767567970856779.0,1.2674127022089494e+16,62127044161825.83,340195955805775.2,1.9265251088344628e+16,3.156699070125001e+17
31.947695203086937,5530300755854454.0,3.672478922449183e+17,5768749670551638.0,1.267672379868209e+16,63583927125620.78,348174365129349.0,1.971752816264914e+16,3.2314283156492614e+17
32.686649107148675,5531405176197315.0,3.753456097424122e+17,5769901710891729.0,1.2679255399024e+16,65069848891679.516,356311834151519.2,2.017882160867342e+16,3.307648441645822e+17
33.44038208929165,5532482375725987.0,3.836046565897624e+17,5771025356717712.0,1.2681724602589574e+16,66585389986204.99,364611544015306.8,2.064931170245577e+16,3.385389156182717e+17
34.20918973107749,5533533516872970.0,3.9202825544121875e+17,5772121820583154.0,1.2684134073952918e+16,68131142463049.22,373076739086359.4,2.112918230341219e+16,3.464680758448482e+17
34.993373525699035,5534559714628443.0,4.0061969274844397e+17,5773192265553739.0,1.268648636893904e+16,69707710132754.484,381710728211249.75,2.1618620925552904e+16,3.5455541503542586e+17
35.793240996213015,5535562039065904.0,4.093823200287363e+17,5774237807841774.0,1.2688783940413246e+16,71315708796072.69,390516886000474.5,2.2117818810098628e+16,3.6280408483652006e+17
36.60910581613728,5536541517720483.0,4.183195551574069e+17,5775259519287028.0,1.2691029143732698e+16,72955766482048.83,399498654136614.75,2.262697099952362e+16,3.712172995565246e+17
37.44128793246003,5537499137829636.0,4.274348836847973e+17,5776258429694125.0,1.2693224241882714e+16,74628523690754.08,408659542708144.0,2.3146276413051856e+16,3.797983373959401e+17
38.29011369110923,5538435848445495.0,4.3673186017842797e+17,5777235529035864.0,1.269537141031873e+16,76334633640758.39,418003131569377.3,2.3675937923634404e+16,3.885505417017832e+17
39.15591596493141,5539352562427018.0,4.4621410959077965e+17,5778191769531340.0,1.2697472741532772e+16,78074762521431.45,427533071727058.1,2.421616243643628e+16,3.974773222466039e+17
