t(s),Total solute volume 1,Total retention volume 1,Total 1 volume 1,Total 2 volume 1,Total 3 volume 1,Total 4 volume 1,Total 5 volume 1,Total 6 volume 1
0.1,1144268928618327.0,1596229672649425.0,193012778181123.2,258947965849975.12,0.0,0.0,0.0,0.0
0.202,1722318456033815.8,2403718879151664.5,290516909424895.25,389760540273506.0,653766100.2701155,1679750920.221938,37657358109.09893,1082982544315.6771
0.30604000000000003,2162513801584468.0,3019507800630035.5,364768097618903.56,489376716302600.2,1658109683.0569553,4260261797.0915885,95512007455.07368,2747754745130.807
0.41216080000000005,2534595862915718.0,3540764875388920.5,427530085887882.25,573578860246926.8,2944311895.1251206,7564967720.202816,169603782677.8527,4879953276096.087
0.5204040160000001,2864771040784511.0,4003994739711498.5,483223312685324.25,648297479277331.9,4481746288.3659,11515178386.197264,258168213418.89514,7428741826236.601
0.6308120963200001,3166105949646749.0,4427396608906268.5,534051825978780.75,716489547436638.0,6253892122.118025,16068446207.113735,360253540302.25806,10366709965469.63
0.7434283382464002,3446197171031733.5,4821551146391381.0,581297000531503.0,779874170621257.5,8251215757.987257,21200275973.427967,475310539830.0639,13678042175315.604
0.8582969050113283,3709911508333986.0,5193238020866046.0,625779758097523.1,839552706106094.6,10468244243.285715,26896605830.317314,603023922731.8536,17353659555631.408
0.9754628431115548,3960583697767233.0,5547104204309726.0,668062594688389.0,896279804463855.8,12902122728.412718,33150100765.822792,743229225128.7645,21388825941618.04
1.094972099973786,4200614429609970.5,5886496823176317.0,708550453489713.2,950598741735388.5,15551815088.21881,39958098722.24857,895866756463.3652,25781821670970.773
1.2168715419732616,4431798738706579.5,6213920428973662.0,747546117052963.0,1002915734178589.0,18417623199.748386,47321375450.0777,1060953905549.3502,30533146131328.8
1.3412089728127268,4655519726585525.0,6531306708231542.0,785282883918775.0,1053543777570720.8,21500879903.426567,55243355616.69676,1238567452520.1738,35645008468484.46
1.4680331522689813,4872869426929238.0,6840182734055632.0,821944955940107.0,1102729999055992.1,24803743696.02884,63729585300.32096,1428831741473.2908,41120987059830.42
1.597393815314361,5084727692569111.0,7141780767079023.0,857680744768039.4,1150673509267040.0,28329056469.03392,72787366469.93611,1631910485083.635,46965793566805.22
1.729341691620648,5291815629575065.0,7437112620503600.0,892611884997141.2,1197537494455676.2,32080242137.587387,82425496527.75497,1848000924862.0588,53185104812196.375
1.863928525453061,5494732933163337.0,7727021615896528.0,926839531904745.6,1243457665606210.8,36061232807.82351,92654078607.50143,2077329577848.6392,59785440332965.96
2.001207095962122,5693984673787104.0,8012219855148872.0,960448879670115.6,1288548320125830.2,40276414088.22669,103484381060.53656,2320149086155.534,66774071684523.85
2.1412312378813647,5890000956546952.0,8293315574392438.0,993512477480817.1,1332906790767806.2,44730584076.760956,114928732079.90288,2576735854341.154,74158954426366.23
2.284055862638992,6083151638464778.0,8570833620949004.0,1026092712010289.4,1376616776149550.2,49428922351.93246,127000440028.03473,2847388263087.9116,81948676698925.55
2.4297369798917723,6273757539183646.0,8845231051537658.0,1058243698414172.9,1419750877733168.2,54376966436.82594,139713732965.21448,3132425313380.2656,90152420193882.28
2.578331719489608,6462099112985787.0,9116909198858506.0,1090012743107331.9,1462372562302511.5,59580593951.29072,153083712792.922,3432185598363.158,98779930557769.1
2.7298983538794,6648423249662408.0,9386223135539542.0,1121441490919702.8,1504537700999540.0,65046009168.11698,167126320712.63046,3747026528903.553,107841495099118.92
2.884496320956988,6832948673997817.0,9653489189137200.0,1152566835869477.8,1546295791227196.5,70779733032.72655,181858311583.62408,4077323758676.419,117347926239411.89
3.0421862473761276,7015870280478638.0,9918990976551902.0,1183421652332350.5,1587690937593764.0,76788595946.62398,197297235381.92987,4423470768464.321,127310549547350.08
3.2030299723236504,7197362648386783.0,1.0182984298941856e+16,1214035387959723.2,1628762647378177.5,83079732786.55971,213461424403.62363,4785878579250.976,137741195480732.02
3.3670905717701234,7377582918481909.0,1.044570114921863e+16,1244434548911218.2,1669546481523055.5,89660579755.82816,230369985175.57916,5164975570860.149,148652194166660.84
3.5344323832055258,7556673167018705.0,1.0707353020949924e+16,1274643100298708.8,1710074591874618.5,96538872755.72571,248042794272.08493,5561207388167.594,160056372702708.5
3.7051210308696363,7734762380043583.0,1.0968133661856114e+16,1304682799206364.8,1750376167965924.8,103722647033.49026,266500497411.23935,5975036920848.579,171967054574944.66
3.879223451487029,7911968106925886.0,1.1228221381710486e+16,1334573473604685.5,1790477811210812.2,111220237914.61714,285764511337.5419,6406944345594.762,184398060874269.53
4.0568079205167695,8088397854309307.0,1.148778099973392e+16,1364333257479195.2,1830403850355057.5,119040282466.83331,305857028098.2891,6857427222002.124,197363713057781.06
4.237944078927105,8264150268357070.0,1.174696549805512e+16,1393978790248921.8,1870176609018351.2,127191721973.3826,326801021399.431,7327000635082.934,210878837052314.28
4.422702960505647,8439316143081364.0,1.2005917433784962e+16,1423525386849256.2,1909816633879159.5,135683805116.96265,348620254787.403,7816197378717.417,224958768536540.03
4.61115701971576,8613979284836725.0,1.2264770151526582e+16,1452987183552785.0,1949342890309537.0,144526091794.2472,371339291451.2041,8325568175433.558,239619359268859.8
4.803380160110075,8788217257103837.0,1.252364882986579e+16,1482377263597772.0,1988772930919655.5,153728457495.68338,394983505476.92737,8855681928752.217,254876984352802.25
4.9994477633122765,8962102025055194.0,1.2782671388938996e+16,1511707765912112.5,2028123041422924.2,163301098197.02496,419579094417.19666,9407126005014.186,270748550351145.8
5.199436718578522,9135700515755468.0,1.3041949281118178e+16,1540989979606697.8,2067408367409353.5,173254535718.54672,445153093062.2918,9980506542150.182,287251504175720.6
5.403425452950093,9309075106972526.0,1.33015881828506e+16,1570234426426984.2,2106643024963388.5,183599623515.5467,471733388319.49396,10576448783299.197,304403842692552.44
5.611493962009095,9482284055282590.0,1.3561688602505456e+16,1599450932964822.0,2145840197544116.2,194347552870.0185,499348735123.2313,11195597433538.314,322224122992399.25
5.823723841249277,9655381872315520.0,1.3822346416524084e+16,1628648694122731.5,2185012221129549.0,205509859458.47028,528028773311.77515,11838617038284.164,340731473285213.4
6.040198318074262,9828419656503828.0,1.408365334410969e+16,1657836329072539.0,2224170659291367.8,217098430275.13333,557804045417.1237,12506192382169.33,359945604384108.94
6.261002284435747,1.0001445386494398e+16,1.434569736901967e+16,1687021930747483.8,2263326369594017.5,229125510893.26047,588706015323.6609,13199028907398.332,379886821750154.25
6.486222330124463,1.0174504181400782e+16,1.460856311565727e+16,1716213109740957.0,2302489562489742.5,241603713050.1766,620767087758.7161,13917853150755.887,400576038074226.2
6.715946776726952,1.0347638532266426e+16,1.4872332185540222e+16,1745417033349242.8,2341669853698725.0,254546022544.12854,654020628584.3567,14663413198580.52,422034786376116.25
6.950265712261491,1.0520888508445484e+16,1.5137083459298858e+16,1774640460383379.0,2380876310913039.0,267965807433.07388,688500985865.0629,15436479159134.707,444285233604545.25
7.18927102650672,1.0694291942055908e+16,1.5402893368591208e+16,1803889772282278.8,2420117495538362.5,281876826527.2362,724243511690.2874,16237843651901.166,467350194724554.25
7.433056447036854,1.0867884593201522e+16,1.566983614168485e+16,1833171000982066.8,2459401500083753.0,296293238168.72955,761284584734.726,17068322313419.627,491253147281161.3
7.681717575977592,1.1041700298275718e+16,1.593798402592242e+16,1862489853931573.0,2498735981722693.5,311229609292.7832,799661633542.1987,17928754319349.477,516018246430239.94
7.935351927497144,1.1215771103337692e+16,1.620740748984098e+16,1891851736590001.5,2538128192476221.0,326700924766.1466,839413160521.8452,18820002922502.96,541670340429296.56
8.194058966047088,1.1390127384281094e+16,1.6478175407337394e+16,1921261772696671.5,2577585006407016.5,342722596999.1416,880578766647.5516,19742956006646.97,568234986582303.1
8.45794014536803,1.1564797955284614e+16,1.6750355225953202e+16,1950724822564232.5,2617112944161765.0,359310475828.6098,923199176853.4916,20698526655913.27,595738467634019.4
8.72709894827539,1.173981016683944e+16,1.7024013121082784e+16,1980245499613748.5,2656718195154815.0,376480858669.6135,967316266120.3804,21687653739696.49,624207808610306.4
9.0016409272409,1.191518999448307e+16,1.729921413767567e+16,2009828185342079.0,2696406637648559.0,394250500934.36475,1012973086248.4127,22711302512948.543,653670794101841.9
9.281673745785717,1.2090962119225492e+16,1.757602232080878e+16,2039477042888042.2,2736183856953932.0,412636626717.2552,1060213893314.1139,23770465231808.977,684155985989471.2
9.567307220701432,1.2267150000533762e+16,1.7854500836333892e+16,2069196029343238.2,2776055161946790.0,431656939745.32697,1109084175809.3193,24866161784529.816,715692741610040.5
9.85865336511546,1.2443775942634724e+16,1.81347120826607e+16,2098988906935895.2,2816025600072225.5,451329634593.8281,1159630683461.4294,25999440337677.16,748311232362174.4
10.155826432417769,1.2620861154806554e+16,1.841671779461012e+16,2128859253200686.8,2856099970988518.5,471673408166.80896,1211901456734.8086,27171377997605.25,782042462751919.6
10.458942961066125,1.2798425806250712e+16,1.8700579140164056e+16,2158810470234439.2,2896282838984678.5,492707471442.9286,1265945857013.805,28383081487215.12,816918289878584.6
10.768121820287448,1.297648907606907e+16,1.8986356810843836e+16,2188845793126122.5,2936578544290237.0,514451561486.90186,1321814597468.4355,29635687838020.055,852971443361430.5
11.083484256693197,1.3155069198810868e+16,1.9274111106367136e+16,2218968297639646.8,2976991213382562.0,536925953727.1019,1379559774604.1572,30930365097551.145,890235545708196.5
11.405153941827061,1.3334183506004358e+16,1.9563902014162804e+16,2249180907219320.2,3017524768385405.5,560151474500.0583,1439234900497.5684,32268313052142.656,928745133126573.6
11.733257020663602,1.351384846404148e+16,1.98557892842587e+16,2279486399380148.5,3058182935642279.5,584149513862.6321,1500894935720.085,33650763965144.85,968535676780056.8
12.067922161076874,1.3694079708746228e+16,2.0149832500005976e+16,2309887411538764.5,3098969253539194.0,608942038672.7661,1564596322951.9126,35078983330615.14,1009643604489597.0
12.409280604298411,1.387489207692156e+16,2.0446091145052396e+16,2340386446334638.5,3139887079643787.5,634551605939.7709,1630397021288.7664,36554270642543.016,1052106322882694.6
12.75746621638438,1.405629963514015e+16,2.074462466693627e+16,2370985876486542.5,3180939597220647.0,661001376445.1276,1698356541243.8696,38077960179666.24,1095962239991608.0
13.112615540712067,1.4238315706017916e+16,2.1045492537636412e+16,2401687949224200.5,3222129821176973.0,688315128634.8246,1768535980447.9807,39651421805937.74,1141250788302319.8
13.474867851526309,1.4420952892184114e+16,2.1348754311378428e+16,2432494790331619.5,3263460603487078.5,716517272784.2671,1840998060049.8313,41276061786700.81,1188012448256053.8
13.844365208556836,1.4604223098143344e+16,2.165446967997048e+16,2463408407834586.0,3304934638139686.0,745632865436.75,1915807161819.9226,42953323620634.2,1236288772204970.8
14.221252512727972,1.4788137550203946e+16,2.1962698525915424e+16,2494430695362291.5,3346554465647789.0,775687624116.504,1993029365959.9426,44684688887520.22,1286122408823776.2
14.605677562982532,1.4972706814632786e+16,2.227350097352192e+16,2525563435209565.0,3388322477157016.5,806707942317.2461,2072732489620.443,46471678111896.195,1337557127978758.5
14.997791114242183,1.5157940814180618e+16,2.25869374382197e+16,2556808301124313.5,3430240918185371.5,838720904767.171,2154986126129.0635,48315851642638.305,1390637846055850.8
15.397746936527026,1.5343848843109866e+16,2.2903068674261904e+16,2588166860842454.0,3472311892024016.5,871754302971.2236,2239861684931.4785,50218810548527.33,1445410651749117.5
15.805701875257567,1.5530439580845352e+16,2.3221955820986172e+16,2619640578390389.0,3514537362826342.5,905836651031.3776,2327432432247.1387,52182197529844.03,1501922832310965.8
16.221815912762718,1.5717721104356944e+16,2.3543660447786548e+16,2651230816173802.5,3556919158410308.0,940997201745.7253,2417773532441.5522,54207697846032.45,1560222900265274.8
16.64625223101797,1.5905700899375996e+16,2.3868244597939244e+16,2682938836869508.5,3599458972796635.0,977265962986.8945,2510962090116.741,56297040259467.414,1620360620584495.8
17.079177275638333,1.6094385870537144e+16,2.419577083141138e+16,2714765805136202.5,3642158368503829.5,1014673714360.3721,2607077192921.2524,58451997995357.52,1682387038331579.2
17.5207608211511,1.6283782350530568e+16,2.4526302266772812e+16,2746712789158284.0,3685018778619496.0,1053252024143.1036,2706199955080.687,60674389717807.41,1746354506767445.2
17.97117603757412,1.6473896108343882e+16,2.485990262232004e+16,2778780762035979.5,3728041508665369.5,1093033266502.7384,2808413561649.754,62966080522057.84,1812316715924564.5
18.430599558325603,1.666473235666548e+16,2.5196636256514692e+16,2810970603034211.5,3771227738272671.0,1134050638997.639,2913803313486.156,65328982942913.96,1880328721646909.8
18.899211549492115,1.6856295758516492e+16,2.5536568207829988e+16,2843283098701242.0,3814578522683035.0,1176338180357.7812,3022456672946.639,67765057979368.68,1950446975096560.5
19.37719578048196,1.7048590433174844e+16,2.5879764234092604e+16,2875718943867889.0,3858094794088988.5,1219930788546.4722,3134463310305.0347,70276316135415.586,2022729352726663.5
19.864739696091597,1.7241619961447828e+16,2.622629085139977e+16,2908278742536955.5,3901777362827242.0,1264864239102.6765,3249915150891.8247,72864818477044.7,2097235186720740.0
20.36203449001343,1.7435387390349168e+16,2.6576215372687996e+16,2940963008672067.5,3945626918437041.5,1311175203763.6821,3368906422954.516,75532677705398.6,2174025295897573.2
20.869275179813698,1.7629895237229918e+16,2.692960594602228e+16,2973772166894572.5,3989644030595006.0,1358901269367.5737,3491533706237.483,78282059246067.95,2253162017081113.0
21.38666068340997,1.7825145493411746e+16,2.728653159267256e+16,3006706553096287.0,4033829149937374.0,1408080957034.986,3617895981279.969,81115182354488.03,2334709236934344.0
21.91439389707817,1.8021139627366932e+16,2.764706224503687e+16,3039766414975949.5,4078182608779584.0,1458753741629.3252,3748094679430.182,84034321237399.16,2418732424255898.5
22.452681775019734,1.8217878587487332e+16,2.8011268784469856e+16,3072951912506262.0,4122704621742895.5,1510960071494.649,3882233733573.325,87041806190312.2,2505298662738012.5
23.00173541052013,1.84153628044819e+16,2.837922307907027e+16,3106263118338327.5,4167395286297038.0,1564741388470.0493,4020419629570.935,90140024750930.12,2594476684184028.5
23.561770118730532,1.861359219344155e+16,2.8750998021477616e+16,3139700018149929.5,4212254583227344.0,1620140148179.488,4162761458408.345,93331422868449.97,2686336902183707.0
24.133005521105144,1.881256615560609e+16,2.912666756672652e+16,3173262510943526.0,4257282377034721.5,1677199840595.6511,4309370969047.1836,96618506088673.72,2780951446243833.0
24.715665631527248,1.9012283579867748e+16,2.9506306770203236e+16,3206950409299951.5,4302478416275835.0,1735965010876.391,4460362621978.805,100003840754843.08,2878394196372032.0
25.309978944157795,1.921274284404446e+16,2.988999182574796e+16,3240763439593143.0,4347842333851326.0,1796481280472.1428,4615853643474.811,103490055224101.7,2978740818110938.0
25.91617852304095,1.9413941815953856e+16,3.02778001039422e+16,3274701242171282.0,4393373647248744.5,1858795368502.4998,4775964080529.857,107079841099492.72,3082068798019772.5
26.53450209350177,1.961587785431718e+16,3.0669810190621384e+16,3308763371509308.5,4439071758747212.5,1922955113400.1362,4940816856492.361,110775954477371.97,3188457479600384.5
27.165192135371807,1.9818547809523428e+16,3.1066101925647984e+16,3342949296337749.0,4484935955590265.0,1989009494819.9194,5110537827377.263,114581217210129.72,3297988099664233.5
27.808495978079243,2.002194802427976e+16,3.1466756441981e+16,3377258399752543.5,4530965410133125.0,2057008655811.1506,5285255838855.968,118498518184090.08,3410743825136739.5
28.464665897640828,2.022607433417681e+16,3.1871856205074516e+16,3411689979310236.5,4577159179970528.0,2127003925250.584,5465102783917.023,122530814612463.08,3526809790295355.0
29.133959215593645,2.04309220681926e+16,3.2281485052638708e+16,3446243247113144.5,4623516208050870.0,2199047840533.8257,5650213661191.864,126681133343205.02,3646273134437144.0
29.816638399905518,2.0636486049162756e+16,3.2695728234791824e+16,3480917329888534.5,4670035322782496.0,2273194170522.587,5840726633938.914,130952572181647.17,3769223039972017.5
30.51297116790363,2.084276059423872e+16,3.3114672454635396e+16,3515711269066013.5,4716715238137546.0,2349497938745.1523,6036783089679.29,135348301227740.97,3895750770936924.0
31.223230591261704,2.1049739515360284e+16,3.353840590927795e+16,3550624020857148.5,4763554553758697.0,2428015446847.369,6238527700477.379,139871564227765.27,4025949711926750.0
31.947695203086937,2.1257416119762612e+16,3.3967018331337456e+16,3585654456341093.0,4810551755074113.0,2508804298291.3384,6446108483858.912,144525679940330.75,4159915407437153.5
32.686649107148675,2.1465783210543356e+16,3.440060103094698e+16,3620801361560136.5,4857705213425590.0,2591923422298.8916,6659676864359.319,149314043516523.0,4297745601614681.0
33.44038208929165,2.1674833087309252e+16,3.483924693828992e+16,3656063437628832.5,4905013186214986.0,2677433098036.9805,6879387735694.823,154240127894011.66,4439540278409133.5
34.20918973107749,2.1884557546924464e+16,3.5283050646689132e+16,3691439300860242.5,4952473817073613.0,2765394979041.949,7105399523548.506,159307485204954.47,4585401702123322.0
34.993373525699035,2.2094947884382324e+16,3.5732108456274244e+16,3726927482912935.0,5000085136059362.0,2855872117879.593,7337874248963.958,164519748197524.97,4735434458355229.0
35.793240996213015,2.230599489381975e+16,3.618651841824991e+16,3762526430962100.0,5047845059886416.0,2948928991038.1753,7576977592338.293,169880631670892.8,4889745495327354.0
36.60910581613728,2.2517688869694704e+16,3.664638037978845e+16,3798234507898203.0,5095751392191626.0,3044631524051.09,7822878958007.138,175393933923471.06,5048444165598390.0
37.44128793246003,2.273001960814666e+16,3.71117960295679e+16,3834049992556411.0,5143801823842375.0,3143047116846.292,8075751539413.821,181063538214271.44,5211642268151971.0
38.29011369110923,2.2942976408558228e+16,3.7582868943977336e+16,3869971079980062.5,5191993933290060.0,3244244669319.4897,8335772384854.644,186893414237184.9,5379454090857581.0
39.15591596493141,2.3156548075337904e+16,3.805970463401033e+16,3905995881721310.0,5240325186973435.0,3348294607128.0728,8603122463793.442,192887619608025.34,5551996453298636.0
40.03903428423004,2.3370722919940684e+16,3.854241059286719e+16,3942122426181989.0,5288792939775893.0,3455268907702.9863,8877986733737.531,199050301364166.9,5729388749963005.0
40.93981496991464,2.3585488763145316e+16,3.903109634428583e+16,3978348658997783.5,5337394435540868.0,3565241126475.6123,9160554207668.158,205385697476619.03,5911752993791123.0
41.85861126931294,2.3800832937605396e+16,3.952587349161991e+16,4014672443468449.5,5386126807649113.0,3678286423317.2095,9451018022018.652,211898138374384.4,6099213860077241.0
42.7957834946992,2.401674229069085e+16,4.002685576768449e+16,4051091561037154.5,5434987079661622.0,3794481589188.1455,9749575505193.752,218592048480956.84,6291898730719527.0
43.751699164593184,2.4233203187636464e+16,4.05341590853878e+16,4087603711821587.0,5483972166032363.0,3913905072994.659,10056428246624.111,225471947762819.94,6489937738814965.0
