t(s),Total solute volume 1,Total retention volume 1,Total 1 volume 1,Total 2 volume 1,Total 3 volume 1,Total 4 volume 1,Total 5 volume 1,Total 6 volume 1
0.1,1225891390677807.5,1918426285810987.5,281662698191601.44,410872196941578.9,0.0,0.0,0.0,0.0
0.202,1844603608804670.2,2886799790012433.5,423818978282008.56,618241054894051.2,51379311.0477689,150149725.66004726,4078892119.1208,131867610549.85402
0.30604000000000003,2316371146466783.0,3625289549349794.5,532213018146378.8,776359616412475.9,130328643.49646072,380870555.1158589,10347698098.091778,334909426863.2766
0.41216080000000005,2715486581350298.5,4250143340381672.0,623914398123738.6,910127950446722.6,231473444.793899,676455461.4355435,18379142072.47933,595123389928.2458
0.5204040160000001,3069940438588103.0,4805157826456919.0,705354264825550.5,1028927419505132.2,352425066.7111138,1029923806.8192868,27983478456.72424,906337710805.0531
0.6308120963200001,3393696184061146.0,5312181351305118.0,779740885836407.2,1137438047347840.0,491901875.33394295,1437530128.5229032,39058911950.329346,1265245715772.11
0.7434283382464002,3694873814964500.0,5783919138899779.0,848939924295020.0,1238381348726994.0,649171004.1902771,1897132690.7757976,51547235983.05206,1669957373595.8274
0.8582969050113283,3978676577074569.0,6228512770150382.0,914146886009551.1,1333501254033006.2,823818874.6581613,2407522847.791534,65415602848.28198,2119406088675.6895
0.9754628431115548,4248670631971734.5,6651542463001221.0,976181137786027.4,1423993005189766.2,1015638107.805231,2968094553.113592,80647541121.66234,2613056779904.5576
1.094972099973786,4507424101290923.0,7057026961071785.0,1035632735226584.0,1510717339030033.2,1224564890.8314812,3578661318.604619,97237981009.10762,3150744317017.5713
1.2168715419732616,4756858009663480.0,7447972632361986.0,1092943055923757.2,1594318110045468.8,1450641339.9158456,4239346223.314982,115190265142.95569,3732576476571.7124
1.3412089728127268,4998453316698361.0,7826697394582625.0,1148452367449211.0,1675291679645406.8,1693991487.6861055,4950511739.109673,134514241516.07794,4358872044902.4277
1.4680331522689813,5233380087136834.0,8195032813922893.0,1202429505688560.0,1754030209087479.0,1954805251.6948557,5712712880.060236,155224990286.74146,5030119501603.153
1.597393815314361,5462581797392808.0,8554456008855217.0,1255091245242606.8,1830849915828201.2,2233327349.742198,6526664808.538041,177341943464.38022,5746948455978.803
1.729341691620648,5686832439671018.0,8906178992768195.0,1306615419757961.2,1906010212654645.5,2529849424.646438,7393219820.617579,200888259486.6544,6510109355827.765
1.863928525453061,5906776421543224.0,9251211098559274.0,1357150089315389.0,1979727080506941.8,2844704331.513352,8313350651.176827,225890369537.6839,7320458769203.006
2.001207095962122,6122957190885219.0,9590403763281126.0,1406820117339713.2,2052182662469994.2,3178261929.4251094,9288138175.519491,252377643342.86026,8178948542747.982
2.1412312378813647,6335838244710450.0,9924483397029370.0,1455731997621877.0,2123532305136514.0,3530925948.960192,10318762255.010098,280382140402.2321,9086617731951.8
2.284055862638992,6545818856647139.0,1.0254075989007848e+16,1503977467888478.2,2193909829859995.5,3903131647.8452053,11406494885.947989,309938423813.9656,10044586561888.23
2.4297369798917723,6753246057305043.0,1.0579725851220674e+16,1551636262429338.8,2263431548118578.5,4295344056.512473,12552695072.383455,341083420945.31006,11054051907637.19
2.578331719489608,6958423901937031.0,1.090191011818599e+16,1598778241449786.2,2332199367683218.5,4708056673.851749,13758805014.582405,373856319855.6314,12116283934400.365
2.7298983538794,7161620738785861.0,1.1221050118804372e+16,1645465061057266.5,2400303228691406.5,5141790512.709594,15026347319.594427,408298493494.4567,13232623638513.734
2.884496320956988,7363074980134427.0,1.1537520405807522e+16,1691751499226762.8,2467823037884035.0,5597093421.644315,16356923019.150259,444453445838.0787,14404481100017.256
3.0421862473761276,7562999735773877.0,1.1851656005566956e+16,1737686520393610.5,2534830221567893.0,6074539628.326148,17752210235.296066,482366775627.8445,15633334306097.088
3.2030299723236504,7761586570866275.0,1.216375829812727e+16,1783314138865824.0,2601388985108472.0,6574729463.44275,19213963373.536823,522086154442.99,16920728439419.154
3.3670905717701234,7959008581832247.0,1.2474099830396914e+16,1828674125544818.8,2667557343850719.0,7098289233.737834,20744012751.80616,563661316616.6025,18268275550542.06
3.5344323832055258,8155422935311485.0,1.2782928289421496e+16,1873802591280892.0,2733387974082106.0,7645871220.000865,22344264594.59408,607144059074.3325,19677654552118.406
3.7051210308696363,8350972980192105.0,1.3090469807824258e+16,1918732472136359.8,2798928920904644.5,8218153781.191073,24016701337.24113,652588249601.4943,21150611486416.9
3.879223451487029,8545790017068598.0,1.3396931733391804e+16,1963493935938952.8,2864224191290009.0,8815841549.93229,25763382197.25562,700049842366.1665,22688960028138.0
4.0568079205167695,8739994790500637.0,1.370250496507606e+16,2008114725145518.5,2929314254227977.0,9439665707.713968,27586443978.563587,749586899771.9333,24294582192479.555
4.237944078927105,8933698755219502.0,1.4007365935428708e+16,2052620447767550.0,2994236465110748.0,10090384330.527216,29488102081.599064,801259619904.0337,25969429224573.516
4.422702960505647,9127005156655546.0,1.4311678302629804e+16,2097034825634872.2,3059025427884679.5,10768782797.533762,31470651697.601208,855130368981.0505,27715522651227.824
4.61115701971576,9320009957920740.0,1.4615594402382398e+16,2141379907380551.0,3123713305739632.5,11475674256.836283,33536469169.785397,911263718341.1475,29534955479699.344
4.803380160110075,9512802639019492.0,1.4919256499992964e+16,2185676252068851.0,3188330088974121.0,12211900143.589848,35688013507.475716,969726485584.7909,31429893531234.89
4.9994477633122765,9705466889109204.0,1.5222797875211786e+16,2229943088250046.8,3252903827014654.0,12978330746.63094,37927828042.025406,1030587779570.3127,33402576899535.23
5.199436718578522,9898081208743686.0,1.552634376632484e+16,2274198452332859.5,3317460830264982.5,13775865820.558811,40258542215.568085,1093919049018.9425,35455321526247.4
5.403425452950093,1.0090719435960124e+16,1.5830012195179866e+16,2318459309458936.0,3382025846430351.5,14605435240.82188,42682873495.44669,1159794134534.881,37590520887180.76
5.611493962009095,1.02834512076196e+16,1.6133914690999432e+16,2362741659501210.5,3446622215141353.5,15467999699.867086,45203629408.64472,1228289323886.2874,39810647784248.44
5.823723841249277,1.0476342365449658e+16,1.643815692776136e+16,2407060630356905.0,3511272004044042.0,16364551442.831104,47823709691.7761,1299483410426.278,42118256239213.305
6.040198318074262,1.0669455314652772e+16,1.6742839287450752e+16,2451430560341874.0,3575996128991762.0,17296115041.599525,50546108553.200485,1373457754560.8396,44515983486218.71
6.261002284435747,1.086284934165802e+16,1.7048057359473594e+16,2495865071197793.5,3640814460543516.5,18263748206.354393,53373917044.69586,1450296348193.659,47006552060835.734
6.486222330124463,1.10565808965451e+16,1.735390238488339e+16,2540377132982323.5,3705745918621699.0,19268542633.977577,56310325540.838936,1530085882097.7734,49592771983998.62
6.715946776726952,1.1250703844807252e+16,1.7660461652722526e+16,2584979121914531.0,3770808556893568.0,20311624892.88828,59358626324.86005,1612915816180.471,52277543039744.79
6.950265712261491,1.1445269692410806e+16,1.7967818854670628e+16,2629682872084926.0,3836019638202525.5,21394157344.073772,62522216280.27126,1698878452622.3687,55063857146135.97
7.18927102650672,1.1640327787518604e+16,1.8276054403270456e+16,2674499721803770.5,3901395702178279.0,22517339098.23018,65804599688.02134,1788069011883.975,57954800819147.52
7.433056447036854,1.1835925501756818e+16,1.85852457182358e+16,2719440555249178.5,3966952625990456.5,23682407009.06492,69209391129.33029,1880585711583.9128,60953557729657.22
7.681717575977592,1.20321083934926e+16,1.8895467484705344e+16,2764515839982088.5,4032705679073213.5,24890636702.931923,72740318494.70407,1976529848262.4429,64063411353979.23
7.935351927497144,1.2228920355247842e+16,1.9206791886767156e+16,2809735660816245.0,4098669572532606.5,26143343645.079403,76401226099.94652,2076005882052.3079,67287747718655.734
8.194058966047088,1.2426403747083456e+16,1.951928881912711e+16,2855109750464775.0,4164858503851999.0,27441884242.8811,80196077910.25012,2179121524286.5762,70630058240468.66
8.45794014536803,1.2624599517543102e+16,1.98330260794082e+16,2900647517328458.5,4231286197427822.5,28787656986.509155,84128960873.70947,2285987828079.7583,74093942662847.95
8.72709894827539,1.2823547313538314e+16,2.0148069543244104e+16,2946358070743002.0,4297965941398813.5,30182103627.583755,88204088365.81616,2396719281924.645,77683112090052.72
9.0016409272409,1.3023285580376996e+16,2.0464483324051892e+16,2992250243961864.0,4364910621171847.0,31626710396.40402,92425803746.7078,2511433906353.055,81401392120687.86
9.281673745785717,1.3223851652988364e+16,2.0782329919130856e+16,3038332615116145.0,4432132749997067.0,33123009258.432198,96798584033.12599,2630253353713.605,85252726082280.03
9.567307220701432,1.3425281839265092e+16,2.1101670343532236e+16,3084613526363438.5,4499644496900927.0,34672579210.76013,101327043687.22568,2753303011124.6704,89241178368795.84
9.85865336511546,1.362761149633225e+16,2.1422564252968496e+16,3131101101411523.0,4567457712248756.0,36277047619.348885,106015938524.53403,2880712106665.05,93370937883133.45
10.155826432417769,1.3830875100456352e+16,2.1745070056879532e+16,3177803261580742.0,4635583951175496.0,37938091597.87865,110870169743.51846,3012613818869.159,97646321586751.73
10.458942961066125,1.4035106311223326e+16,2.2069245022644696e+16,3224727740549644.0,4704034495095874.0,39657439429.10554,115894788079.3727,3149145389597.566,102071778158735.1
10.768121820287448,1.4240338030542872e+16,2.239514537181226e+16,3271882097911925.5,4772820371480231.0,41436872029.66288,121094998084.76804,3290448240357.695,106651891766719.25
11.083484256693197,1.4446602456972208e+16,2.272282636912342e+16,3319273731657899.5,4841952372061927.0,43278224459.29614,126476162540.4584,3436668092152.953,111391385952218.27
11.405153941827061,1.4653931135798576e+16,2.305234240501961e+16,3366909889681583.0,4911441069623032.0,45183387475.5643,132043806998.7567,3587955088942.5493,116295127633014.75
11.733257020663602,1.4862355005270616e+16,2.338374707224661e+16,3414797680402882.5,4981296833489355.0,47154309135.0852,137803624463.03296,3744463924797.3335,121368131225391.2
12.067922161076874,1.5071904439327538e+16,2.37170932371048e+16,3462944082585059.0,5051529843851608.0,49192996442.44451,143761480206.5067,3906353974840.8564,126615562889082.8
12.409280604298411,1.5282609287137232e+16,2.4052433105835252e+16,3511355954419119.0,5122150105017084.0,51301517047.93343,149923416733.7334,4073789430067.819,132042744897950.23
12.75746621638438,1.5494498909722188e+16,2.4389818286582044e+16,3560040041939031.5,5193167457685312.0,53482000995.31781,156295658888.30972,4246939436135.794,137655160139476.64
13.112615540712067,1.5707602213923686e+16,2.4729299847324656e+16,3609002986825378.0,5264591590331489.0,55736642520.88682,162884619110.43616,4425978236229.092,143458456746300.47
13.474867851526309,1.5921947683928606e+16,2.507092837013676e+16,3658251333649032.0,5336432049773166.0,58067701905.06881,169696902848.10165,4611085318097.138,149458452863097.62
13.844365208556836,1.6137563410561522e+16,2.541475400208977e+16,3707791536601336.0,5408698250987785.0,60477507377.94434,176739314125.78253,4802445565372.86,155661141552237.88
14.221252512727972,1.6354477118524044e+16,2.576082650309229e+16,3757629965752599.5,5481399486242252.0,62968457080.02413,184018861274.64734,5000249413279.874,162072695841752.88
14.605677562982532,1.6572716191746076e+16,2.610919529092478e+16,3807772912876963.5,5554544933589768.0,65543021079.70649,191542762828.4037,5204693008840.84,168699473919231.78
14.997791114242183,1.6792307696997734e+16,2.6459909483706856e+16,3858226596877423.0,5628143664783599.0,68203743448.866,199318453589.02725,5415978375701.825,175548024475413.12
15.397746936527026,1.701327840589675e+16,2.6813017940012532e+16,3908997168842310.5,5702204652653199.0,70953244398.0658,207353590866.73895,5634313583691.961,182625092201296.34
15.805701875257567,1.7235654815433142e+16,2.7168569296826756e+16,3960090716761038.5,5776736777983181.0,73794222472.9326,215656060898.72876,5859912923239.859,189937623442749.12
16.221815912762718,1.7459463167121792e+16,2.7526612005522876e+16,4011513269924704.5,5851748835932649.0,76729456813.27118,224233985451.22256,6092997084772.485,197492772016660.28
16.64625223101797,1.7684729464884296e+16,2.7887194366021496e+16,4063270803034589.5,5927249542028469.0,79761809476.53792,233095728609.64127,6333793343225.0205,205297905192827.88
17.079177275638333,1.7911479491750728e+16,2.825036455927856e+16,4115369240039556.5,6003247537763003.0,82894227827.33911,242249903761.7126,6582535747793.838,213360609845852.94
17.5207608211511,1.8139738825465244e+16,2.8616170678237948e+16,4167814457721731.5,6079751395824686.0,86129746994.65878,251705380778.51312,6839465317068.137,221688698781445.62
17.97117603757412,1.836953285307177e+16,2.8984660757372852e+16,4220612289047606.0,6156769624986344.0,89471492398.5669,261471293398.56775,7104830239679.217,230290217241647.47
18.430599558325603,1.8600886784548172e+16,2.935588280092742e+16,4273768526300725.5,6234310674675125.0,92922682348.2049,271557046820.24533,7378886080610.144,239173449593596.06
18.899211549492115,1.8833825665553796e+16,2.972988480996512e+16,4327288924010535.5,6312382939244725.0,96486630712.88245,281972325507.8252,7661895993311.399,248346926206566.47
19.37719578048196,1.90683743893465e+16,3.01067148083176e+16,4381179201690519.5,6390994761969795.0,100166749668.17697,292727101216.7503,7954130937772.735,257819430522149.6
19.864739696091597,1.930455770792438e+16,3.0486420867523416e+16,4435445046398061.0,6470154438779972.0,103966552518.96124,303831641243.6949,8255869904704.22,267600006322536.84
20.36203449001343,1.9542400242438536e+16,3.0869051130837012e+16,4490092115126951.0,6549870221749981.0,107889656601.33656,315296516907.2378,8567400145983.439,277697965202005.0
20.869275179813698,1.9781926492922972e+16,3.125465383638358e+16,4545126037042939.0,6630150322360746.0,111939786265.49904,327132612265.04694,8889017411529.732,288122894246813.25
21.38666068340997,2.002316084738206e+16,3.1643277339529424e+16,4600552415571671.0,6711002914545056.0,116120775941.60356,339351133073.6251,9221026192770.03,298884663928853.5
21.91439389707817,2.026612759027256e+16,3.203497013453122e+16,4656376830347483.0,6792436137530522.0,120436573290.75165,351963615996.83026,9563739972864.066,309993436218503.4
22.452681775019734,2.051085091041506e+16,3.24297808755242e+16,4712604839031318.0,6874458098491170.0,124891242443.26381,364981938069.46844,9917481483861.885,321459672922283.1
23.00173541052013,2.0757354908366932e+16,3.282775839690566e+16,4769241979004491.0,6957076875018465.0,129488967326.46225,378418326422.48224,10282582970969.229,333294144251012.44
23.561770118730532,2.100566360328432e+16,3.3228951733162976e+16,4826293768945519.0,7040300517421361.0,134234055084.21909,392285368276.3222,10659386464100.646,345507937624313.1
24.133005521105144,2.1255800939301784e+16,3.3633410138197216e+16,4883765710295856.0,7124137050864422.0,139130939590.59958,406596021209.29596,11048244056905.129,358112466717434.0
24.715665631527248,2.150779079145299e+16,3.4041183104184036e+16,4941663288620186.0,7208594477352154.0,144184185059.95868,421363623707.8089,11449518193451.41,371119480756493.9
25.309978944157795,2.1761656971155084e+16,3.445232038001582e+16,4999991974866552.0,7293680777567305.0,149398489755.91504,436601906005.5558,11863581962765.55,384541074068370.4
25.91617852304095,2.201742323127831e+16,3.486687198936349e+16,5058757226531230.0,7379403912569909.0,154778689801.67044,452325001218.9065,12290819401417.193,398389695891616.75
26.53450209350177,2.227511327081941e+16,3.528488824839459e+16,5117964488732406.0,7465771825363628.0,160329763094.20535,468547456785.8387,12731625804354.525,412678160454898.4
27.165192135371807,2.25347507391965e+16,3.5706419783182224e+16,5177619195197035.0,7552792442335332.0,166056833324.91547,485284246215.96704,13186408044192.83,427419657329589.2
27.808495978079243,2.2796359240182404e+16,3.61315175468378e+16,5237726769164448.0,7640473674573213.0,171965174109.32687,502550781159.3375,13655584899165.426,442627762063314.44
28.464665897640828,2.3059962335489588e+16,3.656023283639669e+16,5298292624210233.0,7728823419068544.0,178060213228.578,520362923801.8448,14139587389950.047,458316447101340.56
29.133959215593645,2.3325583548023252e+16,3.699261730948758e+16,5359322164993503.0,7817849559805796.0,184347536985.39175,538736999595.2626,14638859125588.338,474500093002882.2
29.816638399905518,2.3593246364812172e+16,3.7428723000810936e+16,5420820787930377.0,7907559968745118.0,190832894677.34442,557689810330.0496,15153856658719.945,491193499959519.06
30.51297116790363,2.3862974239631492e+16,3.786860233845338e+16,5482793881796528.0,7997962506701220.0,197522203190.2704,577238647559.2601,15685049850357.545,508411899623048.75
31.223230591261704,2.4134790595326316e+16,3.831230816006269e+16,5545246828261155.0,8089065024122307.0,204421551714.71008,597401306382.0359,16232922244433.223,526170967250280.2
31.947695203086937,2.440871882584731e+16,3.875989372890507e+16,5608185002354548.0,8180875361772291.0,211537206588.3524,618196099595.3201,16797971452351.215,544486834172368.3
32.686649107148675,2.4684782298006144e+16,3.9211412749829576e+16,5671613772871613.0,8273401351319071.0,218875616267.49387,639641872222.6069,17380709547786.303,563376100596472.2
33.44038208929165,2.496300435296012e+16,3.96669193851576e+16,5735538502712751.0,8366650815832226.0,226443416430.57764,661758016428.7001,17981663471971.586,582855848747637.4
34.20918973107749,2.524340830743272e+16,4.012646827051994e+16,5799964549164483.0,8460631570191997.0,234247435216.94006,684564486829.6017,18601375449724.164,602943656358979.8
34.993373525699035,2.5526017454677376e+16,4.059011453066023e+16,5864897264120777.0,8555351421412436.0,242294698603.9459,708081816206.8484,19240403416460.95,623657610518341.1
35.793240996213015,2.5810855065191004e+16,4.105791379522239e+16,5930341994247104.0,8650818168880463.0,250592435925.75146,732331131635.74,19899321456462.023,645016321879792.9
36.60910581613728,2.609794438718263e+16,4.152992221454116e+16,5996304081087948.0,8747039604512932.0,259148085536.98535,757334171037.0898,20578720252643.55,667038939248442.9
37.44128793246003,2.6387308646802616e+16,4.200619647545187e+16,6062788861119591.0,8844023512833489.0,267969300624.70004,783113300162.2941,21279207548105.016,689745164547242.6
38.29011369110923,2.667897104813746e+16,4.248679381713658e+16,6129801665748916.0,8941777670970824.0,277063955171.9989,809691530021.6687,22001408619722.53,713155268174471.6
39.15591596493141,2.697295477297407e+16,4.297177204702264e+16,6197347821259164.0,9040309848579612.0,286440150076.79553,837092534766.1495,22745966764062.8,737290104760938.8
40.03903428423004,2.7269282980337564e+16,4.346118955674837e+16,6265432648703852.0,9139627807685750.0,296106219429.22394,865340670032.6646,23513543795896.23,762171129335847.2
40.93981496991464,2.75679788058068e+16,4.395510533821186e+16,6334061463749421.0,9239739302456774.0,306070736951.2734,894460991763.5742,24304820559593.195,787820413910637.5
41.85861126931294,2.7869065360609748e+16,4.445357899971775e+16,6403239576467406.0,9340652078898714.0,316342522602.2621,924479275510.8064,25120497453692.035,814260664490042.1
42.7957834946992,2.8172565730502372e+16,4.495667078223419e+16,6472972291076910.0,9442373874480518.0,326930649353.834,955422036235.4039,25961294968929.152,841515238519901.5
43.751699164593184,2.847850297443321e+16,4.5464441575777144e+16,6543264905637625.0,9544912417686096.0,337844450138.21875,987316548613.407,26827954240029.504,869608162781352.1
