t(s),Total solute volume 1,Total retention volume 1,Total 1 volume 1,Total 2 volume 1,Total 3 volume 1,Total 4 volume 1,Total 5 volume 1,Total 6 volume 1
0.1,1117071271046687.6,1512117690109863.2,171218609237430.47,223827809825744.56,0.0,0.0,0.0,0.0
0.202,1650704703453998.5,2307926844901746.5,253011041346519.06,330752064705601.3,49012653645.98996,121006395376.20157,2555593325275.935,70733423021328.23
0.30604000000000003,2035084729625661.2,2937768768930896.0,311926721999522.1,407770376711031.6,122057197640.76079,301346412616.41614,6364473179288.897,176199063805134.38
0.41216080000000005,2342666356472680.0,3490304714560569.5,359071161495398.5,469400576015380.06,212867151696.51013,525549473709.4609,11099814829863.287,307328389121841.4
0.5204040160000001,2601242754450871.0,3998465251554590.0,398704345950843.9,521211586703593.4,318315560167.19275,785896070369.6991,16598568154425.889,459603784664321.7
0.6308120963200001,2824968754573271.5,4478512976269702.0,432995850913382.94,566039615468658.9,436470278862.9207,1077616485490.5966,22759991326035.785,630234677223995.1
0.7434283382464002,3022245566849058.0,4939830613614430.0,463233368176586.6,605568014633424.0,566004698680.5917,1397435963111.5842,29514918790245.58,817305304503324.4
0.8582969050113283,3198563075630106.5,5388396784214755.0,490258357364243.9,640896793540395.1,705950074930.685,1742963253255.6768,36812845821413.91,1019416798530405.5
0.9754628431115548,3357753938410044.0,5828296164263129.0,514658267377319.8,672793902615982.2,855570589188.2842,2112382163605.0461,44615413543094.08,1235506689563898.5
1.094972099973786,3502625928253300.5,6262469080852267.0,536863458403864.3,701821935965988.8,1014292437291.752,2504276492455.5156,52892711265226.22,1464746478034135.8
1.2168715419732616,3635312692467091.0,6693120735044045.0,557200964301266.5,728408412969288.8,1181660106526.236,2917522086858.1494,61620996626285.97,1706478486486729.2
1.3412089728127268,3757482818977044.5,7121961210885346.0,575926537153621.2,752887668954054.5,1357307709705.9924,3351216073409.0234,70781200877527.38,1960174461139990.5
1.4680331522689813,3870471655710543.5,7550354360853683.0,593244851830094.8,775527267876811.4,1540939280382.9365,3804628212312.4595,80357901439245.3,2225407116504288.8
1.597393815314361,3975368270512140.5,7979414429991529.0,609322834727917.4,796545426499890.2,1732314710211.6375,4277166180796.6646,90338588660663.78,2501829828699903.5
1.729341691620648,4073074991720237.5,8410071138559175.0,624298789828242.5,816122944549894.1,1931239403228.8105,4768350032829.661,100713126392470.86,2789161696632276.0
1.863928525453061,4164349464024423.0,8843114907873164.0,638288844789281.9,834411631459084.6,2137556471471.874,5277792932873.6,111473345072675.55,3087176273123350.0
2.001207095962122,4249835149822984.5,9279229133432174.0,651391626028522.9,851540417929066.2,2351140722988.455,5805186314678.832,122612728272902.73,3395692884341031.0
2.1412312378813647,4330083958832729.0,9719013748828342.0,663691727266282.1,867619890230674.1,2571893947737.6147,6350288244304.174,134126166920325.92,3714569823386295.5
2.284055862638992,4405573371902153.0,1.0163002778293378e+16,675262334170664.6,882745721306154.8,2799741164782.539,6912914156371.691,146009763643938.6,4043698931949317.0
2.4297369798917723,4476719624393009.0,1.061167764406597e+16,686167245034610.4,897001312326224.2,3034627595548.3936,7492929382835.583,158260674979869.6,4383001230353883.5
2.578331719489608,4543888011845512.0,1.1065477414890356e+16,696462450372213.4,910459857638445.9,3276516194950.858,8090243059033.037,170876982665724.0,4732423353114476.0
2.7298983538794,4607401056007556.0,1.152480681072777e+16,706197384563274.6,923185980996287.2,3525385617683.547,8704803104071.538,183857587625534.06,5091934612813342.0
2.884496320956988,4667545054331563.0,1.199004253510992e+16,715415929724563.1,935237047883233.6,3781228528525.13,9336592050553.346,197202121893188.94,5461524560698310.0
3.0421862473761276,4724575390468610.0,1.2461538343048398e+16,724157229673494.5,946664229577665.0,4044050187892.4834,9985623553853.465,210910874888417.22,5841200944698459.0
3.2030299723236504,4778720882717621.0,1.2939629140468046e+16,732456356434742.4,957513374452535.5,4313867259999.2007,10651939450996.275,224984731300605.25,6230987988851573.0
3.3670905717701234,4830187376635286.0,1.3424634333100096e+16,740344860895986.4,967825727827444.5,4590706802808.188,11335607268379.459,239425118452532.38,6630924935217654.0
3.5344323832055258,4879160737417112.0,1.3916860587478544e+16,747851231463790.2,977638531552647.8,4874605407768.835,12036718099324.594,254233961475081.56,7041064802062836.0
3.7051210308696363,4925809360930012.0,1.441660412692204e+16,755001278941015.0,986985527145217.9,5165608463967.752,12755384788821.48,269413644970078.5,7461473321682920.0
3.879223451487029,4970286295247210.0,1.4924152656390324e+16,761818461704175.9,995897380881458.0,5463769526389.648,13491740375345.23,284966980102697.56,7892228028553052.0
4.0568079205167695,5012731044391840.0,1.5439786988705778e+16,768324162171429.2,1004402045213388.5,5769149771897.648,14245936749283.068,300897176268841.9,8333417474139102.0
4.237944078927105,5053271110807072.0,1.596378242864409e+16,774537923224017.6,1012525067833834.1,6081817529593.584,15018143495042.854,317207816642038.25,8785140549112495.0
4.422702960505647,5092023321496123.0,1.6496409959334992e+16,780477651469797.2,1020289857395368.9,6401847874622.208,15808546889846.592,333902837029690.06,9247505897179530.0
4.61115701971576,5129094973865970.0,1.703793726621469e+16,786159792871931.1,1027717913103287.9,6729322276391.5625,16617349036925.346,350986507568031.1,9720631407492172.0
4.803380160110075,5164584830387008.0,1.758862962669484e+16,791599485204912.2,1034829024015774.1,7064328293710.614,17444767114604.314,368463416864839.2,1.0204643774813976e+16
4.9994477633122765,5198583985757393.0,1.814875068821921e+16,796810690968802.4,1041641442797803.8,7406959310578.106,18291032725813.082,386338458263273.2,1.0699678118395558e+16
5.199436718578522,5231176625976036.0,1.8718563153083524e+16,801806313735799.0,1048172037816761.9,7757314307358.814,19156391335027.87,404616817952433.06,1.1205877651960086e+16
5.403425452950093,5262440695318076.0,1.929832938500434e+16,806598300380635.0,1054436426784480.9,8115497662902.805,20041101781677.418,423303964692979.7,1.172339339838357e+16
5.611493962009095,5292448484473610.0,1.988831194973587e+16,811197731227249.9,1060449094602703.1,8481618983837.563,20945435860707.457,442405640961297.2,1.2252383943626462e+16
5.823723841249277,5321267150903806.0,2.0488774099882748e+16,815614899806182.6,1066223497626973.5,8855792957820.773,21869677962378.605,461927855344814.2,1.2793015225280728e+16
6.040198318074262,5348959180678587.0,2.1099980212329096e+16,819859383642510.9,1071772156205131.6,9238139228006.08,22814124764514.977,481876876045253.7,1.3345460351765054e+16
6.261002284435747,5375582799596024.0,2.1722196185306856e+16,823940107270010.2,1077106737053415.2,9628782286361.822,23779084971383.97,502259225366879.8,1.390989944876279e+16
6.486222330124463,5401192340182841.0,2.2355689800987132e+16,827865398482998.5,1082238126792420.1,10027851383809.957,24764879094189.285,523081675083795.5,1.4486519529967094e+16
6.715946776726952,5425838570182849.0,2.3000731058549344e+16,831643038685247.0,1087176497766406.1,10435480455426.062,25771839268841.438,544351242594690.56,1.5075514389595868e+16
6.950265712261491,5449568987316876.0,2.365759248191869e+16,835280308069175.2,1091931367104394.9,10851808059176.734,26800309107244.92,566075187785645.0,1.5677084514476198e+16
7.18927102650672,5472428084411232.0,2.432654940573004e+16,838784026253330.8,1096511649844042.6,11276977326867.31,27850643578832.055,588261010531915.8,1.6291437013783806e+16
7.433056447036854,5494457588417270.0,2.5007880242552236e+16,842160588917963.9,1100925706824012.0,11711135926143.736,28923208919492.277,610916448778503.1,1.6918785564768852e+16
7.681717575977592,5515696676360289.0,2.5701866733972372e+16,845416000904534.8,1105181387953728.9,12154436032537.352,30018382565405.957,634049477146863.2,1.7559350373009028e+16
7.935351927497144,5536182170848430.0,2.640879418777212e+16,848555906182245.4,1109286071387524.0,12607034310666.668,31136553109598.203,657668306021693.5,1.8213358145911932e+16
8.194058966047088,5555948717425550.0,2.7128951703122416e+16,851585615031711.9,1113246699060878.1,13069091903817.795,32278120279298.137,681781381077297.5,1.888104207834385e+16
8.45794014536803,5575028945757571.0,2.7862632385465344e+16,854510128750749.6,1117069808987360.4,13540774431219.629,33443494932417.945,706397383207987.6,1.9562641849398e+16
8.72709894827539,5593453616390408.0,2.8610133552531436e+16,857334162148615.6,1120761564664542.4,14022251992409.71,34633099071667.754,731525228831141.6,2.0258403629432612e+16
9.0016409272409,5611251754601743.0,2.9371756932756156e+16,860062164062092.0,1124327781893926.0,14513699178159.074,35847365874996.33,757174070535304.5,2.0968580096609956e+16
9.281673745785717,5628450772684120.0,3.0147808857202012e+16,862698336098363.2,1127773953282807.0,15015295087484.537,37086739741201.67,783353298048891.5,2.169343046225916e+16
9.567307220701432,5645076581836484.0,3.0938600445954924e+16,865246649785152.8,1131105270664031.0,15527223350332.312,38351676349687.85,810072539507889.6,2.2433220504461316e+16
9.85865336511546,5661153694703947.0,3.17444477898515e+16,867710862287449.0,1134326645641895.2,16049672155563.549,39642642733463.06,837341663003458.8,2.3188222609325764e+16
10.155826432417769,5676705319484980.0,3.2565672128291828e+16,870094530831759.1,1137442728448430.0,16582834283914.785,40960117364577.43,865170778392513.9,2.3958715819485652e+16
10.458942961066125,5691753446421806.0,3.340260002380714e+16,872401025962877.2,1140457925273505.0,17126907145642.092,42304590251287.62,893570239356248.9,2.4744985889395764e+16
10.768121820287448,5706318927398461.0,3.4255563533979424e+16,874633543744240.8,1143376414213905.5,17682092822592.27,43676563046322.92,922550645693339.5,2.5547325347060584e+16
11.083484256693197,5720421549291981.0,3.5124900381243536e+16,876795117000804.0,1146202159970712.8,18248598114471.008,45076549165688.836,952122845836053.1,2.6366033561863784e+16
11.405153941827061,5734080101652336.0,3.601095412104972e+16,878888625692649.1,1148938927410375.2,18826634589105.785,46505073917519.02,982297939578798.9,2.7201416818208972e+16
11.733257020663602,5747312439226058.0,3.691407430881325e+16,880916806498276.0,1151590294092555.5,19416418636522.43,47962674640533.734,1013087281009917.2,2.805378839470949e+16
12.067922161076874,5760135539784549.0,3.7834616666038296e+16,882882261678200.4,1154159661857222.0,20018171526675.895,49449900851720.51,1044502481638521.4,2.8923468648701496e+16
12.409280604298411,5772565557670694.0,3.877294324596466e+16,884787467282286.1,1156650267553766.5,20632119470693.168,50967314402893.52,1076555413709185.0,2.981078510587522e+16
12.75746621638438,5784617873435443.0,3.9729422599055096e+16,886634780757788.4,1159065192986745.0,21258493685503.047,52515489645830.555,1109258213698143.8,3.0716072554845692e+16
13.112615540712067,5796307139899566.0,4.0704429938612296e+16,888426448009424.1,1161407374145226.2,21897530461742.266,54095013605724.734,1142623285985412.5,3.1639673146505188e+16
13.474867851526309,5807647324941675.0,4.169834730678933e+16,890164609957710.8,1163679609776284.0,22549471234840.418,55706486162716.14,1176663306697951.8,3.2581936498018156e+16
13.844365208556836,5818651751285761.0,4.271156374123755e+16,891851308637354.9,1165884569357193.0,23214562659197.082,57350520241304.38,1211391227719610.8,3.354321980133715e+16
14.221252512727972,5829333133534177.0,4.374447544261363e+16,893488492873510.8,1168024800515781.2,23893056685378.043,59027742007463.36,1246820280864186.0,3.4523887936133156e+16
14.605677562982532,5839703612670060.0,4.47974859431547e+16,895078023570076.5,1170102735943648.8,24585210640262.777,60738791073312.48,1282963982208390.5,3.552431358704895e+16
14.997791114242183,5849774788230988.0,4.587100627651207e+16,896621678641126.1,1172120699842833.0,25291287310089.81,62484320709207.47,1319836136582048.0,3.654487736519572e+16
15.397746936527026,5859557748338392.0,4.6965455149022376e+16,898121157613645.5,1174080913942801.0,26011555026348.164,64264998063150.64,1357450842213213.0,3.758596793382486e+16
15.805701875257567,5869063097749799.0,4.808125911258528e+16,899578085927231.4,1175985503121278.2,26746287754476.16,66081504387423.56,1395822495526328.0,3.864798213811865e+16
16.221815912762718,5878300984086315.0,4.921885273930096e+16,900994018954089.8,1177836500659471.0,27495765185331.55,67934535272371.59,1434965796091905.5,3.973132513905162e+16
16.64625223101797,5887281122374215.0,5.037867879802134e+16,902370445760646.5,1179635853159453.8,28260272829404.66,69824800887280.41,1474895751726439.2,4.083641055128384e+16
17.079177275638333,5896012818027608.0,5.156118843294703e+16,903708792630200.2,1181385425149219.8,29040102113751.535,71753026228300.88,1515627683741734.5,4.196366058505623e+16
17.5207608211511,5904504988387826.0,5.276684134441151e+16,905010426364365.0,1183087003398534.8,29835550481628.418,73719951373391.53,1557177232342915.5,4.311350619206291e+16
17.97117603757412,5912766182925860.0,5.399610597197211e+16,906276657379586.5,1184742300966893.5,30646921494814.61,75726331744255.1,1599560362174760.0,4.4286387215286e+16
18.430599558325603,5920804602204763.0,5.524945967993309e+16,907508742613603.0,1186352961003038.0,31474524938614.63,77772938375267.8,1642793368016226.2,4.54827525427816e+16
18.899211549492115,5928628115691215.0,5.652738894541459e+16,908707888255493.6,1187920560313838.2,32318676929533.164,79860558189395.75,1686892880623182.8,4.670306026541192e+16
19.37719578048196,5936244278497910.0,5.783038954908106e+16,909875252311871.0,1189446612719001.0,33179700025622.594,81989994281114.36,1731875872719630.5,4.794777783852579e+16
19.864739696091597,5943660347131986.0,5.915896676863501e+16,911011947020713.8,1190932572206559.0,34057923339503.242,84162066206348.98,1777759665137871.5,4.921738224759207e+16
20.36203449001343,5950883294318606.0,6.0513635575183e+16,912119041123436.0,1192379835903088.8,34953682654062.78,86377610279465.72,1824561933108191.5,5.051236017779622e+16
20.869275179813698,5957919822963123.0,6.189492083257346e+16,913197562004943.6,1193789746871310.2,35867320540839.84,88637479877346.8,1872300712698953.0,5.1833208187616904e+16
21.38666068340997,5964776379310730.0,6.330335749980555e+16,914248497710661.5,1195163596746878.5,36799186481104.33,90942545750597.75,1920994407407892.8,5.318043288639775e+16
21.91439389707817,5971459165357438.0,6.473949083660779e+16,915272798848839.5,1196502628225204.0,37749636989646.195,93293696341930.94,1970661794905857.0,5.4554551115938856e+16
22.452681775019734,5977974150562433.0,6.620387661227737e+16,916271380385733.8,1197808037408221.0,38719035741286.96,95691838111785.84,2021322033934060.5,5.59560901361339e+16
23.00173541052013,5984327082907949.0,6.769708131787728e+16,917245123340820.6,1199080976020480.2,39707753700131.95,98137895871247.03,2072994671356317.8,5.7385587814680344e+16
23.561770118730532,5990523499349080.0,6.921968238187848e+16,918194876388493.2,1200322553502989.2,40716169251582.45,100632813122329.16,2125699649367681.5,5.8843592820896264e+16
24.133005521105144,5996568735693521.0,7.0772268389340664e+16,919121457372351.9,1201533838992784.0,41744668337126.945,103177552405699.86,2179457312861062.0,6.033066482367803e+16
24.715665631527248,6002467935947172.0,7.235543930471848e+16,920025654737666.0,1202715863195542.2,42793644591937.06,105773095655922.61,2234288416953532.2,6.184737469363669e+16
25.309978944157795,6008226061160053.0,7.396980669838189e+16,920908228887225.1,1203869620158037.5,43863499485289.73,108420444564301.78,2290214134674153.5,6.339430470945292e+16
25.91617852304095,6013847897803768.0,7.561599397693803e+16,921769913465376.2,1204996068946697.0,44954642463842.984,111120620949417.17,2347256064815183.5,6.497204876849393e+16
26.53450209350177,6019338065709521.0,7.729463661744082e+16,922611416574745.4,1206096135238202.8,46067491097791.89,113874667135442.78,2405436239948662.0,6.658121260173644e+16
27.165192135371807,6024701025594373.0,7.900638240557374e+16,923433421929808.2,1207170712827493.5,47202471229933.93,116683646338346.64,2464777134610569.5,6.822241399304304e+16
27.808495978079243,6029941086200424.0,8.075189167789312e+16,924236589951124.6,1208220665058228.5,48360017127673.734,119548643060071.98,2525301673654507.5,6.989628300284113e+16
28.464665897640828,6035062411070618.0,8.253183756821712e+16,925021558803942.2,1209246826180505.8,49540571637996.62,122470763490807.23,2587033240777543.5,7.160346219625556e+16
29.133959215593645,6040069024983223.0,8.434690625824038e+16,925788945384398.0,1210250002640101.8,50744586345446.375,125451135919450.88,2649995687220139.0,7.334460687574766e+16
29.816638399905518,6044964820065100.0,8.619779723246925e+16,926539346256539.9,1211230974303383.8,51972521733136.055,128490911152388.72,2714213340642968.0,7.512038531831573e+16
30.51297116790363,6049753561602710.0,8.808522353755078e+16,927273338543025.5,1212190495621713.2,53224847346831.766,131591262940696.66,2779711014182894.0,7.69314790173129e+16
31.223230591261704,6054438893569091.0,9.000991204608968e+16,927991480772230.8,1213129296738819.5,54502041962138.82,134753388415890.17,2846514015690835.5,7.877858292894072e+16
31.947695203086937,6059024343882626.0,9.197260372503227e+16,928694313684320.5,1214048084544552.0,55804593754829.945,137978508534344.84,2914648157154104.5,8.066240572347734e+16
32.686649107148675,6063513329413762.0,9.397405390870536e+16,929382360998622.9,1214947543678050.8,57133000474352.19,141267868530516.56,2984139764306018.5,8.258367004130379e+16
33.44038208929165,6067909160753603.0,9.601503257659213e+16,930056130144553.4,1215828337483245.8,58487769620548.31,144622738379084.47,3055015686425523.5,8.454311275378547e+16
34.20918973107749,6072215046758247.0,9.809632463593483e+16,930716112958140.6,1216691108919399.5,59869418623632.766,148044413266164.7,3127303306329789.5,8.654148522907933e+16
34.993373525699035,6076434098881425.0,1.0021873020924298e+17,931362786346102.1,1217536481429227.8,61278475027460.71,151534214069713.34,3201030550562685.0,8.857955360292632e+16
35.793240996213015,6080569335307211.0,1.0238306492679846e+17,931996612919287.1,1218365059766998.5,62715476676129.805,155093487849272.72,3276225899782074.5,9.065809905449746e+16
36.60910581613728,6084623684893975.0,1.0459016022424085e+17,932618041597198.5,1219177430788763.8,64180971903953.7,158723608345198.5,3352918399349190.0,9.277791808736246e+16
37.44128793246003,6088599990940160.0,1.0684086364531682e+17,933227508185164.1,1219974164206899.2,65675519728851.445,162425976487510.84,3431137670123093.0,9.493982281564507e+16
38.29011369110923,6092501014781320.0,1.0913603914988547e+17,933825435925697.4,1220755813310880.5,67199690049189.35,166202020914526.53,3510913919463417.0,9.714464125544035e+16
39.15591596493141,6096329439227927.0,1.1147656742725885e+17,934412236025401.1,1221522915656070.2,68754063844120.47,170053198501409.88,3592277952444792.0,9.939321762155922e+16
40.03903428423004,6100087871852308.0,1.1386334621497075e+17,934988308158798.6,1222275993722368.0,70339233377462.16,173980994898813.66,3675261183286160.5,1.0168641262967506e+17
40.93981496991464,6103778848133050.0,1.1629729062305613e+17,935554040950269.5,1223015555544216.5,71955802405154.9,177986925081752.38,3759895646998477.0,1.0402510380394318e+17
41.85861126931294,6107404834464256.0,1.1877933346393133e+17,936109812435294.0,1223742095313586.8,73604386386343.77,182072533908874.5,3846214011254114.5,1.064101857901687e+17
42.7957834946992,6110968231036978.0,1.213104255879601e+17,936655990502119.5,1224456093957347.0,75285612698126.08,186239396692299.1,3934249588481712.0,1.0884257067459163e+17
43.751699164593184,6114471374599487.0,1.2389153622479774e+17,937192933314817.0,1225158019690289.2,77000120854009.83,190489119778173.06,4024036348189794.5,1.1132318830837117e+17
