t(s),Total solute volume 1,Total retention volume 1,Total 1 volume 1,Total 2 volume 1,Total 3 volume 1,Total 4 volume 1,Total 5 volume 1,Total 6 volume 1
0.1,964857416365797.9,1154672529873703.2,88762465329957.31,101052648177948.16,0.0,0.0,0.0,0.0
0.202,1453535279712320.2,1739491241071745.5,133718592004095.25,152233468005572.03,5407730.055995072,10792918.58398476,165731292.56238243,3719417818.269482
0.30604000000000003,1825758783130167.0,2184947776513661.8,167961450463201.03,191217643928106.6,13720682.455559067,27384177.52008886,420501316.42239696,9437386010.251541
0.41216080000000005,2140612338351943.0,2561749737182836.0,196926536283383.25,224193278858579.47,24371850.369863737,48642123.78224415,746931907.8856794,16763743051.565178
0.5204040160000001,2420228871213147.5,2896384048469373.5,222649977341201.97,253478426029458.47,37109625.488336116,74064589.01051106,1137311798.2328537,25525399554.468693
0.6308120963200001,2675636308265205.5,3202048048903110.5,246146292401656.2,280228076001464.2,51799093.108292,103382305.95790659,1587506156.699666,35629547227.72962
0.7434283382464002,2913244325892168.0,3486412326353246.5,268005142352420.4,305113534993907.2,68363165.42309906,136441420.23666155,2095152420.1475961,47023157746.468956
0.8582969050113283,3137159091125288.0,3754390817278672.0,288604275764518.6,328564855211137.44,86758396.75318862,173155221.53443852,2658919078.996618,59676345035.80845
0.9754628431115548,3350194410340194.5,4009350868766895.0,308202549944292.7,350876735729785.9,106963068.41516852,213480362.99678996,3278140504.6475973,73574168689.50188
1.094972099973786,3554376419170819.5,4253717210662773.5,326986360095366.75,372261380312362.2,128970590.7207435,257403692.71709767,3952614735.8142295,88712095210.27254
1.2168715419732616,3751220650693444.5,4489303528147514.0,345095128323338.6,392877515657813.0,152785538.74990633,304934341.80141217,4682481984.224826,105093271055.38782
1.3412089728127268,3941895448733891.0,4717508021303711.0,362636336912023.0,412847506207753.75,178421123.5418931,356098677.2878759,5468147132.612044,122726783106.77098
1.4680331522689813,4127323906331182.5,4939435396579332.0,379694906195490.5,432268030492722.1,205897504.06372905,410936933.11795723,6310228000.58424,141626497505.94687
1.597393815314361,4308250390003577.5,5155976477442166.0,396339314486033.56,451217048434532.4,235240620.29412368,469500881.16694164,7209519581.456283,161810256957.66763
1.729341691620648,4485285594537648.5,5367862122139548.0,412625742908516.94,469758520080605.1,266481364.39426735,531852177.03942364,8166968640.640242,183299310597.89825
1.863928525453061,4658938020843142.0,5575700893715996.0,428600971218935.75,487945702381898.06,299654979.6804288,598061160.5191582,9183655295.61591,206117900562.17963
2.001207095962122,4829636557375607.0,5780006083529744.0,444304455191924.0,505823514218590.75,334800618.0805926,668205972.3265717,10260779453.055191,230292957571.64835
2.1412312378813647,4997747052477861.0,5981215543611502.0,459769851200323.25,523430272075225.25,371961010.9328689,742371897.0875188,11399650719.597704,255853874484.13104
2.284055862638992,5163584720060782.0,6179706532720662.0,475026157481019.9,540798989327919.75,411182222.824617,820650872.0374258,12601680857.62195,282832336966.79285
2.4297369798917723,5327423589239816.0,6375807024863191.0,490098583458236.75,557958365935458.3,452513467.59598494,903141119.7952385,13868378146.204967,311262196930.0013
2.578331719489608,5489503814078194.0,6569804456972776.0,505009222206468.9,574933554012459.9,496006971.7950902,989946875.8428893,15201343196.357971,341179378601.8114
2.7298983538794,5650037406270064.0,6761952589304924.0,519777577831074.75,591746758231867.8,541717875.0078963,1081178189.6005278,16602265896.381525,372621809967.459
2.884496320956988,5809212786810675.0,6952476952500379.0,534420984201105.25,608417712536149.5,589704159.3249389,1176950783.654026,18072923250.193542,405629374251.21326
3.0421862473761276,5967198440422029.0,7141579220906900.0,548954941139728.6,624964062877163.8,640026602.1959014,1277385959.6607118,19615177932.436947,440243877485.96893
3.2030299723236504,6124145879390646.0,7329440759468790.0,563393387083746.4,641401677628502.1,692748748.3418069,1382610542.2909486,21230977427.656815,476509029191.97205
3.3670905717701234,6280192069554147.0,7516225526965629.0,577748922263243.2,657744901666944.2,747936897.4235121,1492756854.6166446,22922353652.368626,514470433893.76953
3.5344323832055258,6435461432846641.0,7702082472516313.0,592032992926607.1,674006766105536.0,805660104.9225237,1607962719.8693912,24691422982.05259,554175591725.4706
3.7051210308696363,6590067513162528.0,7887147529174859.0,606256044592363.2,690199162764916.0,865990194.2553716,1728371485.6188514,26540386622.427155,595673906763.1761
3.879223451487029,6744114372075426.0,8071545284242973.0,620427650448934.8,706332990351482.5,929001778.5697358,1854132067.274371,28471531277.446163,639016702017.1357
4.0568079205167695,6897697765971624.0,8255390388001183.0,634556619645529.8,722418277742412.1,994772290.9970819,1985399008.4643648,30487230076.46541,684257240240.8562
4.237944078927105,7050906144936972.0,8438788749132608.0,648651089185149.2,738464288602303.4,1063382022.3887514,2122332556.3513958,32589943730.759335,731450749887.7563
4.422702960505647,7203821505238072.0,8621838554943899.0,662718602348984.6,754479610666337.0,1134914165.7593675,2265098750.334007,34782221895.600624,780654455681.571
4.61115701971576,7356520120741086.0,8804631146711223.0,676766175983566.0,770472232344100.1,1209454866.8166175,2413869522.8959036,37066704718.87107,831927613373.3292
4.803380160110075,7509073173354627.0,8987251774486242.0,690800358502837.9,786449608765602.6,1287093280.3845546,2568822816.690398,39446126182.81309,885331820882.6111
4.9994477633122765,7661547300352608.0,9169780250957814.0,704827280222492.1,802418719033181.8,1367921630.4991868,2730142686.678217,41923309527.410736,940929975675.3054
5.199436718578522,7814005068333047.0,9352291520461540.0,718852696987428.8,818386115967789.9,1452035278.3999302,2898019462.403891,44501178915.52264,998787939628.9175
5.403425452950093,7966505389555128.0,9534856156103642.0,732882028455813.2,834357969641568.6,1539532792.1260972,3072649869.264336,47182755208.263016,1058973513284.0201
5.611493962009095,8119103886031676.0,9717540795826350.0,746920391598210.8,850340105528471.1,1630516022.0326123,3254237183.6143403,49971159861.45578,1121556754925.6543
5.823723841249277,8271853210281778.0,9900408526319054.0,760972630205356.9,866338038097734.8,1725090180.269457,3442991391.3945045,52869617361.49274,1186610035268.8528
6.040198318074262,8424803328701617.0,1.0083519222196872e+16,775043340956973.5,882357000492229.6,1823363924.4053879,3639129355.030465,55881457788.19322,1254208094979.5627
6.261002284435747,8578001772740764.0,1.0266929846653492e+16,789136896528840.8,898401970834954.9,1925449445.1085637,3842874988.429176,59010119501.99673,1324428104986.1887
6.486222330124463,8731493862243756.0,1.0450694718806804e+16,803257466139196.8,914477695620343.9,2031462557.8230505,4054459439.9500723,62259151953.61975,1397349729539.7168
6.715946776726952,8885322904637673.0,1.0634865752141304e+16,817409033873097.8,930588710575812.8,2141522798.4025645,4274121283.274454,65632218614.992004,1473055191995.8142
6.950265712261491,9039530373086266.0,1.081949266778203e+16,831595415071751.5,946739359320424.1,2255753522.682265,4502106716.134486,69133100030.88557,1551629343305.848
7.18927102650672,9194156066266852.0,1.1004623185778976e+16,845820271031295.1,962933810098848.6,2374282009.9861436,4738669766.897035,72765696991.15855,1633159733214.9346
7.433056447036854,9349238252040384.0,1.119030319711861e+16,860087122219758.6,979176070828375.9,2497239570.5822473,4984072509.026678,76534033823.99046,1717736684175.5754
7.681717575977592,9504813796961140.0,1.1376576918792158e+16,874399360191376.8,995470002662917.1,2624761657.1107855,5238585283.478017,80442261810.87923,1805453367994.1018
7.935351927497144,9660918283302412.0,1.1563487033927146e+16,888760258352411.1,1011819332249450.0,2756987980.021924,5502486929.090639,84494662724.52167,1896405885235.1655
8.194058966047088,9817586115044576.0,1.1751074818712194e+16,903172981711566.1,1028227662828515.8,2894062627.070128,5776065021.080403,88695652491.01988,1990693347416.5854
8.45794014536803,9974850614079836.0,1.1939380257617592e+16,917640595730392.4,1044698484310058.9,3036134186.9214997,6059616117.739348,93049784978.1404,2088417962033.3018
8.72709894827539,1.013274410772277e+16,1.2128442148213538e+16,932166074373853.5,1061235182438669.2,3183355876.9387703,6353446015.473862,97561755911.607,2189685120455.0503
9.0016409272409,1.0291298008476228e+16,1.2318298196723722e+16,946752307448411.8,1077841047147735.6,3335885675.2169094,6657870012.326066,102236406921.66673,2294603488747.748
9.281673745785717,1.0450542886882416e+16,1.2508985105306644e+16,961402107304014.2,1094519280189383.2,3493886456.949108,6973213180.138265,107078729722.37004,2403285101473.6177
9.567307220701432,1.0610508538186484e+16,1.2700538651935386e+16,976118214966824.2,1111273002116347.6,3657526135.210148,7299810645.5333805,112093870426.23253,2515845458529.841
9.85865336511546,1.077122404345137e+16,1.2892993763640386e+16,990903305761507.1,1128105258682754.0,3826977806.2503214,7638007879.898218,117287133997.13629,2632403625089.7935
10.155826432417769,1.0932717825686938e+16,1.3086384583788948e+16,1005759994474865.6,1145019026722690.0,4002419899.3994126,7988160998.567268,122663988844.51616,2753082334715.371
10.458942961066125,1.1095017701490318e+16,1.3280744533996134e+16,1020690840106501.2,1162017219558664.5,4184036331.6860065,8350637069.417679,128230071562.06015,2878008095712.765
10.768121820287448,1.1258150928636946e+16,1.3476106371193632e+16,1035698350246977.6,1179102691985987.5,4372016667.283051,8725814431.096786,133991191814.32532,3007311300808.0186
11.083484256693197,1.1422144250012584e+16,1.367250224032274e+16,1050784985119370.9,1196278244873892.8,4566556281.896306,9114083021.114685,139953337374.8355,3141126340222.603
11.405153941827061,1.158702393423304e+16,1.3869963723067672e+16,1065953161316081.5,1213546629419773.8,4767856532.217431,9515844714.045115,146122679319.4058,3279591718232.6685
11.733257020663602,1.1752815813259874e+16,1.4068521882997274e+16,1081205255259328.4,1230910551088828.2,4976124930.56891,9931513670.088291,152505577378.5759,3422850173299.6484
12.067922161076874,1.1919545317288476e+16,1.4268207307446456e+16,1096543606410686.1,1248372673267975.0,5191575324.87327,10361516694.260498,159108585453.22916,3571048801863.0825
12.409280604298411,1.2087237507154286e+16,1.4469050146431316e+16,1111970520252283.4,1265935620659845.8,5414428084.084078,10806293606.484062,165938457297.59262,3724339185890.471
12.75746621638438,1.2255917104477838e+16,1.4671080148862462e+16,1127488271060049.8,1283601982440009.0,5644910289.221407,11266297622.863462,173002152374.0093,3882877524282.127
13.112615540712067,1.2425608519747252e+16,1.4874326696294344e+16,1143099104487158.0,1301374315198137.8,5883255930.159704,11741995748.441902,180306841884.00357,4046824768232.951
13.474867851526309,1.2596335878516038e+16,1.5078818834422782e+16,1158805239974078.8,1319255145681750.2,6129706108.321037,12233869181.744242,187859914980.33066,4216346760656.0977
13.844365208556836,1.2768123045876152e+16,1.5284585302523506e+16,1174608873000044.2,1337246973359405.5,6384509245.431765,12742413731.421728,195668985164.8595,4391614379777.571
14.221252512727972,1.294099364935193e+16,1.5491654561004912e+16,1190512177189123.8,1355352272818416.0,6647921298.506158,13268140245.324453,203741896877.2955,4572803687013.987
14.605677562982532,1.3114971100344556e+16,1.5700054817231002e+16,1206517306283063.5,1373573496010828.8,6920205981.2254305,13811575052.338327,212086732279.90576,4760096079249.467
14.997791114242183,1.3290078614246024e+16,1.5909814049757008e+16,1222626395991655.5,1391913074360009.2,7201634991.886297,14373260417.33356,220711818243.5875,4953678445631.415
15.397746936527026,1.3466339229329806e+16,1.6120960031105326e+16,1238841565730598.0,1410373420739118.2,7492488248.098121,14953755009.582315,229625733540.76196,5153743329008.396
15.805701875257567,1.3643775824514704e+16,1.6333520349198894e+16,1255164920255695.0,1428956931331601.0,7793054128.413579,15553634385.014801,238837316250.76535,5360489092137.159
16.221815912762718,1.38224111360915e+16,1.654752242755745e+16,1271598551201615.0,1447665987382975.2,8103629721.0829115,16173491482.692644,248355671383.56198,5574120088789.787
16.64625223101797,1.4002267773491406e+16,1.6762993544353148e+16,1288144538532542.0,1466502956852377.0,8424521080.127801,16813937135.891268,258190178727.7856,5794846839895.592
17.079177275638333,1.4183368234171122e+16,1.697996085041396e+16,1304804951911493.0,1485470195971481.8,8756043488.936396,17475600598.19316,268350500929.28418,6022886214856.382
17.5207608211511,1.436573491768005e+16,1.719845138625412e+16,1321581851994493.2,1504570050717795.5,9098521731.58671,18159130085.005947,278846591806.52405,6258461618177.906
17.97117603757412,1.4549390138971558e+16,1.7418492098205696e+16,1338477291655097.0,1523804858208837.0,9452290372.111837,18865193330.931034,289688704909.39105,6501803181563.806
18.430599558325603,1.4734356141014198e+16,1.764010985371783e+16,1355493317144588.5,1543176948022886.5,9817694041.926401,19594478163.42078,300887402328.1101,6753147961623.39
18.899211549492115,1.4920655106753122e+16,1.7863331455885232e+16,1372631969192377.2,1562688643451811.0,10195087735.639177,20347693093.173004,312453563759.18896,7012740143347.799
19.37719578048196,1.5108309170470032e+16,1.808818365726228e+16,1389895284051070.2,1582342262690785.0,10584837115.484268,21125567921.727478,324398395835.4872,7280831249514.154
19.864739696091597,1.529734042858362e+16,1.8314693173014176e+16,1407285294490025.2,1602140119969458.2,10987318824.608217,21928854366.736362,336733441727.7124,7557680356181.339
20.36203449001343,1.5487770949930346e+16,1.8542886693453252e+16,1424804030741183.0,1622084526628714.2,11402920809.458174,22758326705.39992,349470591024.83075,7843554314445.534
20.869275179813698,1.567962278556236e+16,1.8772790896003204e+16,1442453521400386.5,1642177792146820.2,11832042651.521885,23614782436.566837,362622089901.0845,8138727978628.266
21.38666068340997,1.5872917978095154e+16,1.900443245663247e+16,1460235794287377.2,1662422225118453.0,12275095908.677685,24499042962.01396,376200551577.55023,8443484441074.304
21.91439389707817,1.6067678570636958e+16,1.9237838060793604e+16,1478152877267200.0,1682820134189895.2,12732504466.419239,25411954287.435818,390218967086.3035,8758115273741.302
22.452681775019734,1.6263926615327338e+16,1.9473034413902156e+16,1496206799035746.8,1703373828953299.8,13204704899.227081,26354387743.684097,404690716345.58276,9082920776768.447
23.00173541052013,1.6461684181511626e+16,1.9710048251387556e+16,1514399589871759.2,1724085620802833.8,13692146842.365536,27327240728.81553,419629579554.44354,9418210234215.285
23.561770118730532,1.6660973363575316e+16,1.994890634834505e+16,1532733282357575.5,1744957823755224.5,14195293374.391935,28331437471.519947,435049748915.724,9764302177168.227
24.133005521105144,1.6861816288461074e+16,2.0189635528815052e+16,1551209912070622.8,1765992755236988.5,14714621410.671206,29367929816.51244,450965840696.28973,10121524654415.861
24.715665631527248,1.7064235122888012e+16,2.0432262674714876e+16,1569831518247591.0,1787192736840576.2,15250622108.197683,30437698032.494442,467392907633.80414,10490215510900.297
25.309978944157795,1.7268252080293406e+16,2.0676814734446604e+16,1588600144423028.2,1808560095051377.5,15803801282.032587,31541751643.296375,484346451699.49884,10870722674157.006
25.91617852304095,1.7473889427513108e+16,2.0923318731200652e+16,1607517839043893.5,1830097161947371.5,16374679833.673923,32681130282.836823,501842437226.61035,11263404448959.87
26.53450209350177,1.7681169491216968e+16,2.1171801770975344e+16,1626586656061617.8,1851806275873179.5,16963794191.683397,33856904574.54385,519897304414.4694,11668629820395.129
27.165192135371807,1.789011466411416e+16,2.1422291050329624e+16,1645808655502932.0,1873689782089896.2,17571696764.902283,35070177035.90273,538527983218.3866,12086778765591.473
27.808495978079243,1.8100747410940384e+16,2.1674813863884724e+16,1665185904020691.5,1895750033402214.2,18198956408.596405,36322083008.80788,557751907635.7714,12518242574340.217
28.464665897640828,1.8313090274239444e+16,2.192939761158881e+16,1684720475425724.0,1917989390763898.8,18846158903.87887,37613791616.41489,577587030399.1509,12963424178844.305
29.133959215593645,1.8527165879948556e+16,2.2186069805757176e+16,1704414451200681.2,1940410223862793.2,19513907450.76463,38946506747.199974,598051838086.9651,13422738492839.904
29.816638399905518,1.8742996942796396e+16,2.244485807789742e+16,1724269920996615.0,1963014911686136.0,20202823175.222282,40321468066.95565,619165366663.2853,13896612760339.967
30.51297116790363,1.8960606271519984e+16,2.270579018532928e+16,1744288983112917.5,1985805843066966.2,20913545650.591476,41739952059.45769,640947217457.7933,14385486914253.81
31.223230591261704,1.9180016773905764e+16,2.296889401760426e+16,1764473744961071.0,2008785417212100.0,21646733433.74485,43203273096.56027,663417573597.6075,14889813945141.527
31.947695203086937,1.940125146165784e+16,2.3234197602728664e+16,1784826323512504.8,2031956044211955.0,22403064616.378006,44712784538.4844,686597216902.6843,15410060280366.373
32.686649107148675,1.9624333455092696e+16,2.3501729113191892e+16,1805348845730497.5,2055320145532312.2,23183237391.817394,46269879865.076485,710507545256.7731,15946706173912.52
33.44038208929165,1.9849285987660332e+16,2.377151687179622e+16,1826043448986079.8,2078880154487736.5,23987970637.74056,47875993838.827934,735170590465.9838,16500246107138.244
34.20918973107749,2.0076132410284136e+16,2.4043589357283212e+16,1846912281457298.2,2102638516696187.0,24818004515.20808,49532603700.4474,760609036617.2139,17071189200738.217
34.993373525699035,2.0304896195512988e+16,2.431797520974659e+16,1867957502511178.2,2126597690513818.0,25674101084.40843,51241230397.79181,786846238948.7067,17660059638189.445
35.793240996213015,2.0535600941471584e+16,2.4594703235816468e+16,1889181283067164.0,2150760147448774.0,26557044937.517998,53003439848.95495,813906243245.0859,18267397100956.77
36.60910581613728,2.07682703755934e+16,2.4873802413595564e+16,1910585805940492.8,2175128372552082.0,27467643849.078934,54820844240.320496,841813805769.1681,18893757215732.934
37.44128793246003,2.1002928358113412e+16,2.5155301897321012e+16,1932173266163541.8,2199704864783500.5,28406729444.293358,56695103360.371185,870594413742.799,19539712013986.465
38.29011369110923,2.1239598885293164e+16,2.543923102171926e+16,1953945871282485.8,2224492137349279.5,29375157885.626785,58627925970.04228,900274306388.702,20205850404085.855
39.15591596493141,2.147830609234424e+16,2.572561930601341e+16,1975905841626287.5,2249492718008338.2,30373810578.10667,60621071210.386375,930880496545.1895,20892778656264.016
40.03903428423004,2.171907425600983e+16,2.6014496457535052e+16,1998055410544154.0,2274709149342639.0,31403594893.687866,62676350048.29268,962440792865.1136,21601120900677.582
40.93981496991464,2.1961927796754436e+16,2.6305892374881056e+16,2020396824606994.5,2300143988986533.5,32465444915.041374,64795626760.97333,994983822609.9569,22331519638803.57
41.85861126931294,2.2206891280505284e+16,2.6599837150548096e+16,2042932343767602.8,2325799809809120.0,33560322199.102806,66980820459.885864,1028539055049.3988,23084636268404.906
42.7957834946992,2.2453989419878092e+16,2.689636107296516e+16,2065664241473462.5,2351679200042643.5,34689216560.6903,69233906654.71039,1063136825475.7719,23861151622273.992
43.751699164593184,2.2703247074811136e+16,2.7195494627831584e+16,2088594804725028.5,2377784763348904.0,35853146876.46931,71556918857.93825,1098808359842.0012,24661766520945.95
