t(s),Total solute volume 1,Total retention volume 1,Total 1 volume 1,Total 2 volume 1,Total 3 volume 1,Total 4 volume 1,Total 5 volume 1,Total 6 volume 1
0.1,941999071437344.5,1111941895936827.4,80338108873842.89,89604715625638.98,0.0,0.0,0.0,0.0
0.202,1412175233389970.8,1681161039032998.2,120436942398343.2,134328753686885.3,21971261422.52885,42489172662.02498,622288663327.952,13533360460385.945
0.30604000000000003,1764985121752144.5,2119301054517888.0,150526228238504.66,167888691349194.56,55468436867.96261,107268466149.34485,1571040858177.9712,34167235416849.414
0.41216080000000005,2058945989233927.8,2493843181787285.0,175596592917817.6,195850799833134.62,98031015164.80052,189579998373.5766,2776570998900.327,60385617789966.78
0.5204040160000001,2316055911848886.0,2830007512441328.0,197524135781805.44,220307577388863.12,148505539648.1316,287193485513.7606,4206214535293.6646,91477973861316.47
0.6308120963200001,2547312470403878.5,3140342365551405.5,217246782223178.97,242305134516975.28,206222525111.04828,398814552776.30225,5841014371945.855,127031926957545.14
0.7434283382464002,2759126680662736.0,3432136781951442.0,235311293804840.5,262453299051060.5,270751534844.79242,523611103040.8616,7668783952561.807,166782361842356.78
0.8582969050113283,2955615999127268.5,3710061755325583.0,252068826573439.0,281143731168682.5,341800071480.2536,661017793603.0509,9681243611192.455,210549136979918.22
0.9754628431115548,3139607873550881.5,3977322414051772.5,267760518565131.8,298645382997720.56,419163496948.5001,810639192958.0071,11872602205463.852,258206234042660.44
1.094972099973786,3313141586572598.0,4236232340000974.5,282560289389939.7,315152234923475.4,502697129432.51514,972195823268.123,14238766856158.436,309664569306099.75
1.2168715419732616,3477744277771421.5,4488528455674662.0,296598380690140.44,330809551323765.56,592299355032.765,1145491502929.8145,16776864648416.742,364861590382956.44
1.3412089728127268,3634594042242011.0,4735556511000340.0,309975265953543.6,345729394811077.6,687900757415.7643,1330392326602.9429,19484934775104.145,423754580134586.2
1.4680331522689813,3784621859706290.0,4978386651918995.0,322770343507288.94,360000321920656.2,789456780209.0696,1526812476787.3777,22361720734829.145,486316136792941.56
1.597393815314361,3928578233636702.5,5217888752309879.0,335047619815554.8,373693721948769.25,896942583051.429,1734704277438.6316,25406524658696.21,552531005389661.5
1.729341691620648,4067078405028791.0,5454783377741022.0,346859565522622.7,386868117771464.1,1010349322804.9126,1954051003530.1536,28619102000521.105,622393787091294.2
1.863928525453061,4200633997542248.5,5689677354750224.0,358249814299283.4,399572175989684.6,1129681395792.4424,2184861549029.7988,31999583445284.38,695907240528893.0
2.001207095962122,4329675758875962.5,5923089262826846.0,369255102334193.56,411846870131464.3,1254954348648.1475,2427166387834.091,35548415754175.125,773080994994570.0
2.1412312378813647,4454570279523448.0,6155468126463493.0,379906694187937.56,423727070971266.8,1386193266889.0063,2681014458523.085,39266316139867.34,853930557915555.9
2.284055862638992,4575632529553155.0,6387207396841213.0,390231451988587.7,435242739052015.44,1523431512750.554,2946470724532.007,43154236533920.76,938476537476263.1
2.4297369798917723,4693135424289806.0,6618655595037766.0,400252651237977.6,446419834590632.8,1666709723546.1475,3223614238139.011,47213335233059.24,1026744025724600.9
2.578331719489608,4807317236179619.0,6850124540886839.0,409990612930404.94,457281022508528.7,1816075007826.81,3512536586979.9653,51444954147937.39,1118762103525535.0
2.7298983538794,4918387417107069.0,7081895804275083.0,419463200107181.9,467846226261294.94,1971580294104.9407,3813340635615.648,55850600373249.25,1214563439496558.8
2.884496320956988,5026531228679967.0,7314225826609931.0,428686212749108.75,478133068280084.5,2133283798927.5527,4126139497924.887,60431931138527.78,1314183962465385.8
3.0421862473761276,5131913465629612.0,7547350033008914.0,437673705325544.7,488157224148417.9,2301248589518.5923,4451055692406.514,65190741437844.83,1417662592185558.8
3.2030299723236504,5234681480223822.0,7781486168474853.0,446438244730569.8,497932710290015.7,2475542222234.664,4788220444123.187,70128953807254.77,1525041016756815.8
3.3670905717701234,5334967661520296.0,8016837030327757.0,454991121725360.56,507472119800012.1,2656236442452.446,5137773105478.773,75248609842699.95,1636363507891453.2
3.5344323832055258,5432891484817103.0,8253592725839492.0,463342525724970.9,516786817392544.6,2843406934729.532,5499860674253.623,80551863142391.5,1751676767153499.8
3.7051210308696363,5528561218876305.0,8491932552782115.0,471501690398378.1,525887101795041.75,3037133114487.0503,5874637391976.714,86040973425839.4,1871029797780070.0
3.879223451487029,5622075358157355.0,8732026577770417.0,479477015816087.3,534782341984963.9,3237497954282.396,6262264409232.524,91718301633247.55,1994473797815246.5
4.0568079205167695,5713523832220901.0,8974036970383878.0,487276171593773.3,543481092230549.56,3444587839131.5615,6662909507190.952,97586305848399.77,2122062071143934.0
4.237944078927105,5802989033156870.0,9218119138401624.0,494906184516170.75,551991189821701.75,3658492446415.5825,7076746866727.173,103647537918589.33,2253849953675153.0
4.422702960505647,5890546693320257.0,9464422699911146.0,502373513394514.2,560319838561863.44,3879304646743.7295,7503956878119.741,109904640668911.55,2389894752440722.0
4.61115701971576,5976266639098066.0,9713092320734114.0,509684113351323.75,568473680467735.5,4107120422805.9443,7944725985590.382,116360345626899.19,2530255695781691.5
4.803380160110075,6060213441361048.0,9964268439967710.0,516843491293992.5,576458857641469.1,4342038803770.5156,8399246561962.318,123017471188328.36,2674993893117141.5
4.9994477633122765,6142446979304329.0,1.0218087902048086e+16,523856754001754.44,584281065904239.8,4584161813201.382,8867716809522.113,129878921166864.53,2824172303048149.0
5.199436718578522,6223022931277041.0,1.0474684510297256e+16,530728649985952.8,591945601484884.6,4833594428806.5205,9350340683823.137,136947683679768.0,2977855708756973.5
5.403425452950093,6301993203744872.0,1.0734189514192558e+16,537463606073982.1,599457401823622.8,5090444552602.498,9847327837696.104,144226830329622.6,3136110699830145.0
5.611493962009095,6379406307571306.0,1.099673204042942e+16,544065759500311.3,606821081364628.5,5354822990302.486,10358893583164.607,151719515648363.88,3299005659771333.0
5.823723841249277,6455307689231388.0,1.12624394761131e+16,550538986153963.75,614040963061704.0,5626843438919.17,10885258869316.621,159428976775074.44,3466610758582755.0
6.040198318074262,6529740023303289.0,1.1531437811013734e+16,556886925523569.1,621121106200639.9,5906622481723.665,11426650274475.43,167358533343281.16,3638997949886747.0
6.261002284435747,6602743471551806.0,1.1803851944683512e+16,563113002793214.1,628065331043698.5,6194279589828.437,11983300011256.61,175511587557058.94,3816240972136647.5
6.486222330124463,6674355913075402.0,1.2079805963309054e+16,569220448470473.6,634877240721650.9,6489937129765.434,12555445943298.736,183891624438190.84,3998415353530271.0
6.715946776726952,6744613149297331.0,1.235942339041091e+16,575212315869012.5,641560240732911.8,6793720376518.913,13143331612626.406,192502212229132.66,4185598420293390.0
6.950265712261491,6813549087009949.0,1.264282741487748e+16,581091496719462.9,648117556355052.5,7105757531546.355,13747206276745.5,201347002938607.0,4377869308046093.5
7.18927102650672,6881195902208008.0,1.2930141099300596e+16,586860735141911.4,654552248228931.9,7426179745382.757,14367324954693.012,210429733018434.53,4575308976003232.0
7.433056447036854,6947584187052071.0,1.3221487571150238e+16,592522640179609.1,660867226338147.6,7755121144476.732,15003948481364.549,219754224161700.2,4778000223792874.0
7.681717575977592,7012743081973498.0,1.3516990198963848e+16,598079697065521.8,667065262575077.2,8092718861952.394,15657343569531.54,229324384213640.75,4986027710704605.0
7.935351927497144,7076700394654058.0,1.3816772755423818e+16,603534277369459.9,673149002058472.1,8439113072028.752,16327782879034.076,239144208187734.6,5199477977203037.0
8.194058966047088,7139482707380368.0,1.4120959568943126e+16,608888648153782.9,679120973345204.4,8794447027862.798,17015545092700.68,249217779380416.16,5418439468562794.0
8.45794014536803,7201115474074405.0,1.4429675665161494e+16,614144980248604.9,684983597659982.0,9158867102609.695,17720914998600.37,259549270578655.7,5643002560498639.0
8.72709894827539,7261623108133263.0,1.4743046899573852e+16,619305355743183.6,690739197250834.6,9532522833519.729,18444183578282.293,270142945355346.25,5873259586679445.0
9.0016409272409,7321029062067226.0,1.5061200082356032e+16,624371774777842.5,696390002964451.0,9915566968911.865,19185648100698.266,281003159448045.72,6109304868028853.0
9.281673745785717,7379355899803326.0,1.5384263096319988e+16,629346161710336.1,701938161123805.6,10308155517883.393,19945612221542.23,292134362217183.5,6351234743725897.0
9.567307220701432,7436625362414691.0,1.5712365008817416e+16,634230370721577.1,707385739780468.1,10710447802631.736,20724386087769.223,303541098180257.7,6599147603830006.0
9.85865336511546,7492858427946216.0,1.6045636178311906e+16,639026190917842.4,712734734405345.2,11122606513277.615,21522286447088.492,315228008619029.75,6853143923463123.0
10.155826432417769,7548075365928181.0,1.6384208356256404e+16,643735350979956.8,717987073074096.8,11544797765092.99,22339636762246.98,327199833257016.44,7113326298489787.0
10.458942961066125,7602295787101557.0,1.6728214784838374e+16,648359523404084.1,723144621197108.4,11977191158047.807,23176767329943.285,339461412004950.44,7379799482642667.0
10.768121820287448,7655538688819338.0,1.7077790291093896e+16,652900328373785.9,728209185838163.9,12419959838599.062,24034015404230.445,352017686772142.3,7652670426047646.0
11.083484256693197,7707822496537600.0,1.7433071377834784e+16,657359337298573.4,733182519661132.1,12873280563655.254,24911725324283.64,364873703341935.7,7932048315107602.0
11.405153941827061,7759165101764470.0,1.7794196311786602e+16,661738076050350.9,738066324539755.2,13337333766656.99,25810248646424.97,378034613309680.0,8218044613709251.0
11.733257020663602,7809583896795819.0,1.8161305209292816e+16,666038027925868.4,742862254861773.0,13812303625721.223,26729944280310.816,391505676081840.6,8510773105721496.0
12.067922161076874,7859095806532660.0,1.853454011990436e+16,670260636360236.1,747571920555446.8,14298378133803.61,27671178629199.67,405292260935057.5,8810349938757920.0
12.409280604298411,7907717317644037.0,1.8914045108140736e+16,674407307414089.4,752196889863597.0,14795749170838.87,28634325734230.207,419399849134137.2,9116893669179790.0
12.75746621638438,7955464505313270.0,1.9299966333682628e+16,678479412054621.5,756738691887758.0,15304612577823.861,29619767422650.266,433834036108087.3,9430525308318374.0
13.112615540712067,8002353057781129.0,1.9692452130228572e+16,682478288248749.4,761198818922746.8,15825168232813.39,30627893459944.305,448600533683479.2,9751368369899730.0
13.474867851526309,8048398298878906.0,2.0091653083228936e+16,686405242884833.1,765578728600086.0,16357620128803.492,31659101705819.598,463705172374519.3,1.0079548918655948e+16
13.844365208556836,8093615208725626.0,2.0497722106688292e+16,690261553537841.9,769879845856733.9,16902176453478.951,32713798274015.008,479153903729347.25,1.0415195620111248e+16
14.221252512727972,8138018442747325.0,2.091081451921402e+16,694048470091395.4,774103564744252.5,17459049670808.037,33792397695907.16,494952802732160.8,1.0758439791532196e+16
14.605677562982532,8181622349161374.0,2.133108811946919e+16,697767216228911.1,778251250091928.6,18028456604468.418,34895323087892.62,511108070260915.3,1.110941545403372e+16
14.997791114242183,8224440985055516.0,2.1758703261177676e+16,701418990804912.1,782324239036269.5,18610618523093.31,36023006322533.31,527626035600363.5,1.1468259385834998e+16
15.397746936527026,8266488131180240.0,2.2193822927816664e+16,705004969106574.2,786323842428052.9,19205761227327.234,37175888203457.18,544513159010363.1,1.183511117666063e+16
15.805701875257567,8307777305561544.0,2.263661280711962e+16,708526304014700.6,790251346127216.0,19814115138687.246,38354418644010.57,561776034349420.94,1.2210113283284052e+16
16.221815912762718,8348321776032369.0,2.3087241365505372e+16,711984127072446.5,794108012194867.4,20435915390222.395,39559056849666.625,579421391753502.0,1.2593411086212298e+16
16.64625223101797,8388134571772381.0,2.3545879922538424e+16,715379549469497.9,797895079990967.0,21071401918973.383,40790271504195.97,597456100370259.2,1.2985152947512134e+16
17.079177275638333,8427228493937777.0,2.401270272551954e+16,718713662948629.9,801613767185450.5,21720819560229.227,42048540959612.27,615887171148836.4,1.3385490269778994e+16
17.5207608211511,8465616125456030.0,2.448788702429795e+16,721987540641046.5,805265270689940.1,22384418143586.227,43334353429908.82,634721759685531.1,1.37945775562519e+16
17.97117603757412,8503309840054342.0,2.4971613146390284e+16,725202237836364.9,808850767516532.2,23062452590811.184,44648207188607.43,653967169125602.8,1.4212572472078068e+16
18.430599558325603,8540321810584666.0,2.5464064572486868e+16,728358792692616.6,812371415569689.1,23755183015517.105,45990610770142.36,673630853121608.4,1.4639635906732616e+16
18.899211549492115,8576664016702935.0,2.5965428012419052e+16,731458226891176.8,815828354376711.5,24462874824656.84,47362083175108.89,693720418848693.9,1.5075932037599708e+16
19.37719578048196,8612348251955796.0,2.647589348165972e+16,734501546241133.2,819222705761835.2,25185798821845.96,48763154079407.65,714243630077293.9,1.5521628394722404e+16
19.864739696091597,8647386130323439.0,2.699565437842209e+16,737489741237319.4,822555574468603.1,25924231312524.184,50194364047319.79,735208410303834.1,1.5976895926729076e+16
20.36203449001343,8681789092263598.0,2.7524907561420136e+16,740423787575737.6,825828048734770.2,26678454210968.105,51656264748550.53,756622845939896.6,1.6441909067946604e+16
20.869275179813698,8715568410297795.0,2.8063853428349944e+16,743304646630016.1,829041200823687.9,27448755149169.38,53149419179284.56,778495189560610.2,1.6916845806709408e+16
21.38666068340997,8748735194178154.0,2.861269599514947e+16,746133265892039.9,832196087515783.0,28235427587590.918,54674401887294.625,800833863212817.4,1.740188775487585e+16
21.91439389707817,8781300395669724.0,2.9171642976089336e+16,748910579379809.6,835293750563449.9,29038770927819.816,56231799201154.0,823647461783786.1,1.789722021856361e+16
22.452681775019734,8813274812980705.0,2.9740905864747028e+16,751637508015282.4,838335217112470.1,29859090627132.348,57822209463600.46,846944756431220.0,1.840303227011658e+16
23.00173541052013,8844669094870390.0,3.032070001591371e+16,754314959974704.1,841321500092767.6,30696698314989.12,59446243269106.234,870734698075332.1,1.891951682131645e+16
23.561770118730532,8875493744462368.0,3.0911244728481252e+16,756943831013831.1,844253598581126.6,31551911911480.24,61104523705707.9,895026420953836.0,1.9446870697852892e+16
24.133005521105144,8905759122788553.0,3.151276332935374e+16,759525004770162.8,847132498138304.1,32425055747739.957,62797686601156.336,919829246240719.9,1.9985294715067104e+16
24.715665631527248,8935475452087114.0,3.2125483258429324e+16,762059353044226.8,849959171122731.9,33316460688352.125,64526380773445.29,945152685729696.9,2.0534993754983724e+16
25.309978944157795,8964652818876385.0,3.274963615469318e+16,764547736061718.5,852734576982926.1,34226464255767.777,66291268285781.695,971006445583308.1,2.1096176844647292e+16
25.91617852304095,8993301176824548.0,3.3385457943463696e+16,766991002718251.1,855459662530441.6,35155410756757.758,68093024706064.89,997400430148611.9,2.1669057235779024e+16
26.53450209350177,9021430349433468.0,3.4033188924831012e+16,769389990808239.1,858135362195170.6,36103651410923.62,69932339370939.086,1024344745840498.5,2.2253852485771788e+16
27.165192135371807,9049050032553862.0,3.4693073863327076e+16,771745527239412.4,860762598264599.4,37071544481290.16,71809915654491.77,1051849705093664.5,2.285078454003972e+16
27.808495978079243,9076169796747594.0,3.536536207886468e+16,774058428234270.6,863342281108485.4,38059455407005.57,73726471241666.38,1079925830384334.6,2.3460079815741332e+16
28.464665897640828,9102799089511134.0,3.605030753898269e+16,776329499519733.1,865875309390394.4,39067756938172.47,75682738406466.31,1108583858322804.8,2.4081969286894024e+16
29.133959215593645,9128947237374398.0,3.674816895243242e+16,778559536506100.8,868362570267311.5,40096829272836.875,77679464295024.6,1137834743817993.2,2.471668857089876e+16
29.816638399905518,9154623447886220.0,3.7459209864140776e+16,780749324456429.8,870804939578535.0,41147060196160.984,79717411213614.61,1167689664315096.0,2.5364478016494704e+16
30.51297116790363,9179836811499024.0,3.8183698751585496e+16,782899638647233.6,873203282024921.0,42218845221806.24,81797356921687.3,1198160024107630.2,2.6025582793163256e+16
31.223230591261704,9204596303362056.0,3.892190912261422e+16,785011244521427.5,875558451339477.1,43312587735553.586,83920094930007.67,1229257458724984.2,2.6700252982000696e+16
31.947695203086937,9228910785033540.0,3.967411961474172e+16,787084897834354.1,877871290450219.0,44428699141188.0,86086434803982.88,1260993839396824.8,2.738874366808152e+16
32.686649107148675,9252789006120298.0,4.044061409595797e+16,789121344793619.5,880142631636138.5,45567599008675.664,88297202472258.48,1293381277595542.2,2.8091315034331292e+16
33.44038208929165,9276239605853200.0,4.122168176707822e+16,791121322193435.5,882373296677060.2,46729715224660.98,90553240540676.05,1326432129658115.2,2.8808232456931028e+16
34.20918973107749,9299271114605610.0,4.20176172656677e+16,793085557544149.5,884564096998073.0,47915484145311.45,92855408611673.8,1360159001488642.0,2.953976660227418e+16
34.993373525699035,9321891955361902.0,4.282872077156942e+16,795014769197456.8,886715833809228.5,49125350751538.91,95204583609226.14,1394574753342955.0,3.028619352549707e+16
35.793240996213015,9344110445142252.0,4.365529811406917e+16,796909666467945.1,888829298241069.9,50359768806624.78,97601660109406.8,1429692504696650.2,3.104779477060528e+16
36.60910581613728,9365934796389656.0,4.44976608807254e+16,798770949751351.2,890905271476559.0,51619201016278.19,100047550676674.11,1465525639197934.5,3.182485747221692e+16
37.44128793246003,9387373118323980.0,4.535612652789303e+16,800599310640071.8,892944524879879.9,52904119191155.086,102543186205966.66,1502087809706689.5,3.2617674458945264e+16
38.29011369110923,9408433418268362.0,4.623101849297371e+16,802395432036259.2,894947820122610.2,54215004411865.92,105089516270708.36,1539392943421239.8,3.3426544358442656e+16
39.15591596493141,9429123602951772.0,4.7122666308417544e+16,804159988262932.8,896915909307621.2,55552347196500.234,107687509476818.06,1577455247094182.2,3.425177170412776e+16
40.03903428423004,9449451479792172.0,4.8031405717507656e+16,805893645173401.6,898849535091144.1,56916647670696.51,110338153822819.38,1616289212338914.5,3.5093667043618508e+16
40.93981496991464,9469424758163912.0,4.8957578791954184e+16,807597060259348.5,900749430803303.9,58308415740284.31,113042457066154.17,1655909621028130.8,3.5952547048892984e+16
41.85861126931294,9489051050651882.0,4.990153405132567e+16,809270882757794.1,902616320567436.6,59728171266525.31,115801447095793.45,1696331550786038.5,3.682873462820012e+16
42.7957834946992,9508337874296226.0,5.08636265843461e+16,810915753757269.9,904450919418491.0,61176444243981.375,118616172311252.55,1737570380575617.0,3.772255903974328e+16
43.751699164593184,9527292651829980.0,5.184421817208392e+16,812532306303338.0,906253933420739.9,62653774981036.516,121487702008107.64,1779641796382646.8,3.863435600715798e+16
44.72673314788505,9545922712911828.0,5.284367741305788e+16,814121165503743.4,908026059785044.4,64160714283094.83,124417126770118.19,1822561796997873.0,3.9564467836806104e+16
