t(s),Total solute volume 1,Total retention volume 1,Total 1 volume 1,Total 2 volume 1,Total 3 volume 1,Total 4 volume 1,Total 5 volume 1,Total 6 volume 1
0.1,1144268928618327.0,1596229672649425.0,193012778181123.2,258947965849975.12,0.0,0.0,0.0,0.0
0.202,1722166041164458.5,2403871897335886.0,290491200418841.4,389726048803772.44,866628409.2726549,2226667789.40595,49918369580.18372,1435595283035.887
0.30604000000000003,2162127060128939.5,3019895641994763.5,364702862917640.8,489289196747891.75,2197781571.594258,5646867301.234183,126598709521.20555,3642078841899.7417
0.41216080000000005,2533909255493675.5,3541453378964763.5,427414270452250.9,573423481051125.4,3902249973.277752,10026246604.104109,224784755114.43845,6467658716019.8955
0.5204040160000001,2863726338987866.0,4005042607902677.0,483047094674971.2,648061063356793.5,5939334550.3371725,15260235287.96949,342131728387.8214,9844779584821.135
0.6308120963200001,3164648916954068.5,4428858693524244.5,533806056896057.2,716159821071343.9,8287039182.286503,21292317636.480316,477372435558.99567,13736946810397.154
0.7434283382464002,3444275924391093.5,4823480078266391.0,580972928856839.9,779439392681135.5,10932630242.263521,28089776611.077343,629773306957.3989,18123036623515.426
0.8582969050113283,3707475569177891.0,5195685157469705.0,625368869216713.5,839001453295783.1,13868755260.403135,35633721292.57278,798910778940.807,22990852523823.09
0.9754628431115548,3957583382829574.5,5550120240979781.0,667556508136920.9,895600833464625.9,17091529339.226799,43914170196.86111,984561050117.2501,28333949799002.35
1.094972099973786,4197000430178520.0,5890132217872533.0,707940851982000.0,949780893990021.4,20599474573.3915,52927326266.66256,1186638981509.1401,34149875939647.96
1.2168715419732616,4427521813366396.0,6218225714876840.0,746824694654981.8,1001947866359235.0,24392882077.92629,62673937695.96725,1405161343621.8696,40439112332842.2
1.3412089728127268,4650530466621243.0,6536332734701958.0,784441306476629.0,1052414708489460.5,28473404362.445007,73158250595.53932,1640223333736.9768,47204398125939.69
1.4680331522689813,4867118070478848.0,6845980859687489.0,820974829731900.2,1101428467607843.9,32843782625.308994,84387308315.82867,1891982865846.7222,54450277912112.15
1.597393815314361,5078163972720845.0,7148403019563676.0,856573590881187.5,1149188140054312.0,37507657657.56489,96370465593.12692,2160649677247.597,62182788106825.984
1.729341691620648,5284388646810066.0,7444611832845547.0,891359117812280.4,1195856768921747.5,42469434971.15273,109119042017.1448,2446477558910.0435,70409233265557.9
1.863928525453061,5486391045687609.0,7735451545410392.0,925432440597163.8,1241569897217652.8,47734186440.36069,122646069314.09587,2749758689310.1523,79138022962906.28
2.001207095962122,5684675401271535.0,8021635289707011.0,958878611972842.6,1286441632588788.5,53307577321.234985,136966103834.77031,3070819430234.2686,88378550762445.48
2.1412312378813647,5879670894081504.0,8303772429116324.0,991770025170589.1,1330569098555851.2,59195811394.58995,152095085608.5914,3410017166644.9316,98141103244719.27
2.284055862638992,6071746378397504.0,8582389027680918.0,1024168897723536.8,1374035766815835.0,65405589361.00393,168050231446.75833,3767737909963.6475,108436791013263.34
2.4297369798917723,6261221599112029.0,8857943442838191.0,1056129163500746.8,1416913995614882.0,71944077129.45743,184849953465.69757,4144394471303.054,119277496108634.16
2.578331719489608,6448375868588626.0,9130838387858886.0,1087697936300744.2,1459266993320749.5,78818881630.95084,202513796944.90192,4540425068195.185,130675831901985.22
2.7298983538794,6633454871364356.0,9401430392678108.0,1118916657653839.1,1501150358326491.8,86038032452.55267,221062393139.56302,4956292266620.742,142645112641220.53
2.884496320956988,6816676066680822.0,9670037316590066.0,1149822008109248.0,1542613301642835.8,93609968043.19803,240517423839.70242,5392482186406.001,155199330578860.3
3.0421862473761276,6998233025620656.0,9936944381003918.0,1180446638813773.5,1583699628391854.0,101543525561.86574,260901595287.9297,5849503916448.793,168353139140335.38
3.2030299723236504,7178298948133781.0,1.0202409063221494e+16,1210819764756129.0,1624448533709776.5,109847933666.51448,282238619653.10077,6327889099355.107,182121840969134.16
3.3670905717701234,7357029541255769.0,1.0466665103225866e+16,1240967650258486.5,1664895254087581.5,118532807707.25475,304553202681.387,6828191654578.622,196521379959073.66
3.5344323832055258,7534565394337886.0,1.072992581223327e+16,1270914009625106.8,1705071604885371.2,127608146908.71686,327871036458.3582,7350987616154.383,211568336585391.34
3.7051210308696363,7711033954293019.0,1.0992386826138538e+16,1300680340322489.5,1745006427330406.2,137084333217.16095,352218796448.45526,7896875066335.436,227279925996628.2
3.879223451487029,7886551179858670.0,1.1254228413618956e+16,1330286202016841.8,1784725962876690.8,146972131556.2579,377624142153.9097,8466474150381.14,243673998442650.44
4.0568079205167695,8061222936100795.0,1.151561742395149e+16,1359749451795937.8,1824254168781095.5,157282691287.6845,404115720869.34717,9060427160753.797,260769041700759.25
4.237944078927105,8235146177061905.0,1.1776708941086786e+16,1389086443655603.2,1863612985736530.2,168027548712.94592,431723174111.7614,9679398681299.902,278584185228634.0
4.422702960505647,8408409954369223.0,1.2037647696504184e+16,1418312198629540.2,1902822566119897.5,179218630484.22186,460477146386.1738,10324075783800.389,297139205824861.9
4.61115701971576,8581096281902959.0,1.2298569282652336e+16,1447440550639688.5,1941901469666463.0,190868257816.66626,490409296010.61896,10995168270692.78,316454534618708.6
4.803380160110075,8753280880668401.0,1.2559601200503588e+16,1476484272139596.2,1980866832034363.2,202989151414.12897,521552307774.26276,11693408958894.908,336551265243140.4
4.9994477633122765,8925033823377462.0,1.2820863768307692e+16,1505455182841062.2,2019734510673356.2,215594437035.85306,553939907242.5134,12419554000556.385,357451163070984.3
5.199436718578522,9096420094605168.0,1.308247091357381e+16,1534364244200065.5,2058519211588186.5,228697651644.23395,587606876555.2153,13174383237286.635,379176675414881.0
5.403425452950093,9267500079507022.0,1.3344530866310068e+16,1563221641852566.0,2097234599935294.5,242312750083.87396,622589071590.0195,13958700584992.768,401750942608508.7
5.611493962009095,9438329991790058.0,1.3607146768366274e+16,1592036857803735.8,2135893396872651.0,256454112250.40994,658923440384.3074,14773334446935.934,425197809900253.1
5.823723841249277,9608962249791700.0,1.3870417211170292e+16,1620818733864080.8,2174507464666355.2,271136550714.37393,696648042726.3708,15619138153004.178,449541840101719.8
6.040198318074262,9779445808036246.0,1.4134436712089604e+16,1649575527575710.8,2213087881721851.8,286375318770.89703,735802070840.8516,16496990423521.21,474808326942676.4
6.261002284435747,9949826450435200.0,1.439929613797691e+16,1678314961668687.5,2251645008935140.0,302186118890.6664,776425871105.3341,17407795856174.73,501023309091717.9
6.486222330124463,1.0120147050313782e+16,1.4665083083093684e+16,1707044267921749.0,2290188548536758.0,318585111551.4037,818560966744.7183,18352485434869.426,528213584808213.0
6.715946776726952,1.0290447801639952e+16,1.493188220748617e+16,1735770226165513.8,2328727596418889.5,335588924432.26935,862250081458.2847,19332017059492.156,556406727196439.6
6.950265712261491,1.04607664251665e+16,1.5199775540964778e+16,1764499199054091.8,2367270688785334.0,353214661956.32007,907537163941.1647,20347376095732.453,585631100037223.8
7.18927102650672,1.0631138352645732e+16,1.5468842757071702e+16,1793237163137967.2,2405825843839205.0,371479915168.3677,954467413267.754,21399575944229.355,615915874176113.1
7.433056447036854,1.0801596891816954e+16,1.5739161420786142e+16,1821989736693777.0,2444400599119662.5,390402771937.4724,1003087305109.411,22489658628425.184,647291044450265.9
7.681717575977592,1.0972173374483358e+16,1.6010807213182294e+16,1850762204701572.0,2483002045011668.0,410001827474.9153,1053444618762.9233,23618695400598.58,679787447138887.0
7.935351927497144,1.114289728967303e+16,1.6283854135809512e+16,1879559541306148.0,2521636854880305.5,430296195159.84296,1105588464969.656,24787787365627.62,713436777924251.5
8.194058966047088,1.1313796403606804e+16,1.6558374697185808e+16,1908386430052916.8,2560311312219508.0,451305517665.9083,1159569314508.3096,25998066122098.82,748271610352306.2
8.45794014536803,1.1484896867965958e+16,1.683444008347907e+16,1937247282150308.2,2599031335153048.0,473049978383.2173,1215439027546.6306,27250694420433.777,784325414783403.6
8.72709894827539,1.165622331775837e+16,1.7112120315177266e+16,1966146252977586.2,2637802498581572.0,495550313130.72064,1273250883739.56,28546866837754.44,821632577825096.5
9.0016409272409,1.182779895991464e+16,1.739148439132034e+16,1995087257029073.5,2676630054232003.0,518827822154.8517,1333059613063.156,29887810469246.027,860228422240143.1
9.281673745785717,1.1999645653604328e+16,1.7672600422668392e+16,2024073981461710.5,2715518948833003.0,542904382410.8625,1394921427375.0344,31274785635811.254,900149227323727.9
9.567307220701432,1.2171783983140574e+16,1.7955535755011838e+16,2053109898392432.8,2754473840613314.5,567802460123.7574,1458894052693.5051,32709086607839.684,941432249744868.6
9.85865336511546,1.2344233324235878e+16,1.824035708368384e+16,2082198276074094.2,2793499114295508.5,593545123626.1581,1525036762188.4995,34192042344938.938,984115744847577.0
10.155826432417769,1.2517011904283306e+16,1.852713056021015e+16,2111342189063500.2,2832598894737465.5,620156056470.8295,1593410409878.431,35725017251495.02,1028238988408017.6
10.458942961066125,1.2690136857256386e+16,1.8815921891922764e+16,2140544527481870.8,2871777059356382.0,647659570815.8044,1664077465027.8276,37309411947946.69,1073842298844273.9
10.768121820287448,1.2863624273756454e+16,1.9106796435269404e+16,2169808005456670.8,2911037249454366.0,676080621080.3853,1737102047241.2007,38946664057672.46,1120967059875901.0
11.083484256693197,1.3037489246674676e+16,1.9399819283470396e+16,2199135168823804.0,2950382880551805.0,705444817870.4324,1812549962249.1172,40638249009399.48,1169655743630588.5
11.405153941827061,1.3211745912885876e+16,1.969505534910027e+16,2228528402160431.8,2989817151822663.5,735778442171.5259,1890488738382.8755,42385680855054.1,1219951934195684.2
11.733257020663602,1.338640749134671e+16,1.9992569442113012e+16,2257989935211275.5,3029343054716061.0,767108459808.7374,1970987663734.5535,44190513102981.21,1271900351612457.5
12.067922161076874,1.3561486317930076e+16,2.0292426343771652e+16,2287521848764438.0,3068963380839387.0,799462536171.786,2054117823999.291,46054339566462.25,1325546876311099.5
12.409280604298411,1.3736993877295242e+16,2.0594690876897184e+16,2317126080027157.0,3108680729170405.0,832869051204.4946,2139952140997.0078,47978795227470.81,1380938573984707.2
12.75746621638438,1.3912940832060574e+16,2.0899427972808756e+16,2346804427546601.5,3148497512659099.0,867357114657.4703,2228565411870.8296,49965557115600.555,1438123720900396.2
13.112615540712067,1.408933704952102e+16,2.120670273529004e+16,2376558555716563.5,3188415964273846.5,902956581602.932,2320034348959.497,52016345202109.97,1497151829645937.2
13.474867851526309,1.426619162612821e+16,2.151658050188367e+16,2406389998906614.5,3228438142541201.0,939698068210.6532,2414437620341.1265,54132923309019.74,1558073675310063.8
13.844365208556836,1.4443512909929278e+16,2.1829126902787216e+16,2436300165247149.0,3268565936623870.0,977612967784.0114,2511855891045.607,56317100033207.82,1620941322094884.8
14.221252512727972,1.4621308521144202e+16,2.214440791759762e+16,2466290340100224.0,3308801070977300.5,1016733467054.9967,2612371864932.985,58570729685435.35,1685808150358495.0
14.605677562982532,1.4799585371042532e+16,2.2462489930128156e+16,2496361689243728.0,3349145109621541.5,1057092562737.1309,2716070327234.906,60895713244244.945,1752728884086132.8
14.997791114242183,1.4978349679268226e+16,2.2783439781502244e+16,2526515261793634.0,3389599460061825.0,1098724078335.1298,2823038187756.2007,63293999324663.17,1821759618787793.8
15.397746936527026,1.515760698974654e+16,2.3107324821710044e+16,2556751992887161.0,3430165376888238.5,1141662681210.0886,2933364524733.6484,65767585161638.33,1892957849820547.8
15.805701875257567,1.5337362185296092e+16,2.3434212959796828e+16,2587072706147521.5,3470843965082563.0,1185943899898.9363,3047140629348.483,68318517608142.25,1966382501133252.5
16.221815912762718,1.5517619501059352e+16,2.3764172712838224e+16,2617478115949319.0,3511636183057467.5,1231604141686.8262,3164460050889.419,70948894147858.56,2042093954431640.2
16.64625223101797,1.569838253685465e+16,2.409727325384536e+16,2647968829502083.5,3552542845451838.5,1278680710431.0396,3285418642562.5083,73660863922377.06,2120154078761419.5
17.079177275638333,1.5879654268545084e+16,2.443358445872879e+16,2678545348767945.0,3593564625703524.0,1327211824634.9385,3410114607944.034,76456628772812.22,2200626260506854.5
17.5207608211511,1.6061437058512472e+16,2.477317695244245e+16,2709208072228327.0,3634702058419620.5,1377236635770.3745,3538648548072.5513,79338444295749.61,2283575433802411.5
17.97117603757412,1.624373266531712e+16,2.5116122154417056e+16,2739957296513390.5,3675955541562463.0,1428795246846.9429,3671123509175.7207,82308620913435.95,2369068111354621.0
18.430599558325603,1.6426542252619114e+16,2.5462492323386224e+16,2770793217906828.5,3717325338468494.5,1481928731226.3535,3807645031027.6616,85369524958103.55,2457172415671411.5
18.899211549492115,1.6609866397430748e+16,2.5812360601698176e+16,2801715933737828.5,3758811579715833.0,1536679151680.0425,3948321195932.1177,88523579770334.78,2547958110695858.0
19.37719578048196,1.6793705097765112e+16,2.616580105920214e+16,2832725443671318.5,3800414264855090.5,1593089579688.2603,4093262678326.7256,91773266811352.84,2641496633841281.0
19.864739696091597,1.6978057779741456e+16,2.6522888736788884e+16,2863821650906373.0,3842133264017376.5,1651204114978.5486,4242582795003.21,95121126789129.33,2737861128424505.5
20.36203449001343,1.716292330420427e+16,2.688369968966238e+16,2895004363292786.5,3883968319412127.0,1711067905301.6514,4396397555938.491,98569760798189.06,2837126476493746.0
20.869275179813698,1.734829997290847e+16,2.72483110304127e+16,2926273294374341.5,3925919046726899.0,1772727166442.7048,4554825715731.126,102121831472996.72,2939369332047853.5
21.38666068340997,1.7534185534321368e+16,2.7616800971955204e+16,2957628064367469.5,3967984936440276.5,1836229202465.5444,4717988825637.674,105780064154795.02,3044668154643169.0
21.91439389707817,1.7720577189087678e+16,2.7989248870397972e+16,2989068201083099.5,4010165355058617.0,1901622426187.9568,4886011286203.362,109547248071771.34,3153103243384417.5
22.452681775019734,1.7907471595201694e+16,2.8365735267895812e+16,3020593140799058.0,4052459546286558.0,1968956379885.4521,5059020400480.86,113426237532420.27,3264756771295760.5
23.00173541052013,1.809486487292877e+16,2.8746341935544064e+16,3052202229090250.0,4094866632140703.0,2038281756221.3845,5237146427831.81,117419953131968.97,3379712820068286.5
23.561770118730532,1.828275260951523e+16,2.913115191636329e+16,3083894721623066.5,4137385614015491.5,2109650419401.0122,5420522638304.52,121531382971733.02,3498057415180015.0
24.133005521105144,1.847112986372392e+16,2.952024956842374e+16,3115669784920509.5,4180015373709597.5,2183115426547.0862,5609285367582.236,125763583891262.89,3619878561384333.0
24.715665631527248,1.86599911702316e+16,2.9913720608154544e+16,3147526497103810.0,4222754674421019.0,2258731049294.5703,5803574072495.489,130119682713150.02,3745266278563206.5
25.309978944157795,1.8849330543920824e+16,3.0311652153879772e+16,3179463848616550.0,4265602161718418.0,2336552795602.242,6003531387092.827,134602877500349.05,3874312637940945.5
25.91617852304095,1.9039141484099716e+16,3.0714132769623548e+16,3211480742936257.5,4308556364495945.5,2416637431778.5664,6209303179263.504,139216438825887.34,4007111798654713.5
26.53450209350177,1.9229416978679184e+16,3.1121252509222384e+16,3243575997279134.5,4351615695918635.5,2499043004719.699,6421038607906.408,143963711054822.6,4143760044677943.0
27.165192135371807,1.942014950833724e+16,3.1533102960780536e+16,3275748343302462.0,4394778454364748.5,2583828864357.2793,6638890180639.295,148848113638323.06,4284355822092709.5
27.808495978079243,1.9611331050699024e+16,3.194977729150592e+16,3307996427809610.5,4438042824371683.0,2671055686313.626,6863013812042.615,153873142419734.66,4428999776707520.0
28.464665897640828,1.9802953084557628e+16,3.237137029295752e+16,3340318813462126.5,4481406877591248.5,2760785494762.3955,7093568882432.438,159042370952518.66,4577794792016751.0
29.133959215593645,1.9995006594163268e+16,3.279797842673765e+16,3372713979503062.5,4524868573760157.0,2853081685492.443,7330718297157.023,164359451829941.4,4730846027498547.0
29.816638399905518,2.0187482073603468e+16,3.3229699870660444e+16,3405180322495961.5,4568425761691378.0,2948009049173.0854,7574628546412.762,169828118026397.1,4888260957247643.0
30.51297116790363,2.038036953129904e+16,3.3666634565424736e+16,3437716157083157.5,4612076180291556.0,3045633794818.77,7825469765573.769,175452184250275.03,5050149408940341.0
31.223230591261704,2.057365849463735e+16,3.4108884261820636e+16,3470319716767300.5,4655817459609484.0,3146023573451.699,8083415796032.0,181235548308259.06,5216623603128741.0
31.947695203086937,2.076733801476535e+16,3.45565525684972e+16,3502989154719841.5,4699647121920710.0,3249247501960.7554,8348644246543.475,187182192480990.75,5387798192861837.0
32.686649107148675,2.0961396671561056e+16,3.5009745000316972e+16,3535722544619645.5,4743562582852792.0,3355376187155.4453,8621336555077.553,193296184910015.5,5563790303631231.0
33.44038208929165,2.1155822578805772e+16,3.546856902732347e+16,3568517881525365.0,4787561152555520.0,3464481750013.972,8901678051166.666,199581680995952.66,5744719573639700.0
34.20918973107749,2.135060338957303e+16,3.5933134124346268e+16,3601373082784512.0,4831640036920583.0,3576637850124.3296,9189858018754.463,206042924807843.75,5930708194391431.0
34.993373525699035,2.1545726301854076e+16,3.640355182126711e+16,3634285988982298.5,4875796338854612.0,3691919710318.1733,9486069759540.727,212684250503653.78,6121880951602585.0
35.793240996213015,2.1741178064436136e+16,3.687993575397109e+16,3667254364933173.0,4920027059609301.0,3810404141496.931,9790510656823.191,219510083761904.78,6318365266432266.0
36.60910581613728,2.1936944983049096e+16,3.736240171600468e+16,3700275900717655.5,4964329100172612.0,3932169567650.4634,10103382239835.605,226524943224454.1,6520291237033424.0
37.44128793246003,2.2133012926796936e+16,3.785106771096298e+16,3733348212767163.0,5008699262724026.0,4057296051068.495,10424890248583.877,233733441950439.1,6727791680424761.0
38.29011369110923,2.2329367334887708e+16,3.834605400562759e+16,3766468844999188.0,5053134252157601.0,4185865317745.7026,10755244699182.29,241140288881437.88,6941002174684672.0
39.15591596493141,2.2525993223675172e+16,3.8847483183875544e+16,3799635270005085.5,5097630677675487.0,4317960782981.686,11094659949692.574,248750290317913.97,7160061101469249.0
40.03903428423004,2.2722875194025388e+16,3.935548020138076e+16,3832844890292710.5,5142185054455067.0,4453667577177.245,11443354766470.605,256568351407041.97,7385109688856832.0
40.93981496991464,2.2919997439020864e+16,3.987017244112635e+16,3866095039585769.5,5186793805392205.0,4593072571829.294,11801552391025.543,264599477642035.9,7616292054522629.0
41.85861126931294,2.311734375201034e+16,4.039168976974895e+16,3899382984181866.0,5231453262923160.0,4736264405726.768,12169480607398.861,272848776373127.1,7853755249247386.0
42.7957834946992,2.33148975350179e+16,4.092016459473304e+16,3932705924370756.0,5276159670927355.0,4883333511350.595,12547371810070.324,281321458330369.84,8097649300765251.0
43.751699164593184,2.3512641807517796e+16,4.145573192247435e+16,3966060995914517.0,5320909186713236.0,5034372141481.452,12935463072400.822,290022839158486.56,8348127257956385.0
