t(s),Total solute volume 1,Total retention volume 1,Total 1 volume 1,Total 2 volume 1,Total 3 volume 1,Total 4 volume 1,Total 5 volume 1,Total 6 volume 1
0.1,1383945849202658.0,3981468685541325.0,887646190648165.1,1709876645690502.0,0.0,0.0,0.0,-3.740371093031155e-123
0.202,2070395162291147.5,5957117721785026.0,1327926637689253.2,2557992063097402.0,125746274.93458962,563210941.5261829,27537524675.182884,775632225330.1906
0.30604000000000003,2596645957603809.5,7472388833412028.0,1665457605006801.0,3208179899679847.0,318569914.66769224,1426936335.3553436,70028101007.93677,2033597514315.329
0.41216080000000005,3042303244608943.0,8756188836035907.0,1951296854315503.2,3758793627900097.5,565482477.8551825,2532961632.158283,124496350692.91982,3667514416562.202
0.5204040160000001,3438208702530029.5,9897199429761712.0,2205225874295704.8,4247938487599487.5,860666399.1104493,3855222759.397605,189641415277.9044,5632008032054.834
0.6308120963200001,3799849880297602.0,1.0939952688691676e+16,2437178194591322.0,4694749503550500.0,1200992504.9889822,5379701098.278146,264766863464.34348,7903762695187.407
0.7434283382464002,4136257158254224.5,1.1910414579671898e+16,2652945793425263.0,5110383799174686.0,1584666691.1253095,7098359251.313609,349473939831.5126,10469671851952.562
0.8582969050113283,4453225460358189.0,1.2825248867065264e+16,2856245465795398.5,5502001058639612.0,2010672087.2407486,9006641750.147541,443536651012.22296,13322328307222.229
0.9754628431115548,4754729937818467.0,1.3695887726137008e+16,3049626826159645.0,5874512618952063.0,2478493812.3783903,11102241938.161135,546840408135.3696,16457922062935.87
1.094972099973786,5043634842567073.0,1.4530569937369168e+16,3234926971444438.5,6231457290320883.0,2987966409.870151,13384418488.631908,659348093709.5142,19875112558162.766
1.2168715419732616,5322083479401049.0,1.5335462052989498e+16,3413520591699319.0,6575483145882956.0,3539182112.2206135,15853584444.673975,781079685259.759,23574363554358.285
1.3412089728127268,5591728520468571.0,1.6115320555530218e+16,3586467691059235.5,6908632077489462.0,4132432280.0741158,18511044877.422504,912099258884.3727,27557523776897.816
1.4680331522689813,5853875825308672.0,1.6873905326692762e+16,3754605832200001.0,7232517486746865.0,4768168280.816754,21358821631.389046,1052506312240.7612,31827549135067.668
1.597393815314361,6109578370870191.0,1.761424967720546e+16,3918610381929760.5,7548440336450184.0,5446974419.215005,24399532060.834114,1202429763234.053,36388311685600.125
1.729341691620648,6359699907097237.0,1.833884333781077e+16,4079035339120355.0,7857467797661570.0,6169548688.287293,27636302799.11669,1362023683830.1777,41244464396312.68
1.863928525453061,6604959452846493.0,1.9049760368397716e+16,4236341873856510.0,8160488224835543.0,6936688789.576196,31072707133.680313,1531464202473.1667,46401343260790.63
2.001207095962122,6845963229413719.0,1.9748750953102412e+16,4390918809217656.5,8458250609990635.0,7749281819.037657,34712718802.02816,1710947219128.8582,51864895260653.59
2.1412312378813647,7083228104419059.0,2.043730879057943e+16,4543097657905421.0,8751393547849242.0,8608296573.804586,38560677528.46858,1900686701170.2485,57641624730433.37
2.284055862638992,7317199146441515.0,2.111672155536799e+16,4693163881576120.0,9040466924752446.0,9514777778.359896,42621263159.2365,2100913404536.962,63738553152423.16
2.4297369798917723,7548262999935164.0,2.178810934498085e+16,4841365469351911.0,9325948443493610.0,10469841746.693333,46899476230.371086,2311873912990.0264,70163188969187.92
2.578331719489608,7776758233430363.0,2.2452454427313996e+16,4987919575033171.0,9608256408617302.0,11474673139.631016,51400623441.6098,2533829919921.2515,76923505016665.62
2.7298983538794,8002983456451571.0,2.3110624574977732e+16,5133017723192402.0,9887759754946694.0,12530522572.236261,56130306938.31527,2767057698402.3267,84027921859153.64
2.884496320956988,8227203765057306.0,2.3763391596044384e+16,5276829943266425.0,1.0164786011107938e+16,13638704891.88672,61094416597.80087,3011847719727.0103,91485295771465.3
3.0421862473761276,8449655917291331.0,2.4411446214719532e+16,5419508089028767.0,1.0439627693848228e+16,14800597993.664488,66299124722.62869,3268504390903.1606,99304910437572.98
3.2030299723236504,8670552530864000.0,2.5055410142185264e+16,5561188530932225.0,1.0712547494309872e+16,16017642072.53376,71750882690.55724,3537345888829.137,107496471665572.66
3.3670905717701234,8890085519161657.0,2.569584595875576e+16,5701994359924159.0,1.0983782523251762e+16,17291339235.5933,77456419217.49222,3818704074165.3037,116070104585579.81
3.5344323832055258,9108428927490594.0,2.6333265272709864e+16,5842037206579368.0,1.1253547815255046e+16,18623253415.2177,83422739968.30855,4112924471794.714,125036352919647.5
3.7051210308696363,9325741292355698.0,2.6968135508753268e+16,5981418754313259.0,1.1522039243633796e+16,20015010536.978172,89657128308.98409,4420366307663.379,134406180004012.53
3.879223451487029,9542167617966838.0,2.7600885596835332e+16,6120232007089200.0,1.1789435962426586e+16,21468298906.1106,96167147037.74626,4741402593978.674,144190971312770.0
4.0568079205167695,9757841042974462.0,2.8231910771133456e+16,6258562358442966.0,1.2055902465664272e+16,22984869783.847874,102960640966.73262,5076420256415.929,154402538284556.22
4.237944078927105,9972884254557932.0,2.88615766433795e+16,6396488498461914.0,1.2321590334488686e+16,24566538130.761642,110045740251.79172,5425820298274.032,165053123294303.72
4.422702960505647,1.01874106949617e+16,2.949022268013312e+16,6534083187642885.0,1.2586639727839438e+16,26215183498.80635,117430864388.4084,5790017997528.045,176155405643667.8
4.61115701971576,1.0401525596375806e+16,3.011816518716635e+16,6671413920652228.0,1.285118066105841e+16,27932751057.33683,125124726807.77966,6169443133518.654,187722508468518.5
4.803380160110075,1.0615326872954196e+16,3.0745699883711104e+16,6808543498455525.0,1.311533410798641e+16,29721252741.21287,133136340019.79002,6564540240648.118,199768006481562.47
4.9994477633122765,1.0828905893233388e+16,3.137310413342547e+16,6945530523737797.0,1.3379212955293712e+16,31582768511.3806,141475021259.83832,6975768886955.61,212305934483903.88
5.199436718578522,1.1042348151872852e+16,3.200063888645823e+16,7082429831749705.0,1.3642922832421502e+16,33519447720.1546,150150398604.68127,7403603975851.729,225350796592024.34
5.403425452950093,1.1255733856204474e+16,3.2628550377121496e+16,7219292866513289.0,1.3906562836269012e+16,35533510574.91959,159172417529.15747,7848536069621.828,238917576136977.5
5.611493962009095,1.1469138440342576e+16,3.32570716138222e+16,7356168010566072.0,1.4170226166381354e+16,37627249695.18994,168551347881.11703,8311071733578.74,253021746201025.22
5.823723841249277,1.1682633017413648e+16,3.38864236915997e+16,7493100875015708.0,1.4434000683683466e+16,39803031758.97486,178297791256.40143,8791733899968.153,267679280763884.03
6.040198318074262,1.189628477869401e+16,3.4516816952529884e+16,7630134555542164.0,1.4697969403618252e+16,42063299235.2302,188422688759.4622,9291062250914.8,282906666436515.4
6.261002284435747,1.21101573470074e+16,3.5148452015129224e+16,7767309859062668.0,1.4962210932772758e+16,44410572199.879944,198937329138.333,9809613619852.656,298720914765207.4
6.486222330124463,1.2324311090561756e+16,3.5781520690522308e+16,7904665505022876.0,1.5226799856626394e+16,46847450233.472534,209853357285.29614,10347962411011.398,315139575092729.4
6.715946776726952,1.2538803402441774e+16,3.641620680036905e+16,8042238304660012.0,1.5491807084866292e+16,49376614399.03864,221182783096.81714,10906701036642.35,332180747966777.6
6.950265712261491,1.2753688950179836e+16,3.705268690926997e+16,8180063321074721.0,1.575730015973485e+16,52000829299.13529,232937990688.20355,11486440371759.605,349863099088822.44
7.18927102650672,1.296901989917065e+16,3.769113098247595e+16,8318174012526525.0,1.6023343532060396e+16,54722945211.42594,245131747960.0767,12087810226252.836,368205873798976.25
7.433056447036854,1.318484611314653e+16,3.833170297815478e+16,8456602361016279.0,1.6289998808946244e+16,57545900302.45807,257777216515.1312,12711459834297.266,387228912094642.06
7.681717575977592,1.3401215334472486e+16,3.89745613821532e+16,8595378987925245.0,1.6557324976527026e+16,60472722919.56824,270887961924.8785,13358058361045.707,406952664182569.75
7.935351927497144,1.3618173346635976e+16,3.961985969208675e+16,8734533258234101.0,1.6825378600726096e+16,63506533961.08238,284477964347.1221,14028295426640.395,427398206565579.06
8.194058966047088,1.3835764120981484e+16,4.0267746856659016e+16,8874093374636746.0,1.7094214008547724e+16,66650549325.18594,298561629495.8461,14722881647627.902,448587258666627.1
8.45794014536803,1.4054029949466556e+16,4.091836767532561e+16,9014086462688430.0,1.7363883452098202e+16,69908082438.02159,313153799966.0048,15442549195901.076,470542199994179.9
8.72709894827539,1.4273011564982228e+16,4.157186316274593e+16,9154538647977794.0,1.7634437257242838e+16,73282546861.73392,328269766916.45306,16188052375327.53,493286087853956.44
9.0016409272409,1.4492748250582792e+16,4.2228370881899416e+16,9295475126185602.0,1.7905923958560518e+16,76777458983.32782,343925282114.8816,16960168216257.291,516842675613132.2
9.281673745785717,1.4713277938800076e+16,4.288802524925426e+16,9436920226783688.0,1.8178390422047252e+16,80396440785.33542,360136570349.2376,17759697088130.453,541236431523990.75
9.567307220701432,1.4934637302071714e+16,4.3550957814957544e+16,9578897471034570.0,1.8451881956841156e+16,84143222699.40828,376920342210.6031,18587463330432.184,566492558114840.9
9.85865336511546,1.5156861835187758e+16,4.421729752065842e+16,9721429624871738.0,1.8726442417086068e+16,88021646544.05751,394293807253.0355,19444315902266.22,592637012156769.6
10.155826432417769,1.5379985930552142e+16,4.48871709372637e+16,9864538747171392.0,1.9002114294917716e+16,92035668547.86108,412274687536.2665,20331129050840.46,619696525215477.8
10.458942961066125,1.5604042946961506e+16,4.556070248466001e+16,1.0008246233866478e+16,1.9278938805440788e+16,96189362459.55403,430881231557.605,21248802999177.31,647698624798099.6
10.768121820287448,1.582906527252353e+16,4.623801463520003e+16,1.0152572858301644e+16,1.9556955964464636e+16,100486922746.49597,450132228579.7385,22198264653381.24,676671656105499.9
11.083484256693197,1.6055084382265588e+16,4.6919228102550424e+16,1.0297538808182754e+16,1.9836204659679892e+16,104932667883.0921,470047023361.48987,23180468329812.844,706644804401063.8
11.405153941827061,1.6282130890923626e+16,4.760446201732303e+16,1.044316371943509e+16,2.01167227158792e+16,109531043730.81511,490645531298.91925,24196396502534.6,737648118007560.9
11.733257020663602,1.6510234601346964e+16,4.829383409075522e+16,1.0589466707249656e+16,2.0398546954762064e+16,114286627011.54512,511948253984.45355,25247060571409.88,769712531944106.5
12.067922161076874,1.673942454890816e+16,4.89874607675695e+16,1.073646639456692e+16,2.0681713249803356e+16,119204128876.00838,533976295192.03076,26333501651249.785,802869892215737.4
12.409280604298411,1.6969729042264666e+16,4.9685457369027544e+16,1.0884180938221106e+16,2.096625657661498e+16,124288398569.1614,556751377296.5165,27456791382417.03,837152980768553.9
12.75746621638438,1.720117570078369e+16,5.0387938227084584e+16,1.1032628052943916e+16,2.1252211059184596e+16,129544427194.41576,580295858135.8984,28618032763308.89,872595541123769.8
13.112615540712067,1.7433791488909122e+16,5.109501681046196e+16,1.1181825033407122e+16,2.1539610012336176e+16,134977351578.66356,604632748325.0424,29818361005152.51,909232304704463.0
13.474867851526309,1.7667602747720558e+16,5.180680584337203e+16,1.1331788774464052e+16,2.1828485980721404e+16,140592458240.1152,629785729029.9894,31058944409559.895,947099017869164.2
13.844365208556836,1.7902635223910014e+16,5.2523417417559864e+16,1.1482535789735048e+16,2.2118870774621016e+16,146395187461.0026,655779170212.0452,32340985269297.965,986232469666799.2
14.221252512727972,1.8138914096379224e+16,5.324496309825873e+16,1.1634082228666514e+16,2.241079550280556e+16,152391137467.2652,682638149351.0869,33665720792743.74,1026670520327883.0
14.605677562982532,1.8376464000640628e+16,5.397155402460475e+16,1.1786443892181522e+16,2.2704290602683484e+16,158586068717.36526,710388470657.7621,35034424052500.902,1068452130507168.1
14.997791114242183,1.8615309051187748e+16,5.4703301005000184e+16,1.1939636247027848e+16,2.2999385867939544e+16,164985908302.4372,739056684784.4084,36448404958668.086,1111617391293317.5
15.397746936527026,1.8855472861984212e+16,5.544031460787541e+16,1.209367443891942e+16,2.3296110473849564e+16,171596754460.01437,768670109044.771,37909011257255.11,1156207555001488.5
15.805701875257567,1.9096978565208092e+16,5.618270524825429e+16,1.2248573304558712e+16,2.3594493000438916e+16,178424881203.61304,799256848152.7217,39417629554255.664,1202265066765012.2
16.221815912762718,1.933984882837347e+16,5.693058327049537e+16,1.2404347382618256e+16,2.389456145363647e+16,185476743070.49908,830845815490.4141,40975686365891.484,1249833596942642.8
16.64625223101797,1.958410586994215e+16,5.7684059027547976e+16,1.2561010923753842e+16,2.4196343284563324e+16,192758979990.00275,863466754916.4324,42584649195553.81,1298958074358256.8
17.079177275638333,1.9829771473526572e+16,5.844324295703396e+16,1.271857789971412e+16,2.4499865407079988e+16,200278422274.77377,897150263124.6948,44246027637973.516,1349684720389942.8
17.5207608211511,2.007686700077682e+16,5.9208245654437656e+16,1.2877062011606242e+16,2.4805154213709148e+16,208042095737.4123,931927812565.0085,45961374511161.7,1402061083925983.5
17.97117603757412,2.0325413403036444e+16,5.997917794366773e+16,1.3036476697371528e+16,2.5112235590035976e+16,216057226934.94586,967831774936.3163,47732287016668.305,1456136077205233.2
18.430599558325603,2.0575431231843604e+16,6.075615094522973e+16,1.3196835138520996e+16,2.5421134927682692e+16,224331248543.64847,1004895445263.8496,49560407928714.55,1511960012559863.0
18.899211549492115,2.0826940648348532e+16,6.153927614223054e+16,1.3358150266175584e+16,2.5731877135943756e+16,232871804866.72586,1043153066571.4973,51447426812761.17,1569584640078509.2
19.37719578048196,2.1079961431711428e+16,6.232866544442053e+16,1.3520434766452326e+16,2.6044486652161676e+16,241686757477.43295,1082639855160.8633,53395081274080.8,1629063186208315.8
19.864739696091597,2.1334512986540096e+16,6.31244312504603e+16,1.3683701085234934e+16,2.635898745091637e+16,250784191000.20566,1123392026508.576,55405158236910.2,1690450393314342.2
20.36203449001343,2.1590614349421172e+16,6.392668650858889e+16,1.3847961432362696e+16,2.667540305209419e+16,260172419032.41275,1165446821793.565,57479495254762.05,1753802560215254.8
20.869275179813698,2.1848284194594544e+16,6.473554477585593e+16,1.4013227785270154e+16,2.6993756527899172e+16,269859990209.36374,1208842535066.08,59619981852482.625,1819177583714307.8
21.38666068340997,2.2107540838817172e+16,6.555112027606686e+16,1.417951189210655e+16,2.731407050886219e+16,279855694415.2328,1253618541070.3704,61828560900645.65,1886635001144792.0
21.91439389707817,2.2368402245457564e+16,6.637352795658415e+16,1.434682527436196e+16,2.763636718889939e+16,290168569142.56244,1299815323732.95,64107230022879.35,1956236033949484.2
22.452681775019734,2.263088602785989e+16,6.72028835441157e+16,1.451517922902515e+16,2.796066832946907e+16,300807906003.0517,1347474505328.6377,66458043036723.336,2028043632313583.2
23.00173541052013,2.289500945201335e+16,6.803930359961172e+16,1.4684584830295592e+16,2.828699526286947e+16,311783257392.32574,1396638876336.32,68883111428621.2,2102122520870934.2
23.561770118730532,2.3160789438559896e+16,6.888290557238709e+16,1.4855052930871156e+16,2.8615368894719456e+16,323104443311.4169,1447352425996.8228,71384605863653.45,2178539245503514.5
24.133005521105144,2.3428242564170444e+16,6.973380785357648e+16,1.502659416283078e+16,2.8945809705658584e+16,334781558347.6842,1499660373584.9631,73964757730620.03,2257362221254128.5
24.715665631527248,2.369738506231741e+16,7.05921298290246e+16,1.5199218938130172e+16,2.9278337752302016e+16,346824978817.91705,1553609200408.2104,76625860723084.14,2338661781372583.5
25.309978944157795,2.3968232823470916e+16,7.145799193170578e+16,1.5372937448727286e+16,2.9612972667482388e+16,359245370076.3648,1609246682544.1304,79370272456988.55,2422510227515603.0
25.91617852304095,2.4240801394740884e+16,7.233151569376677e+16,1.5547759666353234e+16,2.994973365980816e+16,372053693990.45215,1666621924329.0732,82200416125461.02,2508981881120821.0
26.53450209350177,2.451510597898994e+16,7.321282379827605e+16,1.5723695341942798e+16,3.0288639512567316e+16,385261216586.9184,1725785392610.3132,85118782191416.16,2598153135975426.0
27.165192135371807,2.4791161433435796e+16,7.410204013076106e+16,1.5900754004738476e+16,3.0629708582000624e+16,398879515871.1534,1786788951774.0454,88127930118580.19,2690102511999872.0
27.808495978079243,2.5068982267764444e+16,7.49992898306132e+16,1.6078944961079986e+16,3.097295879497055e+16,412920489822.4514,1849685899561.5142,91230490141535.73,2784910710267319.0
28.464665897640828,2.534858264177146e+16,7.590469934243304e+16,1.6258277292891608e+16,3.1318407646046896e+16,427396364567.9367,1914531003685.5315,94429165075412.05,2882660669279354.5
29.133959215593645,2.5629976362549044e+16,7.681839646738491e+16,1.6438759855877906e+16,3.166607219403164e+16,442319702737.8849,1981380539259.627,97726732165823.06,2983437622518590.5
29.816638399905518,2.5913176881234804e+16,7.774051041463253e+16,1.6620401277438474e+16,3.201596905794181e+16,457703412005.14124,2050292327051.9485,101126044979661.11,3087329157298853.5
30.51297116790363,2.619819728933738e+16,7.867117185291584e+16,1.6803209954311228e+16,3.2368114412470004e+16,473560753811.36237,2121325772576.0168,104630035337349.39,3194425274933335.5
31.223230591261704,2.648505031465386e+16,7.961051296233467e+16,1.6987194049953862e+16,3.272252398293998e+16,489905352282.70465,2194541906030.323,108241715287153.95,3304818452241435.0
31.947695203086937,2.6773748316791556e+16,8.055866748640024e+16,1.7172361491671562e+16,3.3079213039774004e+16,506751203337.6611,2270003423098.595,111964179122143.61,3418603704414552.5
32.686649107148675,2.7064303282307908e+16,8.151577078440838e+16,1.7358719967499896e+16,3.3438196392488236e+16,524112683989.6322,2347774726622.512,115800605440390.55,3535878649261289.0
33.44038208929165,2.7356726819481004e+16,8.248195988419507e+16,1.7546276922850482e+16,3.379948838323147e+16,542004561846.8262,2427921969158.437,119754259248985.98,3656743572852245.0
34.20918973107749,2.765103015272159e+16,8.345737353532779e+16,1.7735039556927176e+16,3.4163102879881172e+16,560442004812.05,2510513096429.61,123828494112452.27,3781301496584428.0
34.993373525699035,2.79472241166391e+16,8.444215226278514e+16,1.792501481891998e+16,3.4529053268712176e+16,579440590984.8832,2595617891685.074,128026754346102.3,3909658245685229.0
35.793240996213015,2.8245319149772004e+16,8.543643842117632e+16,1.811620940398362e+16,3.489735244665028e+16,599016318768.7251,2683308020976.267,132352577254914.69,4041922519175671.0
36.60910581613728,2.854532528799327e+16,8.64403762495535e+16,1.830862974900816e+16,3.526801281312462e+16,619185617185.095,2773657079362.2974,136809595418455.44,4178205961312357.0
37.44128793246003,2.884725215760143e+16,8.745411192686498e+16,1.8502282028187508e+16,3.564104626153195e+16,639965356397.5757,2866740638054.251,141401539022388.03,4318623234527298.0
38.29011369110923,2.915110896810741e+16,8.847779362809738e+16,1.8697172148393012e+16,3.601646417032418e+16,661372858447.6909,2962636292509.0454,146132238237083.28,4463292093884664.0
39.15591596493141,2.9456904504726732e+16,8.951157158115424e+16,1.889330574435808e+16,3.6394277393732904e+16,683425908204.9622,3061423711482.746,151005625643839.1,4612333463072978.0
40.03903428423004,2.9764647120587736e+16,9.055559812452288e+16,1.9090688173680584e+16,3.67744962521427e+16,706142764533.2965,3163184687053.1,156025738709200.12,4765871511950996.0
