t(s),Total solute volume 1,Total retention volume 1,Total 1 volume 1,Total 2 volume 1,Total 3 volume 1,Total 4 volume 1,Total 5 volume 1,Total 6 volume 1
0.1,878184692305091.0,1002349173156223.1,60489917771387.09,63674563079745.664,0.0,0.0,0.0,0.0
0.202,1323112645254488.2,1510319522822493.0,91136837086495.08,95934967626827.33,283394092.79338723,501364336.49484986,6425325991.889343,127862770261.21495
0.30604000000000003,1661905593518124.0,1897221249204936.5,114473109976736.53,120499837988018.34,719020991.4867176,1272050366.8547707,16302221401.021515,324414429297.53973
0.41216080000000005,1948426923177019.5,2224519176053719.2,134208880658675.12,141274648523232.97,1277132146.3476179,2259428722.3640146,28956190871.318924,576230943052.4946
0.5204040160000001,2202837827621308.2,2515218744896903.0,151732864909820.25,159721227499671.5,1944519013.5840666,3440131685.501969,44087758493.36559,877352456909.3342
0.6308120963200001,2435182243011180.5,2780780600665861.5,167736895416451.94,176567830898651.4,2714090614.9738398,4801614382.985899,61536152066.64037,1224579482521.1746
0.7434283382464002,2651297500115917.0,3027865465499020.5,182623051219979.38,192237706236589.06,3581786926.6632667,6336694131.854515,81209320066.91998,1616080125407.475
0.8582969050113283,2854922891291362.0,3260740226634153.5,196648897146649.97,207001978495600.78,4545310785.803339,8041307003.004984,103055180196.1894,2050817902554.9094
0.9754628431115548,3048620655190819.0,3482328839189086.5,209990921817993.0,221046427989811.0,5603503099.556751,9913402477.929785,127047453543.33644,2528269831336.655
1.094972099973786,3234235639093952.0,3694736814145027.0,222776199483258.94,234504819115641.66,6755996827.9261265,11952331295.818645,153177819373.3442,3048270304675.7163
1.2168715419732616,3413147640440507.0,3899539138750694.0,235099771464130.47,247477196886946.8,8003009052.504528,14158477594.185738,181451200729.0229,3610917271728.9067
1.3412089728127268,3586420234243957.0,4097950083057477.0,247034897481247.75,260040677968728.44,9345208301.708174,16533024188.850563,211882756316.30884,4216512374735.0327
1.4680331522689813,3754893612031731.0,4290929122912182.5,258639450459234.22,272256182152940.0,10783625955.437756,19077795836.658516,244495871798.0435,4865520974686.219
1.597393815314361,3919245167598814.0,4479250062581918.5,269960089711772.78,284172825251521.2,12319594968.966307,21795150829.77778,279320770493.6602,5558544503517.66
1.729341691620648,4080030529754881.5,4663547848266087.0,281035087303229.47,295830894259017.3,13954706319.467226,24687903943.859344,316393525902.36847,6296300812792.118
1.863928525453061,4237712230115678.0,4844351274091483.0,291896302704281.6,307263925968974.44,15690777392.505644,27759270509.689526,355755344939.8384,7079609909714.879
2.001207095962122,4392680268620144.5,5022106444230204.0,302570599357762.25,318500198118502.9,17529828673.736557,31012825177.940117,397452039478.0011,7909383440467.818
2.1412312378813647,4545267206363493.0,5197193991393675.0,313080884282563.94,329563823724768.25,19474066378.585365,34452471189.06487,441533632516.19135,8786616852765.971
2.284055862638992,4695759463684895.0,5369941966124102.0,323446886293075.6,340475570275773.1,21525869430.82265,38082417337.021866,488054062954.453,9712383520637.807
2.4297369798917723,4844405926048724.0,5540635654785643.0,333685748777738.7,351253483717245.25,23687779695.09364,41907160689.721306,537070964143.59875,10687830337391.432
2.578331719489608,4991424601010114.0,5709525174270216.0,343812488235038.56,361913371129430.0,25962494691.619858,45931473700.80841,588645498713.5416,11714174428538.324
2.7298983538794,5137007838851962.0,5876831428214600.0,353840353874307.56,372469179259979.0,28352862238.13359,50160394731.01815,642842237097.8335,12792700734285.521
2.884496320956988,5281326475439380.0,6042750836353391.0,363781112980504.3,382933294918523.8,30861876607.93624,54599221326.84156,699729089615.1844,13924762827433.154
3.0421862473761276,5424533168680529.0,6207459131182151.0,373645280722223.06,393316786859154.75,33492675932.176674,59253505326.104095,759377171091.8658,15111771567902.38
3.2030299723236504,5566765084243783.0,6371114438009285.0,383442305160052.1,403629600565940.06,36248540544.57407,64129050377.729836,821860877732.6398,16355209570844.854
3.3670905717701234,5708146113313745.0,6533859795663721.0,393180719997265.0,413880719020663.7,39132892193.66796,69231910251.18794,887257793219.5994,17656620736390.777
3.5344323832055258,5848788693605841.0,6695825237470364.0,402868270014921.06,424078294748077.0,42149293915.15518,74568388685.50919,955648704789.8319,19017612714133.95
3.7051210308696363,5988795325945677.0,6857129522473089.0,412512015534811.3,434229759778570.9,45301450489.47544,80145040199.52348,1027117613619.9017,20439857109711.84
3.879223451487029,6128259844777885.0,7017881586033776.0,422118419932921.9,444341917768994.5,48593209397.9368,85968671784.12578,1101751756514.078,21925089916271.43
4.0568079205167695,6267268489562860.0,7178181763373903.0,431693423437908.75,454421021686447.9,52028562212.65256,92046345362.05351,1179641637428.8633,23475112141674.56
4.237944078927105,6405900813800153.0,7338122827967398.0,441242505745213.7,464472839718876.7,55611646368.77087,98385380924.03021,1260881067665.6853,25091790608196.69
4.422702960505647,6544230460678663.0,7497790877865595.0,450770739444333.75,474502711515151.9,59346747277.77515,104993360268.35887,1345567213797.3196,26777058906120.85
4.61115701971576,6682325828434299.0,7657266096282484.0,460282835849086.1,484515596428190.2,63238300748.75014,111878131285.39018,1433800652577.2502,28532918486289.26
4.803380160110075,6820250643927824.0,7816623407557427.0,469783184506003.9,494516115103363.44,67290895690.946724,119047812739.69855,1525685432227.6638,30361439879581.586
4.9994477633122765,6958064459396832.0,7975933045554105.0,479275887410935.9,504508585496526.3,71509277076.14494,126510799511.92604,1621329139618.3667,32264764033617.445
5.199436718578522,7095823084545282.0,8135261048369663.0,488764788771642.25,514497054203531.5,75898349143.4784,134275768269.62463,1720842972943.7988,34245103758862.523
5.403425452950093,7233578963924307.0,8294669690709140.0,498253501002024.6,524485323823000.6,80463178832.77101,142351683542.42853,1824341819581.7815,36304745277845.13
5.611493962009095,7371381507800447.0,8454217863274530.0,507745427512540.56,534476976946589.1,85208999435.22131,150747804181.7973,1931944338880.9387,38446049872443.914
5.823723841249277,7509277383296484.0,8613961406908961.0,517243782764166.06,544475397268748.6,90141214452.55507,159473690189.63354,2043773049675.5398,40671455625241.48
6.040198318074262,7647310771452711.0,8773953407938870.0,526751609974944.3,554483788225474.0,95265401657.67491,168539209903.4368,2159954422369.7087,42983479251800.65
6.261002284435747,7785523594932778.0,8934244460103637.0,536271796804500.44,564505189504576.0,100587317351.43002,177954547528.4934,2280618975469.174,45384718021434.83
6.486222330124463,7923955720344383.0,9094882897602714.0,545807089290028.25,574542491715363.4,106112900811.4715,187730211009.9574,2405901376469.081,47877851764654.57
6.715946776726952,8062645138526772.0,9255915003084278.0,555360104264597.4,584598449460737.9,111848278930.29701,197877040239.71368,2535940547032.292,50465644965981.37
6.950265712261491,8201628125646382.0,9417385193818000.0,564933340453531.4,594675693017775.6,117799771040.55957,208406215594.61154,2670879772414.599,53150948941265.414
7.18927102650672,8340939387519762.0,9579336188812188.0,574529188415456.6,604776738802138.6,123973893926.55681,219329266804.15866,2810866815112.219,55936704099010.33
7.433056447036854,8480612189230496.0,9741809159234582.0,584149939470407.2,614903998766229.6,130377367021.52905,230658082147.02536,2956054032723.3057,58825942285547.414
7.681717575977592,8620678471812863.0,9904843864159426.0,593797793737048.9,625059788859567.9,137017117791.03592,242404917976.8386,3106598500029.712,61821789214174.22
7.935351927497144,8761168957527584.0,1.0068478773383592e+16,603474867384166.5,635246336662018.2,143900287303.22693,254582408578.70685,3262662135317.3115,64927466978628.45
8.194058966047088,8902113245047372.0,1.023275117881469e+16,613183199187084.0,645465788285419.5,151034235987.31317,267203576358.80573,3424411830964.8696,68146296651487.82
8.45794014536803,9043539895692936.0,1.0397697295735496e+16,622924756467663.5,655720214626300.5,158426549581.97598,280281842370.0855,3592019588340.694,71481700968278.72
8.72709894827539,9185476511711322.0,1.0563352355076852e+16,632701440486161.1,666011617041598.6,166085045275.8471,293831037177.8989,3765662657055.5933,74937207098258.08
9.0016409272409,9327949807460094.0,1.0729750687686314e+16,642515091344458.1,676341932510039.0,174017778042.53528,307865412069.9142,3945523678628.371,78516449502984.55
9.281673745785717,9470985674253230.0,1.0896925801456148e+16,652367492452656.2,686713038333882.6,182233047173.00247,322399650615.2943,4131790834627.397,82223172883944.75
9.567307220701432,9614609239529104.0,1.1064910452066352e+16,662260374604624.9,697126756429050.0,190739403008.37408,337448880578.5968,4324657999358.3623,86061235220627.22
9.85865336511546,9758844920922556.0,1.123373670800861e+16,672195419702522.4,707584857245715.0,199545653876.547,353028686194.3533,4524324897174.563,90034610900563.64
10.155826432417769,9903716475752482.0,1.1403436010475998e+16,682174264165525.0,718089063356504.5,208660873236.19824,369155120808.71704,4730997264491.425,94147393942960.81
10.458942961066125,1.004924704637647e+16,1.157403922863656e+16,692198502053879.4,728641052745022.1,218094407032.04352,385844719894.96967,4944887016592.646,98403801317660.75
10.768121820287448,1.019545920181223e+16,1.1745576710748054e+16,702269687935826.0,739242461823705.1,227855881265.38654,403114514450.0828,5166212419319.759,102808176361257.22
11.083484256693197,1.0342374975980224e+16,1.1918078331521268e+16,712389339521757.0,749894888206677.4,237955209784.23914,420982044779.87836,5395198265742.223,107364992292295.4
11.405153941827061,1.049001590288185e+16,1.2091573536092026e+16,722558940087333.8,760599893260418.2,248402602297.45767,439465374680.68585,5632076057908.861,112078855827565.11
11.733257020663602,1.0638403048993894e+16,1.2266091380925334e+16,732779940704820.4,771359004452583.8,259208572617.54932,458583106025.71326,5877084193786.367,116954510901584.7
12.067922161076874,1.078755704312915e+16,1.2441660571938024e+16,743053762299912.9,782173717517113.9,270383947136.96265,478354393764.6872,6130468159494.182,121996842491450.92
12.409280604298411,1.0937498103985998e+16,1.2618309500098288e+16,753381797549362.0,793045498451774.2,281939873542.8605,498798961345.5848,6392480726949.032,127210880549311.36
12.75746621638438,1.108824606558801e+16,1.2796066274732138e+16,763765412633270.2,803975785362699.5,293887829775.53735,519937116567.6193,6663382157036.458,132601804044785.64
13.112615540712067,1.1239820400791708e+16,1.2974958754744226e+16,774205948854338.6,814965990168873.6,306239633235.79095,541789767874.87836,6943440408429.832,138174945119737.45
13.474867851526309,1.1392240243024988e+16,1.31550145779399e+16,784704724135192.0,826017500178319.4,319007450246.73846,564378441100.3322,7232931352181.451,143935793357869.94
13.844365208556836,1.154552440639953e+16,1.3336261188616024e+16,795263034403767.0,837131679546395.0,332203805775.6922,587725296670.1646,7532138992213.074,149890000171684.7
14.221252512727972,1.1699691404329598e+16,1.3518725863573094e+16,805882154875765.4,848309870625779.6,345841593421.8836,611853147278.6729,7841355691837.578,156043383309408.6
14.605677562982532,1.1854759466773758e+16,1.3702435736685392e+16,816563341242280.2,859553395216616.2,359934085675.9424,636785476044.2145,8160882406445.564,162401931484566.94
14.997791114242183,1.2010746556206784e+16,1.3887417822154374e+16,827307830769950.6,870863555724592.9,374494944457.2188,662546455156.9517,8491028922495.199,168971809130935.16
15.397746936527026,1.216767038241791e+16,1.40736990365577e+16,838116843320279.8,882241636233932.8,389538231935.12585,689160965029.3755,8832114102945.566,175759361285674.75
15.805701875257567,1.2325548416223008e+16,1.4261306219797124e+16,848991582294129.9,893688903501594.2,405078421640.86786,716654613960.8534,9184466139278.012,182771118603505.0
16.221815912762718,1.2484397902169792e+16,1.4450266155038488e+16,859933235506876.4,905206607878516.6,421130409876.0213,745053758327.6722,9548422810252.344,190013802504850.72
16.64625223101797,1.2644235870308212e+16,1.464060558772963e+16,870942975999142.2,916795984163031.2,437709527424.57227,774385523310.2737,9924331747547.748,197494330460934.6
17.079177275638333,1.2805079147091324e+16,1.4832351243773314e+16,882021962787676.4,928458252391273.6,454831551575.1678,804677824169.6462,10312550708441.762,205219821418854.44
17.5207608211511,1.2966944365466352e+16,1.5025529846927612e+16,893171341560416.0,940194618568838.5,472512718460.43054,835959388084.9985,10713447855683.068,213197601369760.6
17.97117603757412,1.3129847974210174e+16,1.5220168135497654e+16,904392245319536.1,952006275347682.2,490769735720.3304,868259776565.1661,11127402044716.98,221435209063269.2
18.430599558325603,1.3293806246558698e+16,1.5416292878380022e+16,915685794975835.0,963894402651805.1,509619795496.74695,901609408446.2744,11554803118424.78,229940401871329.47
18.899211549492115,1.3458835288175048e+16,1.5613930890513212e+16,927053099897587.9,975860168254998.6,529080587766.4142,936039583488.529,11996052209541.572,238721161804805.12
19.37719578048196,1.3624951044497588e+16,1.5813109047785508e+16,938495258416691.9,987904728313633.6,549170314019.63074,971582506585.1222,12451562050918.982,247785701686084.4
19.864739696091597,1.3792169307505392e+16,1.601385430144602e+16,950013358294670.4,1000029227857212.5,569907701292.1522,1008271312596.4343,12921757293802.074,257142471481073.47
20.36203449001343,1.396050572193478e+16,1.6216193692061368e+16,961608477150865.5,1012234801239084.9,591312016557.8353,1046140091822.961,13407074834291.834,266800164793984.62
20.869275179813698,1.4129975790977686e+16,1.6420154363056462e+16,973281682854964.0,1024522572549652.6,613403081489.6713,1085223916130.4579,13907964148167.084,276767725528360.72
21.38666068340997,1.4300594881490048e+16,1.6625763573875174e+16,985034033885734.1,1036893655993991.6,636201287596.9263,1125558865741.0251,14424887634240.639,287054354717824.9
21.91439389707817,1.4472378228734448e+16,1.6833048712792842e+16,996866579657712.4,1049349156235736.0,659727611746.2043,1167182056703.9304,14958320966427.586,297669517530061.6
22.452681775019734,1.4645340940679644e+16,1.7042037309409232e+16,1008780360817355.8,1061890168708816.0,684003632074.2417,1210131669060.0972,15508753454703.332,308622950447586.06
23.00173541052013,1.481949800187601e+16,1.7252757046848422e+16,1020776409509986.4,1074517779898473.2,709051544300.3677,1254446975714.2273,16076688415130.79,319924668628826.0
23.561770118730532,1.4994864276923926e+16,1.7465235773688046e+16,1032855749618690.4,1087233067592716.4,734894178446.5034,1300168372028.5771,16662643549136.158,331584973453115.06
24.133005521105144,1.5171454513548302e+16,1.767950151563713e+16,1045019396976098.2,1100037101105262.2,761555015972.5685,1347337406152.3154,17267151332212.338,343614460253113.56
24.715665631527248,1.5349283345290924e+16,1.789558248697945e+16,1057268359549842.9,1112930941470758.2,789058207335.1754,1395996810100.4497,17890759412228.42,356024026238222.1
25.309978944157795,1.5528365293827852e+16,1.8113507101794344e+16,1069603637602156.1,1125915641612781.2,817428589977.3135,1446190531595.9822,18534031017520.566,368824878612455.75
25.91617852304095,1.5708714770916894e+16,1.8333303984964588e+16,1082026223824048.4,1138992246485069.5,846691706756.6705,1497963766688.8154,19197545374938.168,382028542890218.56
26.53450209350177,1.5890346079976192e+16,1.8555001982975544e+16,1094537103444017.4,1152161793185978.8,876873824820.0017,1551362993164.626,19881898138013.527,395646871413326.44
27.165192135371807,1.6073273417291548e+16,1.8778630174506376e+16,1107137254311212.1,1165425311045993.0,908001954930.7081,1606436004756.351,20587701825418.164,409692052072503.75
27.808495978079243,1.6257510872845008e+16,1.9004217880809036e+16,1119827646952514.8,1178783821687836.5,940103871256.447,1663231946170.4653,21315586269860.793,424176617236416.4
28.464665897640828,1.6443072430754462e+16,1.92317946758649e+16,1132609244602822.2,1192238339058339.0,973208131623.2106,1721801348939.3723,22066199077573.367,439113452891156.75
29.133959215593645,1.6629971969307724e+16,1.9461390396303644e+16,1145483003207379.8,1205789869430892.8,1007344098241.7135,1782196168110.406,22840206098517.758,454515807992789.94
29.816638399905518,1.6818223260569446e+16,1.9693035151062616e+16,1158449871394709.8,1219439411376961.2,1042541958911.3508,1844469819780.7332,23638291907434.406,470397304035360.4
30.51297116790363,1.7007839969534204e+16,1.992675933075753e+16,1171510790418285.8,1233187955704670.2,1078832748706.1986,1908677219486.0898,24461160295832.523,486771944836330.44
31.223230591261704,1.7198835652792358e+16,2.0162593616728764e+16,1184666694064629.5,1247036485362074.2,1116248372146.5955,1974874821449.7222,25309534775005.16,503654126541082.06
31.947695203086937,1.739122375666872e+16,2.040056898971824e+16,1197918508525090.0,1260985975302184.8,1154821625858.7725,2043120658695.9329,26184159090123.543,521058647847566.9
32.686649107148675,1.7585017614786932e+16,2.064071673812429e+16,1211267152228102.5,1275037392306397.5,1194586221723.75,2113474384030.4102,27085797745441.3,539000720451658.56
33.44038208929165,1.7780230445006226e+16,2.088306846577282e+16,1224713535628159.8,1289191694762347.8,1235576810515.2976,2185997311887.0283,28015236540601.62,557495979713102.7
34.20918973107749,1.7976875345667276e+16,2.1127656099132508e+16,1238258560947241.2,1303449832391746.8,1277829006024.9758,2260752461037.7964,28973283118006.695,576560495541190.4
34.993373525699035,1.8174965291078932e+16,2.1374511893893424e+16,1251903121863942.8,1317812745923099.0,1321379409670.583,2337804598159.301,29960767521164.016,596210783498455.0
35.793240996213015,1.8374513126166612e+16,2.1623668440816596e+16,1265648103144830.8,1332281366703704.8,1366265635582.0217,2417220282245.308,30978542763875.977,616463816119747.0
36.60910581613728,1.857553156019779e+16,2.1875158670753788e+16,1279494380212280.0,1346856616244695.0,1412526336156.3816,2499067909850.9893,32027485410087.33,637337034442906.1
37.44128793246003,1.8778033159490176e+16,2.212901585872421e+16,1293442818642178.5,1361539405692326.8,1460201228071.313,2583417761149.453,33108496164143.223,658848359746176.8
38.29011369110923,1.8982030339001148e+16,2.2385273626926724e+16,1307494273584622.8,1376330635218167.0,1509331118742.8696,2670342046776.4097,34222500471147.316,681016205486107.6
39.15591596493141,1.9187535352690724e+16,2.264396594655512e+16,1321649589100101.0,1391231193320320.2,1559957933210.9685,2759914955432.9424,35370449127035.32,703859489428290.0
40.03903428423004,1.939456028254156e+16,2.290512713827535e+16,1335909597403194.8,1406241956027319.5,1612124741431.9905,2852212702210.478,36553318897904.28,727397645961766.6
40.93981496991464,1.960311702611573e+16,2.3168791871214924e+16,1350275118005470.2,1421363785995886.0,1665875785954.4722,2947313577595.3315,37772113148051.53,751650638586238.9
41.85861126931294,1.9813217282522244e+16,2.343499516030724e+16,1364746956748921.2,1436597531493504.5,1721256509949.8982,3045297997103.518,39027862476090.055,776638972559414.2
42.7957834946992,2.0024872536664668e+16,2.370377236182733e+16,1379325904720934.5,1451944025256227.8,1778313585566.2544,3146248551488.5283,40321625358407.73,802383707689971.4
43.751699164593184,2.0238094041637024e+16,2.397515916694972e+16,1394012737041684.8,1467404083212277.5,1837094942567.7153,3250250057457.5947,41654488799143.05,828906471259582.8
44.72673314788505,2.0452892799134476e+16,2.4249191593158176e+16,1408808211514859.2,1482978503061687.2,1897649797219.1104,3357389608823.072,43027568985738.375,856229471055355.1
