t(s),Total solute volume 1,Total retention volume 1,Total 1 volume 1,Total 2 volume 1,Total 3 volume 1,Total 4 volume 1,Total 5 volume 1,Total 6 volume 1
0.1,919935341976466.9,1072551036543860.6,72903600131805.52,79712094435588.67,0.0,0.0,0.0,0.0
0.202,1385984638804325.0,1615924440357727.0,109837360825704.1,120095113360699.73,12577161.154710948,23589438.435706094,329998086.3459457,6961202311.01904
0.30604000000000003,1740938956680008.2,2029776335375146.8,137966998365536.81,150851788427843.3,31911694.392862204,59852859.21093266,837297775.1432332,17662839429.66636
0.41216080000000005,2041178319074517.0,2379839326088064.5,161760551536818.22,176867430533068.25,56684542.087815024,106316263.763905,1487288545.56163,31374654308.68517
0.5204040160000001,2307813035725046.5,2690725545431055.5,182890983124656.9,199971241114283.47,86310408.01643941,161881883.095759,2264613225.2933073,47772661553.08822
0.6308120963200001,2551360529627549.0,2974697055979982.5,202191784320519.66,221074551426370.2,120475434.74945407,225961053.1114926,3161036759.8111644,66683132288.67057
0.7434283382464002,2777933518835463.0,3238880560734741.0,220147379555146.94,240707026482710.03,159000269.67893234,298217384.07040405,4171853264.551092,88006790509.53328
0.8582969050113283,2991447844944506.0,3487841473790102.5,237068093845699.25,259207972671877.34,201783809.32652342,378461248.60600376,5294409969.878549,111687672996.40335
0.9754628431115548,3194586851017822.0,3724708270757607.5,253166578409413.84,276809900789004.72,248775484.16793317,466597799.739987,6527380023.728761,137697788062.07236
1.094972099973786,3389282708264417.5,3951733657773017.5,268595955135578.5,293680232834655.75,299959911.40280217,562598185.9506211,7870359808.014021,166028620458.96463
1.2168715419732616,3576980651607922.5,4170602637920364.0,283470756888003.06,309944197940161.56,355347673.9566654,666482256.4700594,9323626996.536812,196686027351.9054
1.3412089728127268,3758794821751475.5,4382614203801040.5,297879277772594.7,325698336031390.6,414969438.27671355,778307528.751001,10887986216.835344,229686982402.3178
1.4680331522689813,3935605479445940.0,4588794677194650.0,311891277233324.56,341018921413174.1,478872027.7701257,898161823.8940516,12564666024.520712,265057402345.9496
1.597393815314361,4108122446188374.5,4789971672879040.0,325563007639624.4,355967459884991.44,547115708.3449074,1026158175.468135,14355247680.950874,302830644494.4965
1.729341691620648,4276928070291863.5,4986824191574063.0,338940619287837.9,370594411736808.7,619772260.3272032,1162431213.24149,16261614563.96649,343046439511.50995
1.863928525453061,4442507245262972.5,5179917617501706.0,352062539316024.94,384941792831631.94,696923580.2312975,1307134540.6927726,18285915480.973522,385750117471.06104
2.001207095962122,4605268944125375.0,5369728824617240.0,364961178269240.4,399045040547564.94,778660651.148777,1460438803.8962636,20430537653.904446,430992037953.1873
2.1412312378813647,4765562023236868.0,5556664601806075.0,377664182530126.1,412934383173370.06,865082776.7556696,1622530254.8431406,22698086621.019676,478827166055.971
2.284055862638992,4923687052626382.0,5741075445519576.0,390195371856713.6,426635865003278.94,956297008.4567723,1793609677.006702,25091371206.266712,529314755311.9208
2.4297369798917723,5079905327350934.0,5923266065851215.0,402575453519963.94,440172127168111.25,1052417717.1084558,1973891582.0758643,27613392282.105873,582518110630.5792
2.578331719489608,5234445838187771.0,6103503513469333.0,414822574721463.75,453563011643464.56,1153566275.097362,2163603613.6697087,30267334427.866867,638504412324.6155
2.7298983538794,5387510738400038.0,6282023553174574.0,426952755827016.3,466826034943154.7,1259870824.1723363,2362986111.8890243,33056559838.108227,697344587601.4537
2.884496320956988,5539279684260113.0,6459035724412829.0,438980234347099.1,479976764224140.44,1371466111.0305934,2572291804.946197,35984604008.72004,759113219557.7274
3.0421862473761276,5689913319940602.0,6634727404239530.0,450917741109647.25,493029119251185.8,1488493377.2850676,2791785602.7913656,39055172849.886246,823888486274.3839
3.2030299723236504,5839556103846798.0,6809267102497577.0,462776724242977.25,505995617297633.4,1611100293.7399209,3021744473.8419285,42272140961.60991,891752124436.8845
3.3670905717701234,5988338622043884.0,6982807159021097.0,474567532511687.1,518887573603116.06,1739440931.2943738,3262457390.4114428,45639550870.295654,962789413229.5928
3.5344323832055258,6136379497660393.0,7155485970077904.0,486299566637411.3,531715266835078.3,1873675762.985824,3514225338.17026,49161614781.12318,1037089429133.4933
3.7051210308696363,6283786980345570.0,7327429840450084.0,497981405248298.9,544488076764976.75,2013971689.999003,3777361342.508502,52842708492.553055,1114744049703.8352
3.879223451487029,6430660275861757.0,7498754535249232.0,509620910266747.3,557214599552283.5,2160502094.4387107,4052190601.0177355,56687382893.81363,1195849492850.2693
4.0568079205167695,6577090669494198.0,7669566588664329.0,521225315925036.06,569902745036961.1,2313446907.491352,4339050589.083246,60700359036.498024,1280505351615.2026
4.237944078927105,6723162478342272.0,7839964414555163.0,532801304236380.94,582559819267958.8,2472992697.0879736,4638291229.847246,64886532107.899704,1368814892517.0122
4.422702960505647,6868953864226137.0,8010039254278518.0,544355069416647.44,595192594941297.9,2639332770.7174044,4950275087.044269,69250974128.65627,1460885112466.7153
4.61115701971576,7014537531145532.0,8179875989922600.0,555892373157007.4,607807371834666.0,2812667292.366699,5275377584.333661,73798937021.06166,1556826803495.071
4.803380160110075,7159981326674518.0,8349553845547523.0,567418592283626.4,620410028918051.1,2993203412.430168,5613987248.955543,78535856017.64761,1656754624657.9307
4.9994477633122765,7305348762949766.0,8519146994687630.0,578938760045272.2,633006069497223.5,3181155409.6580706,5966505977.968251,83467353385.66406,1760787180605.6443
5.199436718578522,7450699469987929.0,8688725088962548.0,590457602038084.5,645600660493526.0,3376744844.402104,6333349325.674037,88599242447.97008,1869047106405.4163
5.403425452950093,7596089591754320.0,8858353719948575.0,601979567593459.5,658198666763099.5,3580200722.5666757,6714946811.124088,93937531884.8215,1981661158289.3381
5.611493962009095,7741572133564650.0,9028094824315244.0,613508857309176.0,670804681199130.8,3791759669.799083,7111742244.827824,99488430304.31252,2098760310069.8206
5.823723841249277,7887197267924631.0,9198007040510386.0,625049447286743.2,683423051232749.1,4011666115.555165,7524194073.984252,105258351071.9286,2220479855021.145
6.040198318074262,8033012604721070.0,9368146023888450.0,636605110543675.9,696057902244999.6,4240172486.7626443,7952775745.71486,111253917391.9302,2346959513073.471
6.261002284435747,8179063430711202.0,9538564726048726.0,648179435992688.8,708713158318508.6,4477539410.876811,8397976087.912569,117481967635.17117,2478343543205.5815
6.486222330124463,8325392922467572.0,9709313643231464.0,659775845317288.0,721392560689101.4,4724035928.184282,8860299707.436193,123949560909.57317,2614780860956.4385
6.715946776726952,8472042336288700.0,9880441037863086.0,671397608021930.6,734099684201483.6,4979939713.2626505,9340267405.477863,130663982870.83287,2756425161004.7534
6.950265712261491,8619051178050942.0,1.0051993136720816e+16,683047854892532.2,746837952026856.2,5245537305.548968,9838416610.014627,137632751772.1296,2903435044790.2476
7.18927102650672,8766457355534830.0,1.0224014308668994e+16,694729590068144.6,759610648861945.1,5521124349.008426,10355301825.328728,144863624752.6112,3055974153172.0405
7.433056447036854,8914297315390589.0,1.039654722449232e+16,706445701895259.6,772420932797013.0,5807005840.9294405,10891495098.64465,152364604365.33136,3214211304138.529
7.681717575977592,9062606166599442.0,1.0569633000988968e+16,718198972711957.9,785271846013745.4,6103496389.900179,11447586503.987381,160143945346.1006,3378320635599.263
7.935351927497144,9211417792028452.0,1.0743311331188378e+16,729992087688471.0,798166324451436.6,6410920483.0490675,12024184643.416075,168210161625.4102,3548481753304.5913
8.194058966047088,9360764949459244.0,1.0917620602301372e+16,741827642833572.8,811107206561095.8,6729612762.655428,12621917165.831982,176572033586.20197,3724879883951.712
8.45794014536803,9510679363285630.0,1.1092598002796886e+16,753708152261487.5,824097241251027.1,7059918312.257788,13241431303.60058,185238615570.85312,3907706033547.7124
8.72709894827539,9661191807919424.0,1.126827961981712e+16,765636054801671.9,837139095113894.2,7402192952.407185,13883394427.263365,194219243641.22076,4097157151111.3066
9.0016409272409,9812332183809450.0,1.1444700527986018e+16,777613720023243.1,850235359013759.8,7756803546.23097,14548494618.650806,203523543596.10608,4293436297804.7095
9.281673745785717,9964129586865294.0,1.1621894870534028e+16,789643453736692.1,863388554101635.8,8124128314.989411,15237441262.73701,213161439250.90335,4496752821596.59
9.567307220701432,1.0116612371979402e+16,1.1799895933548312e+16,801727503027926.2,876601137319626.5,8504557163.822673,15950965658.608204,223143160984.6394,4707322537565.537
9.85865336511546,1.0269808211256266e+16,1.1978736214057782e+16,813868060872857.9,889875506446492.8,8898492017.901337,16689821649.943523,233479254559.97342,4925367913961.994
10.155826432417769,1.042374414748588e+16,1.2158447482579908e+16,826067270375099.1,903214004731103.2,9306347169.206858,17454786275.433613,244180590222.11774,5151118264153.869
10.458942961066125,1.057844664333514e+16,1.2339060840681036e+16,838327228664304.2,916618925154843.2,9728549634.18247,18246660439.587708,255258372082.9798,5384809944589.113
10.768121820287448,1.073394162667625e+16,1.2520606774039806e+16,850649990488398.8,930092514359319.1,10165539522.507444,19066269604.403824,266724147797.16074,5626686558915.223
11.083484256693197,1.0890254532424412e+16,1.2703115201447006e+16,863037571529141.2,943636976271575.8,10617770417.260963,19914464502.40101,278589818536.7996,5876999168402.758
11.405153941827061,1.104741034121514e+16,1.2886615520127578e+16,875491951467258.5,957254475455469.6,11085709766.752954,20792121871.5348,290867649272.5457,6136006508827.015
11.733257020663602,1.1205433615215368e+16,1.3071136647728346e+16,888015076820430.5,970947140214695.1,11569839288.312729,21700145212.540142,303570279368.27826,6403975213968.106
12.067922161076874,1.1364348531331868e+16,1.325670706127747e+16,900608863574988.0,984717065470277.1,12070655384.336788,22639465569.267452,316710733497.4916,6681180045896.757
12.409280604298411,1.1524178912050662e+16,1.3443354833390394e+16,913275199629917.0,998566315432799.4,12588669570.909725,23611042332.60241,330302432889.57513,6967904132219.366
12.75746621638438,1.1684948254119248e+16,1.36311076659672e+16,926015947069878.2,1012496926087709.4,13124408919.323418,24615864068.57543,344359206914.53284,7264439210462.597
13.112615540712067,1.184667975525927e+16,1.3819992921602088e+16,938832944282149.0,1026510907509972.4,13678416510.831701,25654949371.297825,358895305014.96924,7571085879783.495
13.474867851526309,1.2009396339080622e+16,1.4010037652903286e+16,951728007931022.8,1040610246022841.2,14251251904.98867,26729347741.374146,373925408994.5021,7888153860198.701
13.844365208556836,1.2173120678348402e+16,1.4201268629901384e+16,964702934801701.0,1054796906213964.8,14843491621.931376,27840140490.46939,389464645672.04297,8215962259531.753
14.221252512727972,1.2337875216742358e+16,1.439371236570735e+16,977759503524679.9,1069072832820818.9,15455729638.978342,28988441672.72697,405528599911.7132,8554839848284.385
14.605677562982532,1.2503682189231766e+16,1.4587395140566032e+16,990899476190448.9,1083439952496181.6,16088577901.92801,30175399043.757675,422133328038.4607,8905125342644.336
14.997791114242183,1.2670563641179754e+16,1.4782343024436152e+16,1004124599863465.1,1097900175463528.4,16742666851.45283,31402195047.94245,439295371649.75555,9267167695848.738
15.397746936527026,1.2838541446278306e+16,1.4978581898216648e+16,1017436608003487.1,1112455397071072.8,17418645964.996567,32670047834.813297,457031771834.0829,9641326398128.447
15.805701875257567,1.3007637323407134e+16,1.5176137473727262e+16,1030837221801621.0,1127107499252608.5,18117184314.594433,33980212305.298702,475360083807.21844,10027971785466.111
16.221815912762718,1.3177872852500538e+16,1.5375035312542332e+16,1044328151437734.5,1141858351902353.5,18838971141.049763,35333981188.64768,494298391977.6621,10427485357407.068
16.64625223101797,1.3349269489498742e+16,1.5575300843766798e+16,1057911097265343.9,1156709814170470.8,19584716444.90938,36732686150.86266,513865325452.8793,10840260104169.07
17.079177275638333,1.3521848580453732e+16,1.577695938083641e+16,1071587750929468.5,1171663735685356.0,20355151594.698853,38177698935.50321,534080073998.3726,11266700843304.39
17.5207608211511,1.369563137485321e+16,1.598003613741698e+16,1085359796422540.5,1186721957708129.0,21151029952.884403,39670432537.74003,554962404461.9098,11707224566174.621
17.97117603757412,1.3870639038220442e+16,1.6184556242469938e+16,1099228911082941.5,1201886314224433.5,21973127520.047993,41212342412.56931,576532677675.6185,12162260794505.379
18.430599558325603,1.4046892664044408e+16,1.639054475454741e+16,1113196766540413.8,1217158632978142.2,22822243597.77111,42804927718.11613,598811865848.9728,12632251947296.762
18.899211549492115,1.422441328508696e+16,1.6598026675373236e+16,1127265029612183.0,1232540736451173.5,23699201470.738247,44449732594.98836,621821570466.0807,13117653718370.92
19.37719578048196,1.4403221884113782e+16,1.6807026962762488e+16,1141435363153322.0,1248034442793264.8,24604849108.584423,46148347482.66225,645584040701.0068,13618935464848.277
19.864739696091597,1.4583339404088044e+16,1.7017570542927558e+16,1155709426864631.0,1263641566705295.8,25540059888.025352,47902410473.9097,670122192365.3102,14136580606848.812
20.36203449001343,1.47647867578659e+16,1.7229682322214406e+16,1170088878060960.2,1279363920279379.2,26505733335.822754,49713608708.305565,695459627402.2266,14671087038725.486
20.869275179813698,1.4947584837426924e+16,1.7443387198310104e+16,1184575372402720.5,1295203313798678.8,27502795893.15227,51583679805.87625,721620653942.4363,15222967552142.37
21.38666068340997,1.5131754522671928e+16,1.7658710070958072e+16,1199170564593106.2,1311161556499732.2,28532201701.955265,53514413341.98438,748630306936.6605,15792750271320.412
21.91439389707817,1.5317316689816796e+16,1.7875675852215768e+16,1213876109043270.8,1327240457299783.0,29594933413.871975,55507652364.565025,776514369380.725,16380979100779.719
22.452681775019734,1.5504292219408374e+16,1.809430947628534e+16,1228693660507604.5,1343441825491352.8,30692003022.36688,57565294954.86251,805299394149.1709,16988214185917.408
23.00173541052013,1.5692702003987664e+16,1.8314635908946684e+16,1243624874691005.8,1359767471406245.0,31824452718.673836,59689295832.84454,835012726453.8304,17615032386767.14
23.561770118730532,1.5882566955420914e+16,1.853668015661763e+16,1258671408829880.8,1376219207050792.2,32993355772.20181,61881668008.494896,865682526944.2125,18262027765295.504
24.133005521105144,1.6073908011919812e+16,1.87604672750664e+16,1273834922248468.2,1392798846714152.0,34199817436.05915,64144484480.21877,897337795466.9238,18929812086597.46
24.715665631527248,1.6266746144767338e+16,1.898602237779602e+16,1289117076891871.0,1409508207551090.2,35444975878.366875,66479879981.618454,930008395501.7733,19619015334363.49
25.309978944157795,1.6461102364766014e+16,1.9213370644119988e+16,1304519537837045.0,1426349110140734.0,36730003140.04858,68890052777.92992,963725079292.5143,20330286240996.598
25.91617852304095,1.6656997728421122e+16,1.9442537326945396e+16,1320043973782841.5,1443323379022334.2,38056106119.79626,71377266513.43013,998519513690.6581,21064292832766.344
26.53450209350177,1.685445334387124e+16,1.9673547760277148e+16,1335692057519964.8,1460432843209139.2,39424527586.92654,73943852111.15828,1034424306731.0361,21821722990395.11
27.165192135371807,1.7053490376573828e+16,1.9906427366453824e+16,1351465466381572.0,1477679336681070.5,40836547222.85425,76592209726.30943,1071473034958.198,22603285025476.94
27.808495978079243,1.7254130054753638e+16,2.014120166312354e+16,1367365882675027.2,1495064698856802.5,42293482691.91994,79324810754.68684,1109700271522.998,23409708273137.2
28.464665897640828,1.7456393674616306e+16,2.0377896269964028e+16,1383394994095095.5,1512590775045531.0,43796690742.32017,82144199897.61758,1149141615068.967,24241743701345.832
29.133959215593645,1.7660302605328812e+16,2.0616536915148292e+16,1399554494118626.2,1530259416878521.0,45347568337.89605,85052997284.74374,1189833719428.31,25100164537301.184
29.816638399905518,1.786587829376303e+16,2.08571494415536e+16,1415846082380464.8,1548072482720138.5,46947553821.54083,88053900656.12053,1231814324147.4973,25985766911305.273
30.51297116790363,1.8073142268996224e+16,2.1099759812704292e+16,1432271465030120.2,1566031838057807.5,48598128110.991234,91149687605.0535,1275122285862.462,26899370518551.957
31.223230591261704,1.828211614655716e+16,2.134439411843904e+16,1448832355068271.5,1584139355869949.8,50300815927.762886,94343217883.10477,1319797610543.4304,27841819299247.9
31.947695203086937,1.8492821632402452e+16,2.159107858028179e+16,1465530472661858.5,1602396916970523.0,52057187059.99093,97637435768.68938,1365881486629.243,28813982137486.88
32.686649107148675,1.8705280526601252e+16,2.1839839556494196e+16,1482367545436125.2,1620806410328281.2,53868857659.920746,101035372500.66223,1413416319070.7732,29816753579286.816
33.44038208929165,1.891951472670153e+16,2.2090703546776216e+16,1499345308741364.2,1639369733358492.5,55737491576.77954,104540148778.2706,1462445764302.612,30851054570195.406
34.20918973107749,1.9135546230744148e+16,2.234369719657814e+16,1516465505891799.5,1658088792184097.2,57664801725.73841,108154977328.79596,1513014766161.6147,31917833212853.62
34.993373525699035,1.935339713988335e+16,2.2598847300974016e+16,1533729888373222.8,1676965501862740.8,59652551493.642365,111883165544.1596,1565169592770.0242,33018065544890.758
35.793240996213015,1.9573089660563676e+16,2.2856180808040956e+16,1551140216015552.8,1696001786575448.2,61702556182.14572,115728118187.6865,1618957874400.0212,34152756337503.934
36.60910581613728,1.9794646106197e+16,2.311572482167666e+16,1568698257125711.5,1715199579771906.5,63816684488.84172,119693340172.13618,1674428642334.9712,35322939915045.016
37.44128793246003,2.0018088898270616e+16,2.3377506603776676e+16,1586405788575446.2,1734560824266493.5,65996860026.9158,123782439409.9844,1731632368741.432,36529680995907.875
38.29011369110923,2.0243440566809884e+16,2.364155357568136e+16,1604264595837984.8,1754087472278350.0,68245062883.77765,127999129736.81985,1790621007563.7002,37774075554964.75
39.15591596493141,2.0470723750106844e+16,2.390789331879059e+16,1622276472966542.0,1773781485407882.8,70563331219.0418,132347233908.54446,1851448036450.6887,39057251707757.54
40.03903428423004,2.0699961193616284e+16,2.4176553574230096e+16,1640443222506827.8,1793644834541095.5,72953762902.1283,136830686672.88235,1914168499722.2056,40380370616589.5
40.93981496991464,2.0931175747907588e+16,2.4447562241440468e+16,1658766655334726.2,1813679499672115.2,75418517189.63431,141453537915.4909,1978839052378.6199,41744627418603.875
41.85861126931294,2.116439036555051e+16,2.4720947375546732e+16,1677248590409512.0,1833887469633351.5,77959816442.50063,146219955880.7119,2045518005154.5305,43151252175857.11
42.7957834946992,2.1399628096800204e+16,2.4996737183349972e+16,1695890854431878.5,1854270741721583.2,80579947882.84314,151134230466.71594,2114265370612.943,44601510847316.414
43.751699164593184,2.163691208393465e+16,2.527496001777206e+16,1714695281395198.8,1874831321207336.5,83281265390.15155,156200776594.4942,2185142910272.32,46096706282614.46
44.72673314788505,2.1876265554086908e+16,2.5555644370567196e+16,1733663712017486.5,1895571220713767.5,86066191336.37164,161424137649.77618,2258214182753.564,47638179237293.12
