t(s),Total solute volume 1,Total retention volume 1,Total 1 volume 1,Total 2 volume 1,Total 3 volume 1,Total 4 volume 1,Total 5 volume 1,Total 6 volume 1
0.1,1393105271922661.8,5193352995607505.0,1226369007487646.5,2573878716197194.5,0.0,0.0,0.0,3.3616881476863753e-156
0.202,2072980861228341.2,7733650823876420.0,1824872828123432.5,3830010725968089.5,1128344499.4042883,5759821559.455823,310762368464.8898,5468758022032.083
0.30604000000000003,2595858199559133.0,9692618262798544.0,2285168797018297.5,4796072253645150.0,2854169568.4509816,14571589809.893415,794142129426.1774,14707444687169.264
0.41216080000000005,3038436548243735.5,1.135535185968493e+16,2674776469281069.0,5613774192303831.0,5061448168.327124,25841993371.853924,1414320514715.398,26919425900037.914
0.5204040160000001,3431139035758066.5,1.2834872915450116e+16,3020477745845180.5,6339326083053478.0,7697501151.7321205,39301932017.62259,2155893288077.0132,41727158072141.17
0.6308120963200001,3789343099808989.0,1.4188296633117626e+16,3335809594844707.0,7001139119454135.0,10733647941.605595,54804917800.008064,3010594452508.9023,58928685991543.87
0.7434283382464002,4122037695530300.0,1.5449011227567598e+16,3628685115320669.5,7615821190448793.0,14153132609.967215,72265372679.5031,3973615895856.2563,78407191866688.08
0.8582969050113283,4434998142855888.0,1.6638474634486988e+16,3904188399441861.5,8194042706417150.0,17946131761.843857,91633125684.63182,5042140809394.13,100093665705248.08
0.9754628431115548,4732188283735035.0,1.7771423049567026e+16,4165808870733855.0,8743127211792356.0,22107287077.618168,112880809446.10776,6214628923136.263,123949066286117.8
1.094972099973786,5016464478910547.0,1.8858485336081036e+16,4416061022035712.5,9268352082048530.0,26634335367.051716,135996863217.51808,7490422355573.958,149954699532081.72
1.2168715419732616,5289963545588280.0,1.9907623303756268e+16,4656825922295826.0,9773665272929520.0,31527283279.73908,160981317913.37518,8869509101788.773,178106545239658.22
1.3412089728127268,5554332162324261.0,2.092498318190185e+16,4889553164799695.0,1.0262109166196596e+16,36787879208.42568,187843099067.02484,10352372076247.13,208411685526773.44
1.4680331522689813,5810870253639064.0,2.191542767733609e+16,5115387090583596.0,1.0736085485291384e+16,42419259392.6836,216598219485.03546,11939888129501.273,240885942213667.6
1.597393815314361,6060624704240942.0,2.2882883635837908e+16,5335249286330117.0,1.1197528440567824e+16,48425702024.34493,247268523485.03564,13633257972960.805,275552252500576.53
1.729341691620648,6304452906348250.0,2.3830577737717228e+16,5549894525932904.0,1.164802213852206e+16,54812451413.33407,279880788936.4266,15433956117954.967,312439517555709.9
1.863928525453061,6543067202093919.0,2.4761201300882936e+16,5759949893744139.0,1.208888269301126e+16,61585589331.81371,314466070239.80133,17343694273991.188,351581766100047.44
2.001207095962122,6777066792107529.0,2.567702858540736e+16,5965942874129141.0,1.2521217179138876e+16,68751939142.448,351059208732.0436,19364394089766.34,393017534794185.75
2.1412312378813647,7006961169504256.0,2.6580003665902068e+16,6168321980722168.0,1.2945966929588816e+16,76318993328.75412,389698462602.64984,21498166557495.64,436789402073403.25
2.284055862638992,7233187672472561.0,2.7471805494852016e+16,6367472208205606.0,1.3363939964557436e+16,84294858124.14816,430425224129.97125,23747296282325.086,482943633251847.9
2.4297369798917723,7456124861078589.0,2.8353897485165044e+16,6563726808090808.0,1.3775835706562422e+16,92688210892.24225,473283802035.3041,26114229377703.348,531529908042606.3
2.578331719489608,7676102869136671.0,2.922756588108518e+16,6757376401608910.0,1.4182264106422546e+16,101508267190.55751,518321253287.7714,28601564112966.81,582601110283627.5
2.7298983538794,7893411525390670.0,3.0093949863240468e+16,6948676128896003.0,1.4583760647845412e+16,110764755308.69855,565587253079.2316,31212043684414.52,636213165415562.9
2.884496320956988,8108306803267439.0,3.0954065461693708e+16,7137851326797756.0,1.498079826390657e+16,120467896661.74084,615133994700.0208,33948550649252.082,692424915181338.2
3.0421862473761276,8321016000154432.0,3.180882476355758e+16,7325102088257168.0,1.5373796906214386e+16,130628390832.71298,667016113156.1542,36814102679471.94,751298021748146.1
3.2030299723236504,8531741938359253.0,3.265905149817971e+16,7510606960475665.0,1.5763131306547132e+16,141257404352.75635,721290627873.632,39811849376645.19,812896895388805.4
3.3670905717701234,8740666403787765.0,3.3505493800592864e+16,7694525972027695.0,1.6149137330108962e+16,152366562521.21927,778016900926.6459,42945069949403.234,877288641255572.8
3.5344323832055258,8947952984242160.0,3.4348834753179936e+16,7877003131452664.0,1.653211721953172e+16,163967943725.16275,837256608029.4122,46217171600108.36,944543021801543.4
3.7051210308696363,9153749430165032.0,3.5189701160628584e+16,8058168505449600.0,1.691234395655413e+16,176074075834.99203,899073720130.0548,49631688500550.91,1014732432163345.5
3.879223451487029,9358189632063126.0,3.60286709072558e+16,8238139959629936.0,1.7290064915483696e+16,188697934341.43756,963534493896.9429,53192281261663.91,1087931886389144.4
4.0568079205167695,9561395287661364.0,3.686627916726768e+16,8417024626135492.0,1.7665504943408138e+16,201852941966.67587,1030707469732.9343,56902736821448.75,1164219012829513.5
4.237944078927105,9763477315959378.0,3.77030236796763e+16,8594920148451545.0,1.8038868972787436e+16,215552969534.4868,1100663476219.1008,60766968690108.51,1243674057342060.5
4.422702960505647,9964537063335958.0,3.853936925502918e+16,8771915743156727.0,1.841034424983627e+16,229812337924.9334,1173475640096.741,64789017502910.82,1326379893219346.8
4.61115701971576,1.0164667337643926e+16,3.937575164701295e+16,8948093110250585.0,1.8780102245103804e+16,244645820970.91345,1249219401059.2292,68973051840353.61,1412422036952247.5
4.803380160110075,1.036395329913239e+16,4.021258089566993e+16,9123527217444510.0,1.9148300299529812e+16,260068649179.1868,1327972530754.2312,73323369282373.77,1501888669100925.5
4.9994477633122765,1.0562473231499802e+16,4.1050244228473496e+16,9298286978930006.0,1.9515083049032e+16,276096514178.6077,1409815155499.5415,77844397669054.64,1594870659672988.2
5.199436718578522,1.0760299212035594e+16,4.188910858941137e+16,9472435845313454.0,1.988058366265075e+16,292745573814.48474,1494829782298.567,82540696544884.31,1691461597510566.2
5.403425452950093,1.0957497696372084e+16,4.272952285350525e+16,9646032318380994.0,2.024492492292879e+16,310032457821.0655,1583101327808.1372,87416958767324.23,1791757823270499.0
5.611493962009095,1.1154130030629208e+16,4.357181977405502e+16,9819130401946462.0,2.060822017214306e+16,327974274014.79,1674717149965.8496,92478012263474.94,1895858465648834.5
5.823723841249277,1.135025290153976e+16,4.44163177017662e+16,9991779998102686.0,2.0970574143950076e+16,346588614959.66693,1769767082028.4487,97728821921090.75,2003865480555608.8
6.040198318074262,1.1545918733369748e+16,4.526332210836311e+16,1.0164027256635762e+16,2.13320836967306e+16,365893565063.2704,1868343468809.3838,103174491602231.6,2115883692990888.0
6.261002284435747,1.1741176039010422e+16,4.611312694196189e+16,1.0335914884096142e+16,2.169283846226266e+16,385907708067.77954,1970541204933.879,108820266269512.4,2232020841410148.8
6.486222330124463,1.1936069731443666e+16,4.696601583713439e+16,1.0507482417985732e+16,2.2052921421180804e+16,406650134905.38654,2076457774954.8113,114671534216307.39,2352387624398038.5
6.715946776726952,1.2130641400818682e+16,4.782226319902589e+16,1.0678766470672296e+16,2.241240941489919e+16,428140451891.4703,2186193295193.6738,120733829393424.52,2477097749495162.5
6.950265712261491,1.232492956158268e+16,4.868213517794798e+16,1.0849800946941884e+16,2.2771373602207124e+16,450398789232.36755,2299850557188.2104,127012833825733.31,2606267984044141.5
7.18927102650672,1.2518969873449292e+16,4.954589054843151e+16,1.1020617238520272e+16,2.312987986752721e+16,473445809827.4132,2417535072643.0317,133514380113045.22,2740018207939218.0
7.433056447036854,1.2712795339439958e+16,5.041378150469285e+16,1.1191244398411466e+16,2.3487989186814012e+16,497302718347.3428,2539355119791.713,140244454010227.19,2878471468179039.0
7.681717575977592,1.2906436483774404e+16,5.128605438277247e+16,1.1361709297497146e+16,2.384575795622211e+16,521991270573.1859,2665421791089.3647,147209197082105.97,3021754035135031.5
7.935351927497144,1.3099921512001568e+16,5.21629503181785e+16,1.1532036765501964e+16,2.420323828796184e+16,547533782981.46826,2795849042163.2773,154414909429212.25,3169995460458815.5
8.194058966047088,1.3293276455436998e+16,5.304470584666777e+16,1.1702249718143816e+16,2.456047827716014e+16,573953142563.0225,2930753741956.776,161868052480819.8,3323328636561476.5
8.45794014536803,1.3486525301699162e+16,5.393155345478131e+16,1.1872369272046654e+16,2.4917522243037256e+16,601272816863.9124,3070255724007.6333,169575251852091.62,3481889857605332.0
8.72709894827539,1.3679690112902084e+16,5.482372208588876e+16,1.2042414848787068e+16,2.5274410947278308e+16,629516864238.0372,3214477838807.7896,177543300262441.6,3645818881955780.5
9.0016409272409,1.3872791132864812e+16,5.57214376067594e+16,1.2212404269272246e+16,2.563118179211173e+16,658709944301.8727,3363546007195.5073,185779160512465.5,3815258996046625.0
9.281673745785717,1.4065846884527026e+16,5.6624923239054136e+16,1.2382353839496172e+16,2.598786900029338e+16,688877328582.5211,3517589274735.246,194289968517025.03,3990357079617177.0
9.567307220701432,1.4258874258614826e+16,5.75343999595869e+16,1.2552278428593422e+16,2.6344503778924096e+16,720044911350.9656,3676739867043.4053,203083036392239.06,4171263672283913.0
9.85865336511546,1.4451888594475606e+16,5.8450086872747784e+16,1.2722191539999098e+16,2.6701114468799068e+16,752239220632.8595,3841133246021.311,212165855594297.9,4358133041413106.0
10.155826432417769,1.4644903753892328e+16,5.937220155807559e+16,1.2892105376428538e+16,2.7057726680786252e+16,785487429389.7662,4010908166958.803,221546100108149.94,4551123251264010.0
10.458942961066125,1.4837932188594398e+16,6.030096039562367e+16,1.3062030899308086e+16,2.7414363420558584e+16,819817366864.0543,4186206736474.1235,231231629684221.12,4750396233375108.0
10.768121820287448,1.5030985002101158e+16,6.123657887146382e+16,1.3231977883216712e+16,2.7771045202854924e+16,855257530081.0762,4367174471257.31,241230493121430.28,4956117858168213.0
11.083484256693197,1.5224072006463124e+16,6.217927186540942e+16,1.3401954965836136e+16,2.8127790156314924e+16,891837095502.4728,4553960357585.885,251550931594835.5,5168458007747344.0
11.405153941827061,1.5417201774405242e+16,6.312925392281607e+16,1.357196969385319e+16,2.848461411981779e+16,929585930824.7589,4746716911582.88,262201382026327.28,5387590649871122.0
11.733257020663602,1.56103816873222e+16,6.408673951211386e+16,1.3742028565210742e+16,2.884153073115783e+16,968534606917.511,4945600240188.188,273190480496843.28,5613693913079092.0
12.067922161076874,1.5803617979528682e+16,6.505194326955645e+16,1.3912137068061784e+16,2.9198551508800976e+16,1008714409895.6677,5150770102815.403,284527065698623.9,5846950162953641.0
12.409280604298411,1.5996915779126966e+16,6.602508023251696e+16,1.408229971674574e+16,2.9555685927390636e+16,1050157353320.6357,5362389973666.889,296220182426085.7,6087546079500485.0
12.75746621638438,1.6190279145816638e+16,6.700636606252558e+16,1.42525200850729e+16,2.9912941487605108e+16,1092896190525.0002,5580627104680.582,308279085103914.5,6335672735631843.0
13.112615540712067,1.6383711105940524e+16,6.799601725912813e+16,1.4422800837175832e+16,3.027032378090747e+16,1136964427055.7874,5805652589082.815,320713241351036.4,6591525676737174.0
13.474867851526309,1.6577213685031674e+16,6.899425136553696e+16,1.4593143756160792e+16,3.062783654967915e+16,1182396333231.3179,6037641425521.838,333532335579122.25,6855305001327489.0
13.844365208556836,1.6770787938101412e+16,7.0001287166955576e+16,1.4763549770770826e+16,3.0985481743179652e+16,1229226956806.8174,6276772582757.202,346746272624358.4,7127215442739747.0
14.221252512727972,1.696443397788659e+16,7.101734488237555e+16,1.493401898025226e+16,3.134325956973603e+16,1277492135744.0332,6523229064881.084,360365181411192.44,7407466451888859.0
14.605677562982532,1.7158151001254134e+16,7.204264635057023e+16,1.5104550677598796e+16,3.170116854552721e+16,1327228511080.1902,6777197977047.339,374399418646829.7,7696272281055185.0
14.997791114242183,1.7351937313943358e+16,7.307741521094696e+16,1.5275143371332688e+16,3.205920554029795e+16,1378473539891.7666,7038870591685.692,388859572545258.6,7993852068696206.0
15.397746936527026,1.7545790353811166e+16,7.412187707985962e+16,1.5445794805967646e+16,3.2417365820306e+16,1431265508348.6138,7308442415177.69,403756466579626.4,8300429925271731.0
15.805701875257567,1.7739706712730898e+16,7.517625972293394e+16,1.5616501981286836e+16,3.2775643088782428e+16,1485643544854.0566,7586113254972.763,419101163261798.7,8616235020072283.0
16.221815912762718,1.793368215728314e+16,7.624079322390938e+16,1.5787261170557178e+16,3.3134029524159588e+16,1541647633266.8054,7872087287122.455,434904967947978.9,8941501669041176.0
16.64625223101797,1.8127711648366084e+16,7.731571015046238e+16,1.5958067937792602e+16,3.3492515816302724e+16,1599318626200.479,8166573124212.081,451179432669293.25,9276469423581244.0
17.079177275638333,1.832178935984188e+16,7.840124571743757e+16,1.6128917154168736e+16,3.3851091200960972e+16,1658698258396.8506,8469783883669.301,467936359986276.8,9621383160337698.0
17.5207608211511,1.8515908696327104e+16,7.94976379478806e+16,1.6299803013684134e+16,3.4209743492636976e+16,1719829160168.9343,8781937256430.421,485187806866242.56,9976493171949510.0
17.97117603757412,1.8710062310227708e+16,8.060512783223462e+16,1.6470719048156172e+16,3.4568459116059656e+16,1782754870910.2517,9103255575945.21,502946088582552.4,1.0342055258761676e+16
18.430599558325603,1.890424211810934e+16,8.172395948604005e+16,1.6641658141632386e+16,3.4927223136431044e+16,1847519852666.829,9433965887503.168,521223782634861.06,1.0718330821492336e+16
18.899211549492115,1.909843931649053e+16,8.285438030644728e+16,1.6812612544293022e+16,3.528601928860397e+16,1914169503768.6125,9774300017863.658,540033732689443.5,1.1105586954848622e+16
19.37719578048196,1.9292644397136256e+16,8.399664112783296e+16,1.6983573885914526e+16,3.56448300053396e+16,1982750172517.2507,10124494645175.135,559389052538805.7,1.1504096542086182e+16
19.864739696091597,1.9486847161927172e+16,8.515099637679333e+16,1.7154533188958994e+16,3.6003636444779064e+16,2053309170927.4038,10484791369168.338,579303130079788.8,1.1914138350508206e+16
20.36203449001343,1.9681036737373068e+16,8.631770422676189e+16,1.7325480881350424e+16,3.636241851725809e+16,2125894788519.09,10855436781610.979,599789631309502.9,1.2335997127900686e+16
20.869275179813698,1.9875201588834068e+16,8.749702675249306e+16,1.7496406808994062e+16,3.672115491158212e+16,2200556306158.704,11236682537012.074,620862504338473.2,1.2769963699901196e+16
21.38666068340997,2.006932953451047e+16,8.868923008463003e+16,1.7667300248091648e+16,3.7079823120873896e+16,2277344009946.899,11628785423566.166,642535983420453.5,1.3216335068300032e+16
21.91439389707817,2.0263407759256372e+16,8.989458456456493e+16,1.7838149917301922e+16,3.743839946809518e+16,2356309205151.5933,12032007434329.283,664824592998488.8,1.3675414510273378e+16
22.452681775019734,2.0457422828270228e+16,9.111336489978853e+16,1.8008943989792412e+16,3.779685913134087e+16,2437504230185.0503,12446615838620.275,687743151766880.9,1.4147511678549252e+16
23.00173541052013,2.0651360700710652e+16,9.23458503199137e+16,1.817967010522563e+16,3.815517616899576e+16,2520982470624.063,12872883253643.975,711306776748811.2,1.4632942702508474e+16
23.561770118730532,2.084520674328347e+16,9.35923247335449e+16,1.8350315381720296e+16,3.851332354483776e+16,2606798373273.0176,13311087716333.39,735530887389538.6,1.5132030290224286e+16
24.133005521105144,2.103894574384362e+16,9.485307688616302e+16,1.8520866427824736e+16,3.887127315316843e+16,2695007460269.8643,13761512755412.625,760431209665140.8,1.5645103831445296e+16
24.715665631527248,2.1232561925051344e+16,9.612840051917645e+16,1.8691309354538708e+16,3.9228995844043624e+16,2785666343235.693,14224447463682.822,786023780206975.5,1.6172499501528892e+16
25.309978944157795,2.1426038958120036e+16,9.741859453029374e+16,1.8861629787416264e+16,3.958646144867438e+16,2878832737468.943,14700186570537.469,812324950442133.6,1.6714560366332924e+16
25.91617852304095,2.1619359976692108e+16,9.87239631353531e+16,1.903181287878042e+16,3.9943638805063384e+16,2974565476186.257,15189030514716.213,839351390750325.5,1.7271636488075874e+16
26.53450209350177,2.1812507590874584e+16,1.0004481603174843e+17,1.9201843320078948e+16,4.030049578393703e+16,3072924524812.0654,15691285517308.871,867120094637824.1,1.784408503217789e+16
27.165192135371807,2.2005463901465356e+16,1.0138146856357851e+17,1.9371705354408016e+16,4.065699931502922e+16,3173970995320.1235,16207263655025.562,895648382929213.2,1.8432270375096348e+16
27.808495978079243,2.219821051439849e+16,1.0273424188864294e+17,1.9541382789228664e+16,4.101311541377095e+16,3277767160630.77,16737282933751.758,924953907977947.6,1.903656421317263e+16
28.464665897640828,2.239072855543525e+16,1.0410346314740421e+17,1.9710859009299224e+16,4.136880920843283e+16,3384376469068.177,17281667362411.34,955054657896848.2,1.9657345672508508e+16
29.133959215593645,2.2582998685124988e+16,1.0548946563402637e+17,1.9880116989845896e+16,4.172404496776629e+16,3493863558883.081,17840747027164.094,985968960809930.9,2.0295001419893388e+16
29.816638399905518,2.277500111405802e+16,1.0689258896960494e+17,2.004913930998978e+16,4.207878612918469e+16,3606294272846.9565,18414858165969.195,1017715489127134.9,2.0949925774806364e+16
30.51297116790363,2.2966715618431644e+16,1.0831317927768446e+17,2.0217908166450124e+16,4.243299532752354e+16,3721735672924.544,19004343243549.79,1050313263843783.9,2.1622520822519012e+16
31.223230591261704,2.3158121555947428e+16,1.0975158936217474e+17,2.0386405387538764e+16,4.278663442441071e+16,3840256055032.674,19609551026798.33,1083781658866828.1,2.2313196528329136e+16
31.947695203086937,2.334919788205708e+16,1.1120817888775347e+17,2.05546124474615e+16,4.313966453828319e+16,3961924963894.062,20230836660668.445,1118140405370163.6,2.3022370852956916e+16
32.686649107148675,2.353992316657105e+16,1.1268331456285725e+17,2.0722510480938956e+16,4.349204607507217e+16,4086813207995.919,20868561744601.848,1153409596181616.8,2.3750469869140904e+16
33.44038208929165,2.3730275610643976e+16,1.1417737032534734e+17,2.0890080298159216e+16,4.384373875958514e+16,4214992874664.064,21523094409546.605,1189609690204429.0,2.4497927879470356e+16
34.20918973107749,2.3920233064147636e+16,1.1569072753093934e+17,2.105730240007121e+16,4.419470166760414e+16,4346537345264.469,22194809395625.797,1226761516876349.5,2.5265187535499236e+16
34.993373525699035,2.410977304344135e+16,1.1722377514448456e+17,2.122415699402839e+16,4.454489325871776e+16,4481521310545.101,22884088130524.016,1264886280669774.5,2.6052699958186124e+16
35.793240996213015,2.429887274954744e+16,1.1877690993418102e+17,2.139062400978884e+16,4.489427140990182e+16,4620020786132.103,23591318808662.05,1304005565636662.2,2.6860924859711484e+16
36.60910581613728,2.448750908673743e+16,1.2035053666880013e+17,2.155668311587679e+16,4.524279344985888e+16,4762113128195.638,24316896471238.09,1344141340002204.8,2.769033066672527e+16
37.44128793246003,2.4675658681533828e+16,1.219450683180025e+17,2.172231373631043e+16,4.559041619412586e+16,4907877049301.581,25061223087219.414,1385315960811673.2,2.8541394645084308e+16
38.29011369110923,2.4863297902129136e+16,1.235609262558229e+17,2.188749506769624e+16,4.5937095980951464e+16,5057392634466.954,25824707635373.66,1427552178635105.0,2.9414603026141024e+16
