t(s),Total solute volume 1,Total retention volume 1,Total 1 volume 1,Total 2 volume 1,Total 3 volume 1,Total 4 volume 1,Total 5 volume 1,Total 6 volume 1
0.1,1252217186918146.0,2056959543180943.2,321479351742078.75,483263004520719.3,0.0,0.0,0.0,0.0
0.202,1883482871690883.2,3094699819977578.0,483543006079492.44,726884821651486.1,256095713.21033368,783814587.4281065,22804275159.993656,765276370257.0989
0.30604000000000003,2364770840732544.5,3886505309219925.5,607103159832758.0,912626321394620.4,649496099.2871697,1987876095.705962,57844717582.391335,1944505170227.879
0.41216080000000005,2771809111836675.0,4556686503890132.0,711601328114359.2,1069712935785543.2,1153381332.3491344,3530094931.6225495,102728201701.35153,3455716475592.323
0.5204040160000001,3133168481130366.5,5152138170241905.0,804372437906564.2,1209170877715800.8,1755807921.7978437,5373915714.221596,156390258732.67157,5262853506808.145
0.6308120963200001,3463106395588350.0,5696260407250429.0,889076776779021.6,1336502465912596.8,2450349864.0813484,7499670498.616279,218258277057.15814,7346560673040.957
0.7434283382464002,3769914768333241.0,6202662504420914.0,967843111985257.1,1454907764650416.0,3233315731.281087,9896061022.40734,288003338510.8444,9695726736736.918
0.8582969050113283,4058907131661769.0,6680066237314679.0,1042035576667123.4,1566437403769086.8,4102604373.6198573,12556656353.600794,365438225232.0161,12304027730739.834
0.9754628431115548,4333725069326352.0,7134450130922611.0,1112589067762233.2,1672496764809847.5,5057140858.53386,15478166476.575834,450467153370.1741,15168226563479.924
1.094972099973786,4596990732199374.0,7570120347037519.0,1180176765123948.8,1774097803738792.2,6096563967.390402,18659485819.486862,543057927028.3166,18287231998586.145
1.2168715419732616,4850665220956223.0,7990298800178081.0,1245302138433414.8,1871997360117979.8,7221038329.038254,22101118255.93942,643225199107.5322,21661533314769.664
1.3412089728127268,5096260026222643.0,8397470108684752.0,1308353229830625.0,1966778757339919.2,8431134490.688312,25804810041.159042,751019785859.8615,25292839561169.137
1.4680331522689813,5334968958894820.0,8793598062159928.0,1369636524137096.8,2058902717957760.2,9727748784.612787,29773304550.318104,866521527356.8461,29183838589555.242
1.597393815314361,5567754263582469.0,9180266904133476.0,1429399056597931.5,2148740597094744.0,11112047859.745974,34010172508.10517,989834345589.4948,33338030292371.062
1.729341691620648,5795404949706877.0,9558777027559946.0,1487843388114750.2,2236596893926561.2,12585429213.272709,38519691189.02191,1121082728122.2488,37759607963240.79
1.863928525453061,6018577550193895.0,9930211838346968.0,1545138069148149.8,2322724981517135.0,14149492500.258884,43306756605.72695,1260409172020.8477,42453372066670.195
2.001207095962122,6237825363809038.0,1.0295485724724098e+16,1601425147047303.2,2407338392193385.0,15806018338.604822,48376818638.09219,1407972295568.2937,47424666541820.625
2.1412312378813647,6453619917698489.0,1.0655379263703924e+16,1656825676087663.2,2490619100495947.0,17556952471.080315,53735832558.516975,1563945427258.3496,52679331209544.88
2.284055862638992,6666367034795163.0,1.1010565577354888e+16,1711443842425852.8,2572723724007406.5,19404393848.84498,59390222559.6105,1728515544161.5405,58223665965889.28
2.4297369798917723,6876419073205180.0,1.1361630410047078e+16,1765370106294277.5,2653788246848657.0,21350585647.0918,65346854256.131996,1901882471517.2312,64064403787532.49
2.578331719489608,7084084394185504.0,1.1709087660155722e+16,1818683632697195.8,2733931673616756.0,23397908515.28666,71613014026.28976,2084258281406.8477,70208690452306.91
2.7298983538794,7289634787445667.0,1.2053391561723174e+16,1871454197694426.5,2813258895001243.5,25548875560.308506,78196393656.87221,2275866845811.021,76664069466805.3
2.884496320956988,7493311366608267.0,1.2394946357351532e+16,1923743701931807.5,2891862962995023.5,27806128695.22082,85105079168.12628,2476943511330.048,83438471097239.42
3.0421862473761276,7695329302304773.0,1.2734114065116602e+16,1975607385759980.2,2969826917518748.0,30172436080.570942,92347542982.49968,2687734871236.6157,90540204682804.56
3.2030299723236504,7895881660546923.0,1.3071220778505242e+16,2027094814652207.5,3047225267747646.5,32650690452.27922,99932638806.94597,2908498616513.757,97977953612694.75
3.3670905717701234,8095142544194954.0,1.3406561823841292e+16,2078250685707639.0,3124125204485604.0,35243908178.8824,107869598747.53613,3139503451869.856,105760772494302.14
3.5344323832055258,8293269685715435.0,1.3740406018253056e+16,2129115493285098.5,3200587600777536.5,37955228926.73225,116168032284.82954,3381029065915.4116,113898086147841.9
3.7051210308696363,8490406603612486.0,1.4072999212496892e+16,2179726082619642.0,3276667844132050.5,40787915838.48561,124837926820.25636,3633366147068.107,122399690142981.92
3.879223451487029,8686684408725612.0,1.4404567259992108e+16,2230116113549953.8,3352416533618560.5,43745356150.411446,133889649565.57768,3896816438551.258,131275752653735.94
4.0568079205167695,8882223327189253.0,1.4735318521605308e+16,2280316451504938.0,3427880067616892.5,46831062189.461754,143333950594.68222,4171692827224.8438,140536817454220.2
4.237944078927105,9077133992315182.0,1.5065445991884788e+16,2330355499166200.5,3503101142388086.5,50048672702.96165,153181966913.42276,4458319462049.116,150193807913646.9
4.422702960505647,9271518546651780.0,1.5395129114394658e+16,2380259479397664.0,3578119177387647.5,53401954483.05503,163445227431.6036,4757031898807.514,160258031876821.1
4.61115701971576,9465471587055562.0,1.5724535339990462e+16,2430052677872017.0,3652970679993164.5,56894804255.34303,174135658743.5826,5068177268366.273,170741187338348.0
4.803380160110075,9659080979111870.0,1.6053821471222484e+16,2479757652155388.0,3727689559810327.5,60531250806.94771,185265591641.67825,5392114466264.345,181655368836155.47
4.9994477633122765,9852428562181090.0,1.6383134827753454e+16,2529395412712524.0,3802307400768485.5,64315457333.86831,196847768300.76038,5729214361839.848,193013074503878.34
5.199436718578522,1.0045590762374426e+16,1.6712614261165642e+16,2578985580274922.0,3876853697683943.0,68251723991.22734,208895350083.83405,6079860025432.189,204827213732846.47
5.403425452950093,1.0238639127623048e+16,1.7042391042380754e+16,2628546523208115.5,3951356062756990.0,72344490633.04094,221421925927.6891,6444446972468.945,217111115403542.97
5.611493962009095,1.0431640796501366e+16,1.7372589640814364e+16,2678095477871784.5,4025840406502881.0,76598339730.61946,234441521275.29114,6823383423467.095,229878536653833.25
5.823723841249277,1.0624658910459208e+16,1.7703328411097124e+16,2727648654451363.0,4100331096843030.0,81017999460.74211,247968607527.8026,7217090579159.762,243143672157375.78
6.040198318074262,1.0817752977499512e+16,1.8034720200541104e+16,2777221330324312.5,4174851099457526.5,85608346956.43648,262018111994.28812,7626002910109.915,256921163890711.72
6.261002284435747,1.1010979194023226e+16,1.83668728883756e+16,2826827932686760.5,4249422101993544.5,90374411714.59799,276605428321.45593,8050568460297.067,271226111371712.75
6.486222330124463,1.1204390730491418e+16,1.869988986601842e+16,2876482111890967.5,4324064624309603.5,95321379155.84854,291746427389.38153,8491249164268.043,286074082355627.56
6.715946776726952,1.1398037985673662e+16,1.9033870466206972e+16,2926196806718117.5,4398798116596766.0,100454594333.0404,307457468662.1642,8948521177530.63,301481123977917.2
6.950265712261491,1.1591968813527016e+16,1.9368910347621736e+16,2975984302624423.0,4473641046937004.0,105779565785.62668,323755411985.07434,9422875219943.656,317463774335576.94
7.18927102650672,1.178622872614699e+16,1.9705101840650748e+16,3025856283844426.5,4548610979627233.0,111301969537.84836,340657629821.85785,9914816931920.174,334039074500811.0
7.433056447036854,1.1980861075732048e+16,2.0042534259121856e+16,3075823880106364.0,4623724645404240.0,117027653239.28528,358182019927.79834,10424867243315.006,351224580962713.56
7.681717575977592,1.21759072180845e+16,2.0381294182143708e+16,3125897708607458.0,4698998004543753.0,122962640446.84454,376347018455.671,10953562754913.547,369038378494200.7
7.935351927497144,1.2371406659818122e+16,2.0721465709619936e+16,3176087911806244.5,4774446303671791.0,129113135047.70808,395171613493.1419,11501456132480.188,387499093442795.5
8.194058966047088,1.256739719114766e+16,2.1063130694515836e+16,3226404191513387.5,4850084127011558.0,135485525823.15405,414675359031.355,12069116513357.889,406625907445022.25
8.45794014536803,1.2763915005884234e+16,2.140636895454609e+16,3276855839697808.0,4925925442692690.0,142086391153.50504,434878389365.4588,12657129925642.178,426438571565209.3
8.72709894827539,1.2960994810046886e+16,2.17512584656029e+16,3327451766370437.5,5001983644667441.0,148922503864.74942,455801433928.77014,13266099719978.262,446957420860370.44
9.0016409272409,1.3158669920321122e+16,2.2097875538946944e+16,3378200524861194.0,5078271590708161.0,156000836217.65192,477465832563.0622,13896647014053.652,468203389373640.4
9.281673745785717,1.3356972353437884e+16,2.244629498392973e+16,3429110334765117.5,5154801636901124.0,163328565040.3817,499893551228.13464,14549411149878.746,490198025559406.3
9.567307220701432,1.3555932907415158e+16,2.2796590257797336e+16,3480189102799371.5,5231585668999765.0,170913077005.91586,523107198154.4907,15225050163966.55,512963508143918.3
9.85865336511546,1.375558123548898e+16,2.314883360393953e+16,3531444441783411.0,5308635130956428.0,178761974055.6233,547130040443.4574,15924241270537.953,536522662425655.2
10.155826432417769,1.3955945913462728e+16,2.3503096179784828e+16,3582883687929450.5,5385961050914375.0,186883078970.6202,571986021119.5907,16647681357893.34,560898977020266.06
10.458942961066125,1.4157054501117134e+16,2.3859448175403776e+16,3634513916608093.0,5463574064907392.0,195284441092.61758,597699776640.6517,17396087498104.84,586116621055266.6
10.768121820287448,1.4358933598250436e+16,2.4217958923760548e+16,3686341956735478.5,5541484438487179.0,203974342196.10837,624296654870.8065,18170197470193.367,612200461820130.6
11.083484256693197,1.4561608895853162e+16,2.4578697003448e+16,3738374403911225.0,5619702086472956.0,212961302513.86667,651802733523.0612,18970770296966.457,639176082877662.0
11.405153941827061,1.4765105222865388e+16,2.4941730334648944e+16,3790617632422432.0,5698236590996451.0,222254086917.8126,680244839077.2684,19798586795700.168,667069802642958.8
11.733257020663602,1.4969446588916716e+16,2.530712626898579e+16,3843077806216083.0,5777097217996217.0,231861711257.41125,709650566180.3003,20654450142857.887,695908693436440.2
12.067922161076874,1.5174656223404256e+16,2.5674951673851892e+16,3895760888931605.5,5856292932298882.0,241793448857.83905,740048297535.2225,21539186453046.12,725720601017741.5
12.409280604298411,1.5380756611227528e+16,2.604527301175401e+16,3948672653074943.5,5935832411410200.0,252058837180.22818,771467224286.6106,22453645372411.9,756534164607453.6
12.75746621638438,1.5587769525465782e+16,2.6418156415141864e+16,4001818688407787.0,6015724058126104.0,262667684646.37357,803937366909.1942,23398700686695.44,788378837403901.5
13.112615540712067,1.579571605725354e+16,2.6793667757153892e+16,4055204409617393.0,6095976012062292.0,273630077630.3273,837489596607.3574,24375250944154.242,821284907602338.0
13.474867851526309,1.6004616643083948e+16,2.717187271866425e+16,4108835063326230.0,6176596160191537.0,284956387619.37445,872155657233.0763,25384220093580.47,855283519924060.8
13.844365208556836,1.6214491089748558e+16,2.7552836851978624e+16,4162715734494648.0,6257592146468409.0,296657278546.9255,907968187730.0494,26426558137637.22,890406697663125.6
14.221252512727972,1.6425358597098984e+16,2.7936625641496676e+16,4216851352264438.5,6338971380613621.0,308743714299.8838,944960745111.9016,27503241801743.91,926687365258437.0
14.605677562982532,1.6637237778800326e+16,2.832330456162279e+16,4271246695286851.0,6420741046123416.0,321226966403.1117,983167827982.4128,28615275218741.848,964159371399092.2
14.997791114242183,1.6850146681228976e+16,2.871293913218882e+16,4325906396574176.0,6502908107562579.0,334118621883.6102,1022624900605.8785,29763690629574.977,1002857512670973.6
15.397746936527026,1.7064102800653234e+16,2.91055949716204e+16,4380834947910477.0,6585479317195001.0,347430591317.0902,1063368417535.6917,30949549100224.582,1042817557752619.6
15.805701875257567,1.7279123098822956e+16,2.950133784806641e+16,4436036703853934.5,6668461221000030.0,361175117059.59,1105435848809.3726,32173941255133.992,1084076272168486.1
16.221815912762718,1.7495224017082398e+16,2.9900233728683976e+16,4491515885359967.0,6751860164119098.0,375364781666.8528,1148865705718.2793,33437988027364.816,1126671443607752.0
16.64625223101797,1.7712421489110784e+16,3.0302348827261548e+16,4547276583052083.0,6835682295772462.0,390012516504.1428,1193697567160.2275,34742841425725.688,1170641907816847.5
17.079177275638333,1.793073095238532e+16,3.0707749650343692e+16,4603322760164858.0,6919933573683288.0,405131610549.2267,1239972106583.38,36089685319113.87,1216027575073921.2
17.5207608211511,1.815016735845435e+16,3.111650304200829e+16,4659658255181175.0,7004619768042156.0,420735719391.19916,1287731119529.605,37479736238311.195,1262869457253399.2
17.97117603757412,1.8370745182099412e+16,3.152867622743753e+16,4716286784184537.0,7089746465043010.0,436838874427.88666,1337017551785.609,38914244195475.84,1311209695488895.2
18.430599558325603,1.859247842945968e+16,3.1944336855407644e+16,4773211942944791.0,7175319070018649.0,453455492264.487,1387875528150.1047,40394493521569.32,1361091588442591.2
18.899211549492115,1.881538064518601e+16,3.23635530398196e+16,4830437208754704.0,7261342810201518.0,470600384316.15295,1440350381825.197,41921803721958.06,1412559621189252.2
19.37719578048196,1.90394649186856e+16,3.278639340037709e+16,4887965942033267.0,7347822737133825.0,488288766617.1679,1494488684440.103,43497530350427.52,1465659494722907.0
19.864739696091597,1.9264743889515e+16,3.321292710251643e+16,4945801387710063.0,7434763728748695.0,506536269839.3497,1550338276715.3838,45123065901842.76,1520438156094291.2
20.36203449001343,1.9491229751972796e+16,3.36432238966801e+16,5003946676404578.0,7522170491142774.0,525358949522.31433,1607948299775.57,46799840723690.72,1576943829186933.5
20.869275179813698,1.971893425894231e+16,3.407735415702398e+16,5062404825412443.0,7610047560059075.0,544773296518.1555,1667369227118.2002,48529323946731.9,1635226046139725.0
21.38666068340997,1.994786872502743e+16,3.4515388919639184e+16,5121178739510789.0,7698399302097291.0,564796247653.1134,1728652897246.964,50313024434993.234,1695335679423805.5
21.91439389707817,2.017804402902466e+16,3.4957399920365156e+16,5180271211592618.0,7787229915667749.0,585445196608.7167,1791852546976.7275,52152491755318.3,1757324974581259.2
22.452681775019734,2.040947061577035e+16,3.5403459632266396e+16,5239684923141233.0,7876543431704403.0,606738005024.8732,1857022845417.8616,54049317166703.51,1821247583633261.8
23.00173541052013,2.0642158497398804e+16,3.585364130283904e+16,5299422444553121.0,7966343714150159.0,628693013827.3187,1924219928647.3916,56005134629627.06,1887158599164881.5
23.561770118730532,2.087611725404556e+16,3.6308018991011944e+16,5359486235318570.0,8056634460228549.0,651329054781.7642,1993501435074.0527,58021621835587.26,1955114589093849.8
24.133005521105144,2.1111356034028356e+16,3.676666760400089e+16,5419878644068088.0,8147419200513403.0,674665462277.0743,2064926541504.3687,60100501257052.06,2025173632130226.5
24.715665631527248,2.1347883553534628e+16,3.722966293407219e+16,5480601908492196.0,8238701298808321.0,698722085339.6736,2138555999916.5867,62243541218019.1,2097395353933797.0
25.309978944157795,2.1585708095845216e+16,3.7697081695270296e+16,5541658155142103.0,8330483951846969.0,723519299881.354,2214452174949.0547,64452556985381.71,2171840963975847.5
25.91617852304095,2.1824837510119264e+16,3.8169001560157784e+16,5603049399117803.0,8422770188824401.0,749078021182.6041,2292679082109.471,66729411881285.22,2248573293111687.5
26.53450209350177,2.206527920976788e+16,3.864550119661752e+16,5664777543650525.0,8515562870769059.0,775419716613.4248,2373302426711.2007,69076018416654.516,2327656831870087.5
27.165192135371807,2.23070401704386e+16,3.912666030476257e+16,5726844379585204.0,8608864689765121.0,802566418593.5911,2456389643542.4805,71494339446063.25,2409157769465552.0
27.808495978079243,2.255012692763443e+16,3.9612559653995864e+16,5789251584769465.0,8702678168033780.0,830540737794.1951,2542009937274.2075,73986389344113.19,2493144033539036.0
28.464665897640828,2.2794545573990636e+16,4.010328112026289e+16,5852000723354140.0,8797005656881910.0,859365876582.1954,2630234323611.648,76554235203473.52,2579685330632544.5
29.133959215593645,2.3040301756228068e+16,4.059890772353752e+16,5915093245011448.0,8891849335526620.0,889065642709.65,2721135671195.138,79199998054732.31,2668853187402642.5
29.816638399905518,2.3287400671805604e+16,4.109952366557735e+16,5978530484075348.0,8987211209803101.0,919664463249.1483,2814788744254.353,81925854108196.6,2760720992577626.5
30.51297116790363,2.3535847065289788e+16,4.160521436798869e+16,6042313658609687.0,9083093110763838.0,951187398776.9005,2911270246020.827,84734036017767.42,2855364039662816.5
31.223230591261704,2.378564522446237e+16,4.21160665106331e+16,6106443869408719.0,9179496693176066.0,983660157804.7773,3010658862902.4766,87626834167011.44,2952859570398140.5
31.947695203086937,2.4036798976182228e+16,4.263216807041215e+16,6170922098934886.0,9276423433925030.0,1017109111462.5409,3113035309423.9707,90606597977534.27,3053286818971591.5
32.686649107148675,2.428931168202151e+16,4.315360836046432e+16,6235749210198478.0,9373874630329972.0,1051561308431.3103,3218482373936.312,93675737239752.83,3156727056992180.0
33.44038208929165,2.454318623369355e+16,4.368047806980306e+16,6300925945583769.0,9471851398379120.0,1087044490129.2407,3327084965098.3564,96836723466154.44,3263263639225114.0
34.20918973107749,2.479842504828876e+16,4.421286930343096e+16,6366452925625981.0,9570354670891788.0,1123587106150.2285,3438930159133.0327,100092091267112.11,3372982050092076.0
34.993373525699035,2.505503006333683e+16,4.4750875622958456e+16,6432330647743705.0,9669385195612132.0,1161218329956.3416,3554107247860.215,103444439749322.67,3485969950938609.5
35.793240996213015,2.531300273171208e+16,4.529459208775613e+16,6498559484930795.0,9768943533243526.0,1199968074824.4902,3672707787507.893,106896433936913.0,3602317228070479.0
36.60910581613728,2.557234401639836e+16,4.584411529667238e+16,6565139684412444.0,9869030055427676.0,1239867010047.785,3794825648303.134,110450806215253.4,3722116041560372.5
37.44128793246003,2.583305438512961e+16,4.6399543430341304e+16,6632071366269366.0,9969644942676770.0,1280946577391.8003,3920557064843.268,114110357797501.05,3845460874825834.0
38.29011369110923,2.609513380492495e+16,4.69609762941112e+16,6699354522034585.0,1.0070788182264002e+16,1323239007805.8748,4050000687247.927,117877960213881.56,3972448584978795.5
39.15591596493141,2.63585817365314e+16,4.752851536161967e+16,6766989013266921.0,1.0172459566079254e+16,1366777338389.3755,4183257633091.581,121756556823706.3,4103178453946891.5
40.03903428423004,2.662339712879409e+16,4.810226381904151e+16,6834974570105560.0,1.0274658688456042e+16,1411595429612.7383,4320431540116.1436,125749164350110.95,4237752240365903.5
40.93981496991464,2.6889578412968316e+16,4.868232661003733e+16,6903310789809849.0,1.0377384943976736e+16,1457727982792.9119,4461628619722.322,129858874437472.98,4376274232242375.0
41.85861126931294,2.715712349699117e+16,4.9268810481426984e+16,6971997135288621.0,1.0480637525261574e+16,1505210557822.6604,4606957711238.259,134088855231476.42,4518851300385145.0
42.7957834946992,2.742602975972867e+16,4.986182402961415e+16,7041032933623318.0,1.0584415420748668e+16,1554079591153.0735,4756530336963.327,138442352981748.27,4665592952603552.0
