t(s),Total solute volume 1,Total retention volume 1,Total 1 volume 1,Total 2 volume 1,Total 3 volume 1,Total 4 volume 1,Total 5 volume 1,Total 6 volume 1
0.1,878184692305091.0,1002349173156223.1,60489917771387.09,63674563079745.664,0.0,0.0,0.0,0.0
0.202,1323176037315516.2,1510267484316427.8,91141203571789.1,95939563996784.14,22406340.069960948,39639984.10873482,508013429.9435224,10109372586.248873
0.30604000000000003,1662066477400718.8,1897089269614302.5,114484191760428.14,120511503200270.12,56851640.94334525,100578602.44901145,1288985600.6298463,25650837039.49451
0.41216080000000005,1948712717252719.8,2224284787230470.8,134228566335558.72,141295370602436.56,100985495.60529764,178657648.5983897,2289625140.745297,45563771469.71895
0.5204040160000001,2203272987688476.2,2514861896054799.0,151762839010772.25,159752779663102.62,153765009.7565633,272032094.6763187,3486286543.4998226,69377608803.19359
0.6308120963200001,2435789633865017.5,2780282538387740.0,167778732883044.34,176611871004673.78,214630911.8295095,379712510.2987235,4866289492.39251,96840002087.85211
0.7434283382464002,2652099074658418.5,3027208178381149.0,182678264182001.84,192295826024898.5,283263569.7052373,501133421.33312,6422387002.846423,127806731836.2156
0.8582969050113283,2855940085365621.0,3259906122131580.0,196718962118548.12,207075732215489.2,359482759.6602341,635975986.9097731,8150492884.82085,162196480289.67838
0.9754628431115548,3049874642391890.5,3481300534909933.5,210077297250400.88,221137350875743.1,443198286.54451615,784080639.5040265,10048562157.016571,199968550811.4467
1.094972099973786,3235747508041462.0,3693496992538437.0,222880337973651.1,234614440240768.16,534382639.7971907,945398709.5481395,12115971078.980547,241110530126.95105
1.2168715419732616,3414938525457128.0,3898070439891424.0,235223128758033.66,247607048638208.06,633054564.3990172,1119963360.1171956,14353144656.914679,285630875475.61957
1.3412089728127268,3588511416301476.5,4096235021737556.0,247178939425474.38,260192303366157.88,739268580.4216484,1307871045.5271342,16761319021.54366,333554185804.59436
1.4680331522689813,3757306599840134.0,4288950021961679.5,258805658587346.88,272431140729190.97,853107986.848311,1509269134.1034749,19342382804.54907,384918045080.53595
1.597393815314361,3922001764958107.0,4476988997411622.5,270149965883322.9,284372697935346.9,974680024.9247249,1724347351.4655635,22098767477.81615,439770839988.1797
1.729341691620648,4083152893139428.5,4660986599383543.0,281250157670200.12,296057287550541.8,1104112442.5397518,1953331702.4311566,25033369458.077293,498170209776.6177
1.863928525453061,4241222919165071.5,4841471285401340.0,292138121188933.06,307518475600633.6,1241551002.5968993,2196480062.9749017,28149493614.556942,560181922035.7786
2.001207095962122,4396602291396578.5,5018888785596123.0,302840750769986.3,318784572336524.06,1387157648.1130772,2454078934.0304675,31450811666.516655,625879044788.9138
2.1412312378813647,4549624060704978.0,5193619324372745.0,313380987168322.75,329879726287567.44,1541109136.967236,2726441026.1701546,34941331229.119675,695341330491.4299
2.284055862638992,4700575175627861.0,5365990512076101.0,323778595580971.6,340824743239863.9,1703596020.7255495,3013903453.0046635,38625372660.49976,768654755277.1401
2.4297369798917723,4849705086048181.0,5536287164759956.0,334050758273882.6,351637710063456.0,1874821881.0266497,3316826380.243412,42507551748.46153,845911174415.6193
2.578331719489608,4997232398512518.0,5704758900214767.0,344212533004454.8,362334477269678.6,2055002762.5528455,3635592022.5433955,46592766854.350685,927208066469.1104
2.7298983538794,5143350095651869.0,5871626095152843.0,354277212538551.75,372929037455865.1,2244366758.752301,3970603910.5962596,50886189520.22879,1012648346370.5743
2.884496320956988,5288229680127381.0,6037084615132463.0,364256610090489.9,383433825779108.2,2443153718.7580776,4322286378.597183,55393259349.037384,1102340436037.6514
3.0421862473761276,5432024502555372.0,6201309612056472.0,374161288542999.0,393859961219585.3,2651615048.5885744,4691084188.751816,60119673416.390594,1196397365867.5024
3.2030299723236504,5574872458843776.0,6364458604109942.0,384000746256051.94,404217442208928.8,2870013596.3856883,5077462363.830099,65071392762.30406,1294937932473.8792
3.3670905717701234,5716898199663771.0,6526673996742412.0,393783569246836.7,414515306797035.75,3098623597.751639,5481906066.811158,70254635106.7797,1398085869998.1453
3.5344323832055258,5858214953462238.0,6688085163646415.0,403517556762495.7,424761764842245.7,3337730678.314796,5904920611.324227,75675876415.26901,1505970051725.7908
3.7051210308696363,5998926043121398.0,6848810177877258.0,413209825748602.8,434964307979831.44,3587631902.254898,6347031547.501152,81341851998.94064,1618724511985.2114
3.879223451487029,6139126156658604.0,7008957262256361.0,422866898375770.44,445129801756665.56,3848635860.8626237,6808784818.65538,87259558522.63544,1736488486105.2942
4.0568079205167695,6278902418910218.0,7168626012636680.0,432494775857912.9,455264563335828.8,4121062796.0510225,7290746979.796242,93436256805.29016,1859406466143.379
4.237944078927105,6418335300926369.0,7327908435948550.0,442099001091938.44,465374427434133.1,4405244754.781908,7793505470.83632,99879475321.29005,1987628270561.9043
4.422702960505647,6557499396067746.0,7486889836113545.0,451684712115776.9,475464802594581.0,4701525771.185595,8317668938.792519,106597014329.71545,2121309126400.371
4.61115701971576,6696464085877489.0,7645649574161370.0,461256687974068.75,485540719466774.94,5010262073.795436,8863867604.419092,113596950573.01637,2260609762779.049
4.803380160110075,6835294114234630.0,7804261723671188.0,470819388266211.5,495606872437060.9,5331822315.829613,9432753669.614944,120887642498.23703,2405696514801.579
4.9994477633122765,6974050084738663.0,7962795638600281.0,480376987406528.8,505667655692421.5,5666587826.862159,10025001762.671503,128477735963.20258,2556741437108.4326
5.199436718578522,7112788893484165.0,8121316447377066.0,489933404434049.9,515727194599664.7,6014952884.556851,10641309419.015518,136376170397.58946,2713922426482.6353
5.403425452950093,7251564107176305.0,8279885484616158.0,499492329057361.4,525789373121465.1,6377325005.407188,11282397595.57608,144592185394.9258,2877423353031.1064
5.611493962009095,7390426294780617.0,8438560669806501.0,509057244498837.06,535857857863301.1,6754125253.647581,11949011217.299757,153135327716.588,3047434199564.7964
5.823723841249277,7529423319490338.0,8597396840714924.0,518631447605549.1,545936119243140.4,7145788567.684249,12641919754.661304,162015458693.02777,3224151208883.7227
6.040198318074262,7668600596657340.0,8756446047948971.0,528218066615698.94,556027450193241.44,7552764103.547447,13361917831.28699,171242762010.92154,3407777038741.953
6.261002284435747,7808001322409526.0,8915757816069650.0,537820076905937.7,566134982736527.1,7975515594.994718,14109825861.037563,180827751877.85718,3598520924325.6475
6.486222330124463,7947666676923947.0,9075379375784350.0,547440314992946.94,576261702725312.1,8414521730.004155,14886490714.086931,190781281558.6328,3796598848126.192
6.715946776726952,8087636005706903.0,9235355871044776.0,557081491020121.3,586410462985383.1,8870276543.489113,15692786411.699678,201114552279.34796,4002233717132.341
6.950265712261491,8227946981721768.0,9395730544292686.0,566746199925042.9,596583995071411.6,9343289826.145275,16529614849.549994,211839122497.2709,4215655547301.5137
7.18927102650672,8368635750783369.0,9556544902613682.0,576436931454331.6,606784919809058.5,9834087549.410782,17397906549.546684,222966917536.04077,4437101655301.109
7.433056447036854,8509737062285336.0,9717838867158090.0,586156079168231.9,617015756773636.9,10343212306.579756,18298621440.236767,234510239587.11673,4666816857538.277
7.681717575977592,8651284387033185.0,9879650907852084.0,595905948557027.2,627278932833832.4,10871223770.16287,19232749665.95271,246481778079.61032,4905053676520.368
7.935351927497144,8793310023708591.0,1.0042018165140706e+16,605688764374375.5,637576789871107.1,11418699165.635944,20201312424.953796,258894620421.68314,5152072554609.725
8.194058966047088,8935845195282441.0,1.020497656026603e+16,615506677278284.6,647911591770339.0,11986233761.75969,21205362836.88344,271762263117.66794,5408142075255.168
8.45794014536803,9078920136517978.0,1.0368560895384036e+16,625361769858396.4,658285530764396.6,12574441377.691378,22245986839.936214,285098623265.9297,5673539191800.378
8.72709894827539,9222564173555784.0,1.0532804944651684e+16,635256062117854.9,668700733204623.2,13183954907.14513,23324304118.18534,298918050443.259,5948549463984.21
9.0016409272409,9366805796445040.0,1.069774153727135e+16,645191516469292.0,679159264819860.4,13815426859.887894,24441469059.581314,313235338982.3458,6233467302263.114
9.281673745785717,9511672725376704.0,1.0863402633354954e+16,655170042297022.5,689663135518810.8,14469529920.88901,25598671745.182476,328065740649.5011,6528596220098.872
9.567307220701432,9657191971280302.0,1.1029819393363604e+16,665193500130975.6,700214303783738.4,15146957527.467985,26797138970.228527,343424977730.48145,6834249094367.065
9.85865336511546,9803389891366078.0,1.119702224178662e+16,675263705472494.4,710814680697666.9,15848424464.81192,28038135297.71217,359329256532.7998,7150748434053.934
10.155826432417769,9950292240125358.0,1.1365040925645214e+16,685382432307247.8,721466133642260.4,16574667480.257975,29322964145.150772,375795281313.5155,7478426657420.1045
10.458942961066125,1.0097924216240438e+16,1.153390456833729e+16,695551416336440.2,732170489699118.5,17326445916.759903,30652968905.298088,392840268641.9883,7817626377820.167
10.768121820287448,1.0246310505805398e+16,1.1703641719279946e+16,705772357953868.6,742929538783601.1,18104542365.980896,32029534101.578342,410481962207.64197,8168700698377.649
11.083484256693197,1.0395475322212156e+16,1.1874280399755996e+16,716046924993300.4,753745036536824.4,18909763341.476738,33454086579.063877,428738648083.2302,8532013515724.732
11.405153941827061,1.0545442443017326e+16,1.2045848145324208e+16,726376755267902.2,764618706998790.5,19742939972.45323,34928096731.854,447629170454.6151,8907939833025.285
11.733257020663602,1.0696235244071436e+16,1.2218372045114318e+16,736763458921064.8,775552245082991.6,20604928718.60615,36453079767.751205,467172947828.5401,9296866082510.02
12.067922161076874,1.0847876731160722e+16,1.2391878778293862e+16,747208620605912.5,786547318870641.0,21496612106.568428,38030597011.1659,487389989730.33777,9699190457761.133
12.409280604298411,1.1000389569385934e+16,1.2566394647962384e+16,757713801508946.5,797605571740874.6,22418899488.512672,39662257245.21824,508300913903.96783,10115323255993.482
12.75746621638438,1.1153796110479258e+16,1.2741945612702798e+16,768280541231635.4,808728624351394.8,23372727823.47621,41349718094.040375,529926964027.2575,10545687230587.883
13.112615540712067,1.1308118418239262e+16,1.2918557315996392e+16,778910359542400.2,819918076482703.0,24359062481.99566,43094687446.31843,552290027955.6641,10990717954141.998
13.474867851526309,1.1463378292246202e+16,1.3096255113685786e+16,789604758010140.1,831175508757605.2,25378898074.658863,44898924921.14874,575412656508.316,11450864192312.553
13.844365208556836,1.1619597290003394e+16,1.3275064099653598e+16,800365221529334.0,842502484246630.6,26433259305.201103,46764243377.318474,599318082810.5907,11926588288732.082
14.221252512727972,1.1776796747636406e+16,1.3455009129866888e+16,811193219745829.8,853900549968867.0,27523201848.79434,48692510467.15738,624030242207.8776,12418366561292.438
14.605677562982532,1.1934997799268734e+16,1.3636114844923352e+16,822090208391440.9,865371238296835.6,28649813256.1963,50685650236.14087,649573792765.7028,12926689710096.578
14.997791114242183,1.2094221395182064e+16,1.381840569122253e+16,833057630534838.9,876916068273224.1,29814213884.448345,52745644769.46483,675974136371.8157,13452063237388.729
15.397746936527026,1.2254488318857718e+16,1.4001905940873626e+16,844096917755382.8,888536546846532.8,31017557854.831787,54874535886.84435,703257440456.3119,13995007879783.777
15.805701875257567,1.2415819202988454e+16,1.418663971044088e+16,855209491246016.4,900234170032021.0,32261034038.811447,57074426886.82958,731450660346.3438,14556060053123.861
16.221815912762718,1.2578234544540454e+16,1.4372630978619054e+16,866396762850757.8,912010424003824.2,33545867072.718246,59347484341.9664,760581562272.4504,15135772310302.135
16.64625223101797,1.2741754718938874e+16,1.4559903602921928e+16,877660136041794.1,923866786123492.0,34873318401.9429,61695939946.1681,790678747044.0038,15734713812401.54
17.079177275638333,1.290639999344299e+16,1.4748481335461238e+16,889001006840783.5,935804725909798.6,36244687355.43483,64122092415.70492,821771674411.8212,16353470813506.627
17.5207608211511,1.3072190539772294e+16,1.4938387837884442e+16,900420764688549.5,947825705954201.4,37661312251.32158,66628309445.25137,853890688136.3502,16992647159556.486
17.97117603757412,1.323914644603812e+16,1.5129646695535678e+16,911920793266913.2,959931182785982.0,39124571534.48727,69217029720.47641,887067041780.5186,17652864801617.035
18.430599558325603,1.340728772803156e+16,1.532228143089763e+16,923502471276245.6,972122607690693.1,40635884946.96935,71890764988.69759,921332925246.6981,18334764323959.832
18.899211549492115,1.3576634339913684e+16,1.5516315516367126e+16,935167173171806.5,984401427485283.1,42196714732.05779,74652102189.16061,956721492077.7911,19039005487346.258
19.37719578048196,1.3747206184350372e+16,1.571177238641311e+16,946916269861823.2,996769085252932.9,43808566873.0003,77503705644.54582,993266887543.0195,19766267787924.82
19.864739696091597,1.3919023122129376e+16,1.590867544916101e+16,958751129369934.6,1009227021040363.1,45472992367.24296,80448319315.34563,1031004277529.3872,20517251032160.465
20.36203449001343,1.4092104981294986e+16,1.61070480974437e+16,970673117464397.4,1021776672520170.0,47191588537.15736,83488769118.79294,1069969878260.4406,21292675928224.418
20.869275179813698,1.4266471565832082e+16,1.6306913719355604e+16,982683598256224.4,1034419475620460.4,48966000378.226776,86627965314.06483,1110200986864.3713,22093284694283.383
21.38666068340997,1.44421426639271e+16,1.6508295708343048e+16,994783934768235.5,1047156865123850.0,50797921945.68806,89868904955.52449,1151736012814.025,22919841684137.58
21.91439389707817,1.4619138055832574e+16,1.6711217472860162e+16,1006975489476755.0,1059990275237694.0,52689097780.64682,93214674415.79602,1194614510261.9363,23773134030665.73
22.452681775019734,1.479747752135707e+16,1.6915702445616912e+16,1019259624827517.6,1072921140137138.8,54641324376.70489,96668451980.5226,1238877211293.895,24653972307545.99
23.00173541052013,1.497718084700021e+16,1.7121774092441926e+16,1031637703727154.4,1085950894482503.8,56656451688.158844,100233510516.66502,1284566060125.0698,25563191209728.867
23.561770118730532,1.515826783274999e+16,1.7329455920779762e+16,1044111090011374.4,1099080973912081.6,58736384680.846214,103913220216.26219,1331724248263.1475,26501650253149.508
24.133005521105144,1.5340758298555092e+16,1.7538771487838534e+16,1056681148890797.9,1112312815511471.5,60883084926.73584,107711051417.58034,1380396250663.2217,27470234494170.777
24.715665631527248,1.5524672090483336e+16,1.7749744408400444e+16,1069349247375138.0,1125647858260082.1,63098572243.368195,111630577505.6154,1430627862899.6365,28469855269257.24
25.309978944157795,1.5710029086572178e+16,1.79623983623028e+16,1082116754676205.2,1139087543455351.8,65384926379.2662,115675477893.92805,1482466239380.1226,29501450955384.895
25.91617852304095,1.5896849202375166e+16,1.8176757101594164e+16,1094985042589935.5,1152633315114883.5,67744288746.44444,119849541089.80603,1535959932627.752,30565987751692.902
26.53450209350177,1.6085152396202444e+16,1.8392844457364884e+16,1107955485857370.4,1166286620356446.8,70178864201.14374,124156667844.7533,1591158933656.4092,31664460482888.414
27.165192135371807,1.627495867405007e+16,1.861068434624524e+16,1121029462504175.9,1180048909755349.0,72690922873.92049,128600874392.29468,1648114713465.153,32797893424909.03
27.808495978079243,1.6466288094207054e+16,1.883030077656042e+16,1134208354158004.2,1193921637678526.2,75282802050.20358,133186295775.07625,1706880265676.9856,33967341153348.312
28.464665897640828,1.665916077152453e+16,1.905171785412395e+16,1147493546342532.2,1207906262594043.2,77956908102.42174,137917189263.20337,1767510150346.721,35173889415137.52
29.133959215593645,1.6853596881323926e+16,1.9274959787644348e+16,1160886428746663.2,1222004247354490.2,80715718474.76898,142797937865.7107,1830060538962.403,36418656023966.75
29.816638399905518,1.7049616662915728e+16,1.950005089371293e+16,1174388395466909.8,1236217059452097.0,83561783721.64418,147833053936.99698,1894589260663.6677,37702791779911.04
30.51297116790363,1.7247240422691986e+16,1.972701560133125e+16,1188000845220415.8,1250546171242989.5,86497729600.74748,153027182879.96075,1961155849699.2805,39027481413703.55
31.223230591261704,1.7446488536749116e+16,1.995587845592839e+16,1201725181525581.8,1264993060137323.5,89526259221.75465,158385106947.46942,2029821594144.7822,40393944556070.84
31.947695203086937,1.7647381452987028e+16,2.0186664122808004e+16,1215562812846685.5,1279559208751522.8,92650155251.40442,163911749143.64102,2100649585899.2278,41803436732506.59
32.686649107148675,1.7849939692623402e+16,2.0419397389954824e+16,1229515152698191.2,1294246105018050.2,95872282175.74953,169612177226.25845,2173704771977.8909,43257250383820.305
33.44038208929165,1.8054183851051212e+16,2.0654103170118828e+16,1243583619703774.5,1309055242247578.5,99195588620.18872,175491607811.423,2249054007115.099,44756715912739.36
34.20918973107749,1.8260134597956772e+16,2.089080650208364e+16,1257769637604503.5,1323988119137576.5,102623109727.77838,181555410581.3155,2326766107688.3374,46303202756787.98
34.993373525699035,1.846781267660656e+16,2.112953255101357e+16,1272074635209684.8,1339046239720576.8,106157969596.14604,187809112595.6434,2406911906971.056,47898120487588.14
35.793240996213015,1.8677238902198136e+16,2.1370306607760844e+16,1286500046283273.0,1354231113244605.0,109803383773.15602,194258402707.04062,2489564311717.5586,49542919936648.555
36.60910581613728,1.888843415916062e+16,2.161315408700163e+16,1301047309357948.5,1369544253977459.5,113562661811.26146,200909136080.29968,2574798360078.363,51239094347612.89
37.44128793246003,1.9101419397278652e+16,2.185810052405681e+16,1315717867468101.2,1384987180925651.0,117439209880.2437,207767338814.91116,2662691280839.502,52988180554827.94
38.29011369110923,1.931621562650192e+16,2.210517157024038e+16,1330513167792329.5,1400561417458069.2,121436533437.77057,214839212669.90125,2753322553972.5713,54791760187979.336
39.15591596493141,1.9532843910292468e+16,2.2354392986565964e+16,1345434661195200.0,1416268490823610.5,125558239956.9158,222131139889.4602,2846773972476.357,56651460902403.16
40.03903428423004,1.9751325357351456e+16,2.260579063563004e+16,1360483801657368.0,1432109931551313.5,129808041709.45372,229649688127.2502,2943129705482.9634,58568957634539.88
40.93981496991464,1.9971681111557068e+16,2.2859390471478796e+16,1375662045582502.5,1448087272720782.8,134189758603.39369,237401615466.68564,3042476362593.7397,60545973881836.53
41.85861126931294,2.019393233993706e+16,2.311521852725818e+16,1390970850968819.5,1464202049090110.8,138707321072.82745,245393875533.78134,3144903059401.2925,62584283006227.72
42.7957834946992,2.04181002184924e+16,2.3373300900433024e+16,1406411676432620.8,1480455796067995.2,143364773017.75894,253633622698.4323,3250501484144.721,64685709560143.76
43.751699164593184,2.0644205915681844e+16,2.3633663735360108e+16,1421985980070676.5,1496850048516251.2,148166274791.1347,262128217359.2198,3359365965435.0376,66852130633789.664
44.72673314788505,2.0872270573373264e+16,2.3896333202990868e+16,1437695218148175.5,1513386339368651.5,153116106229.83035,270885231305.98993,3471593540977.238,69085477222232.2
