t(s),Total solute volume 1,Total retention volume 1,Total 1 volume 1,Total 2 volume 1,Total 3 volume 1,Total 4 volume 1,Total 5 volume 1,Total 6 volume 1
0.1,1386011386779396.2,8520484941412214.0,2082602288778356.8,5051871265854462.0,0.0,0.0,0.0,0.00819856729667888
0.202,2026516433544196.8,1.2463512516487976e+16,3045018547777000.5,7386483468250457.0,2571159402.6241565,16285051645.40492,722270762937.8925,4752939942334.332
0.30604000000000003,2527700361976955.0,1.5554200857677298e+16,3798091568063060.0,9213261764122294.0,6478388592.997926,41059978606.84459,1893010905746.4592,13206614242047.184
0.41216080000000005,2954087926542805.5,1.818855020769725e+16,4438776391855019.5,1.0767411549437156e+16,11470834894.061535,72721487570.26411,3413621890147.629,24776525649646.133
0.5204040160000001,3333312286359218.0,2.053609006932272e+16,5008594327917785.0,1.2149654636238402e+16,17431593502.438812,110526647292.15614,5241302119684.742,39159558446827.76
0.6308120963200001,3679727006041907.5,2.2684865742864896e+16,5529112884773342.0,1.3412308948215574e+16,24296882765.40011,154070363495.69904,7353750674167.913,56184785913660.984
0.7434283382464002,4001816345168377.0,2.4686919004992428e+16,6013080413933965.0,1.4586299055857738e+16,32029548937.948536,203116704322.18927,9738213215223.342,75749830563858.52
0.8582969050113283,4305062910282300.5,2.6575884639553764e+16,6468735016085479.0,1.5691608676641644e+16,40607967333.47559,257528345695.61185,12387263158613.604,97792637072712.3
0.9754628431115548,4593243218927157.0,2.83749388694637e+16,6901751241952350.0,1.6742002943064626e+16,50020538779.92314,317231608270.14954,15296827196434.21,122277386176092.95
1.094972099973786,4869085576942594.0,3.0100834750542628e+16,7316228611475377.0,1.7747426327429304e+16,60262629445.26983,382197023469.59656,18465124649520.887,149186650392915.78
1.2168715419732616,5134635018881181.0,3.176614025836459e+16,7715239969154870.0,1.871533282656985e+16,71334725752.6105,452427618558.1836,21892041348691.99,178516640065683.25
1.3412089728127268,5391470062405358.0,3.338056731877944e+16,8101157176714951.0,1.9651476017121816e+16,83241253300.07127,527951418691.11255,25578734345394.83,210274135519948.6
1.4680331522689813,5640838610112410.0,3.4951804923305972e+16,8475855317605000.0,2.056040440823516e+16,95989785445.40262,608816423186.6547,29527369551078.523,244474411593692.97
1.597393815314361,5883746981706286.0,3.648606481486504e+16,8840846475696892.0,2.144578595749408e+16,109590493711.3756,695087117060.5328,33740940776451.11,281139781580577.06
1.729341691620648,6121020396900017.0,3.798845212484404e+16,9197370616180636.0,2.2310628526702536e+16,124055755193.56178,786841979230.6993,38223141097916.91,320298546228503.4
1.863928525453061,6353345336770486.0,3.946322491849132e+16,9546459237233848.0,2.3157434285900424e+16,139399865778.4447,884171662366.8927,42978269220176.055,361984217838253.6
2.001207095962122,6581299994846077.0,4.091398073929075e+16,9888981125463862.0,2.3988310705308716e+16,155638826949.9386,987177639823.1683,48011160029478.64,406234937175876.3
2.1412312378813647,6805376663254491.0,4.234379373036842e+16,1.0225675993066236e+16,2.4805052151155148e+16,172790185172.71313,1095971186270.7915,53327132344081.08,453093029177032.25
2.284055862638992,7025998514848511.0,4.375531742012413e+16,1.0557179694446352e+16,2.560920105525207e+16,190872909730.72656,1210672602392.471,58931949190142.51,502604660874924.0
2.4297369798917723,7243532402325827.0,4.51508631086185e+16,1.0884043458023408e+16,2.640209456681303e+16,209907299279.08954,1331410621803.0154,64831787396278.266,554819576138875.9
2.578331719489608,7458298769477545.0,4.65324605667017e+16,1.1206748778753468e+16,2.718490067819521e+16,229914910233.95724,1458321956558.429,71033214253033.95,609790889155654.5
2.7298983538794,7670579431170668.0,4.790190568436682e+16,1.152571910823774e+16,2.795864658233758e+16,250918502049.9892,1591550949833.7222,77543169620255.95,667574923548659.5
2.884496320956988,7880623755316947.0,4.926079833562265e+16,1.1841329143674462e+16,2.872424120556083e+16,272941995756.98853,1731249312741.3767,84368952300781.16,728231087461118.4
3.0421862473761276,8088653629444258.0,5.06105728038732e+16,1.2153912290569288e+16,2.948249331033558e+16,296010443053.84845,1877575928143.1558,91518209802915.6,791821777349954.2
3.2030299723236504,8294867490866880.0,5.195252247674733e+16,1.2463766718420598e+16,3.023412618494087e+16,320150003919.07153,2030696708504.105,98998930830437.1,858412304976092.6
3.3670905717701234,8499443626890091.0,5.3287820074681944e+16,1.2771160319567074e+16,3.0979789672453388e+16,345387931176.62964,2190784497880.9434,106819439995278.64,928070843347094.5
3.5344323832055258,8702542899842250.0,5.4617534361151016e+16,1.3076334803788016e+16,3.172007010327709e+16,371752560808.84863,2358019010376.761,114988394362891.39,1000868388309596.2
3.7051210308696363,8904311014426892.0,5.594264405391958e+16,1.3379509105199202e+16,3.2455498559464996e+16,399273307071.2726,2532586799064.8857,123514781525774.11,1076878733196623.9
3.879223451487029,9104880417577422.0,5.726404948942075e+16,1.368088223695168e+16,3.318655779954112e+16,427980661663.24164,2714681250646.1577,132407918965083.22,1156178454473145.0
4.0568079205167695,9304371900752126.0,5.858258246835859e+16,1.3980635698820752e+16,3.3913688098740484e+16,457906196359.74725,2904502602067.6274,141677454509350.22,1238846906737453.5
4.237944078927105,9502895959425626.0,5.989901461767633e+16,1.427893551996153e+16,3.4637292204249304e+16,489082568627.23254,3102257976073.5083,151333367737174.06,1324966225758017.8
4.422702960505647,9700553953027490.0,6.12140645335773e+16,1.457593400181856e+16,3.535773956308992e+16,521543529837.2529,3308161433238.651,161385972200178.34,1414621338478080.0
4.61115701971576,9897439099771666.0,6.252840391637274e+16,1.4871771212944468e+16,3.607536994819645e+16,555323935763.5906,3522434038489.329,171845918365626.72,1507899979120279.5
4.803380160110075,1.0093637334018154e+16,6.384266286628949e+16,1.5166576277261436e+16,3.6790496583431016e+16,590459759105.2,3745303940476.782,182724197196355.53,1604892710682957.0
4.9994477633122765,1.028922804850823e+16,6.515743447692956e+16,1.5460468489334632e+16,3.750340884897241e+16,626988103822.6912,3977006462456.3213,194032144300253.97,1705692951247780.5
5.199436718578522,1.0484284739651652e+16,6.6473278837602e+16,1.5753558283973078e+16,3.821437463333778e+16,664947221112.4877,4217784203556.159,205781444593227.8,1810397004621580.2
5.403425452950093,1.0678875570751278e+16,6.7790726535591656e+16,1.6045948082524058e+16,3.892364238629186e+16,704376526872.2281,4467887149506.967,217984137429026.6,1919104094919032.8
5.611493962009095,1.0873063865425172e+16,6.911028173337124e+16,1.6337733034283366e+16,3.9631442917332e+16,745316620535.0232,4727572792055.406,230652622157011.97,2031916404761121.2
5.823723841249277,1.1066908541381436e+16,7.043242488288163e+16,1.6629001668279966e+16,4.033799097676336e+16,787809305169.7284,4997106256409.304,243799664075229.9,2148939116820052.8
6.040198318074262,1.12604644930011e+16,7.175761512860819e+16,1.6919836468140412e+16,4.104348665018339e+16,831897608760.5806,5276760436164.607,257438400751324.56,2270280458487044.5
6.261002284435747,1.1453782929804446e+16,7.308629244274104e+16,1.7210314380664386e+16,4.1748116592165224e+16,877625806592.8569,5566816135248.916,271582348688092.78,2396051749476981.0
6.486222330124463,1.1646911676749852e+16,7.441887952881352e+16,1.7500507267049964e+16,4.245205512082354e+16,925039444682.2947,5867562216486.39,286245410314044.4,2526367452214918.5
6.715946776726952,1.1839895441388702e+16,7.575578352455675e+16,1.7790482304317426e+16,4.315546519157273e+16,974185364195.2174,6179295756447.692,301441881282268.06,2661345224874938.5
6.950265712261491,1.2032776052137538e+16,7.709739753004194e+16,1.8080302343334076e+16,4.385849926561084e+16,1025111726814.0336,6502322206297.239,317186458063394.4,2801105976962934.5
7.18927102650672,1.222559267129569e+16,7.844410198331232e+16,1.8370026228891976e+16,4.456130008635218e+16,1077868041009.2294,6836955558391.173,333494245820515.2,2945773927352585.0
7.433056447036854,1.2418381985910654e+16,7.979626590248802e+16,1.8659709086500064e+16,4.5264001375115976e+16,1132505189184.4148,7183518518413.895,350380766555675.4,3095476664698062.0
7.681717575977592,1.2611178379152458e+16,8.115424801063174e+16,1.89494025798889e+16,4.596672845577345e+16,1189075455665.5435,7542342682870.257,367861967519026.44,3250345210159422.0
7.935351927497144,1.2804014084488862e+16,8.251839775740258e+16,1.9239155142672856e+16,4.6669598816703976e+16,1247632555509.323,7913768721774.513,385954229872992.75,3410514082386573.5
8.194058966047088,1.2996919324641774e+16,8.38890562496183e+16,1.9529012187144036e+16,4.737272261728071e+16,1308231664109.0342,8298146566398.43,404674377604846.4,3576121364716418.5
8.45794014536803,1.318992243704087e+16,8.526655710123339e+16,1.9819016292777492e+16,4.807620314513874e+16,1370929447578.7917,8695835601957.961,424039686682012.25,3747308774544839.0
8.72709894827539,1.3383049987266952e+16,8.665122721187043e+16,2.010920737668989e+16,4.8780137229667816e+16,1435784093899.5325,9107204865132.639,444067894445166.7,3924221734841504.0
9.0016409272409,1.3576326871786448e+16,8.804338748187195e+16,2.0399622848007084e+16,4.948461561647173e+16,1502855344812.0037,9532633246324.564,464777209234860.94,4107009447780699.5
9.281673745785717,1.376977641111551e+16,8.944335347084968e+16,2.0690297747851412e+16,5.0189723306944e+16,1572204528443.6772,9972509696573.617,486186320247943.25,4295824970465842.5
9.567307220701432,1.3963420434411788e+16,9.085143600584011e+16,2.098126487644815e+16,5.089553986659829e+16,1643894592657.7898,10427233439055.018,508314407620520.9,4490825292729558.0
9.85865336511546,1.4157279356372008e+16,9.226794174445099e+16,2.1272554908671004e+16,5.160213970535463e+16,1717990139113.97,10897214185091.477,531181152734596.94,4692171416994440.0
10.155826432417769,1.4351372247209258e+16,9.369317369774085e+16,2.1564196499189184e+16,5.2309592332601e+16,1794557458030.6694,11382872354619.082,554806748745849.5,4900028440182856.0
10.458942961066125,1.4545716896394246e+16,9.51274317170255e+16,2.185621637824407e+16,5.301796258952535e+16,1873664563640.537,11884639301049.814,579211911330283.4,5114565637666832.0
10.768121820287448,1.4740329870766614e+16,9.657101294833072e+16,2.214863943896688e+16,5.372731086092707e+16,1955381230330.285,12402957540478.21,604417889647717.8,5335956549251564.0
11.083484256693197,1.4935226567554814e+16,9.802421225779373e+16,2.2441488817045364e+16,5.4437693268470456e+16,2039779029457.1707,12938280985181.73,630446477520267.2,5564379067188231.0
11.405153941827061,1.5130421262783602e+16,9.948732263095629e+16,2.2734785963460524e+16,5.514916184712617e+16,2126931366834.495,13491075181366.885,657320024824061.0,5800015526213751.0
11.733257020663602,1.5325927155496846e+16,1.0096063554857411e+17,2.302855071093523e+16,5.58617647063603e+16,2216913520878.685,14061817551114.617,685061449092649.2,6043052795617048.0
12.067922161076874,1.552175640817796e+16,1.0244444134129453e+17,2.332280133466951e+16,5.657554617746387e+16,2309802681410.747,14650997638478.738,713694247330530.4,6293682373332728.0
12.409280604298411,1.5717920183710396e+16,1.0393902952530752e+17,2.3617554607876984e+16,5.72905469482712e+16,2405677989104.77,15259117359691.844,743242508035343.8,6552100482064798.0
12.75746621638438,1.5914428679186142e+16,1.0544468912086443e+17,2.391282585258495e+16,5.800680418638892e+16,2504620575576.2793,15886691257432.537,773730923427275.2,6818508167444150.0
13.112615540712067,1.6111291156838686e+16,1.0696170895536989e+17,2.4208628986114092e+16,5.872435165194499e+16,2606713604102.8945,16534246759107.197,805184801884243.5,7093111398224596.0
13.474867851526309,1.6308515972350344e+16,1.0849037795258472e+17,2.4504976563612576e+16,5.944321980076654e+16,2712042310969.8076,17202324439098.158,837630080581413.6,7376121168523680.0
13.844365208556836,1.6506110600759374e+16,1.1003098540933381e+17,2.480187981698393e+16,6.0163435878809816e+16,2820694047432.106,17891478284928.824,871093338333542.5,7667753602114784.0
14.221252512727972,1.6704081660171454e+16,1.1158382126097973e+17,2.5099348690515544e+16,6.0885024008586184e+16,2932758322285.901,18602275967294.145,905601808638649.1,7968230058778337.0
14.605677562982532,1.690243493346044e+16,1.1314917633680766e+17,2.5397391873485852e+16,6.1608005268260536e+16,3048326845039.623,19335299113902.83,941183392921380.5,8277777242720432.0
14.997791114242183,1.7101175388127268e+16,1.147273426063659e+17,2.569601683000442e+16,6.23323977640355e+16,3167493569676.714,20091143587075.164,977866673974440.4,8596627313067558.0
15.397746936527026,1.7300307194470512e+16,1.1631861341771405e+17,2.5995229826314468e+16,6.305821669638168e+16,3290354739000.2637,20870419765037.34,1015680929596287.9,8925017996446981.0
15.805701875257567,1.749983374220875e+16,1.1792328372844606e+17,2.629503595576975e+16,6.378547442062539e+16,3417008929549.9097,21673752826850.637,1054656146423269.9,9263192701662480.0
16.221815912762718,1.769975765568328e+16,1.1954165033028963e+17,2.659543916167765e+16,6.451418050236106e+16,3547557097080.5444,22501783040910.402,1094823033954200.4,9611400636475424.0
16.64625223101797,1.7900080807758438e+16,1.211740120680087e+17,2.6896442258185916e+16,6.52443417681178e+16,3682102622592.1377,23355166056945.977,1136213038765311.5,9969896926501668.0
17.079177275638333,1.8100804332528284e+16,1.228206700532858e+17,2.7198046949375584e+16,6.5975962351673656e+16,3820751358899.141,24234573201450.336,1178858358913337.5,1.0338942736234634e+16
17.5207608211511,1.830192863692876e+16,1.2448192787420328e+17,2.750025384670894e+16,6.670904373638169e+16,3963611677727.597,25140691776462.895,1222791958524403.0,1.0718805392205248e+16
17.97117603757412,1.850345341134763e+16,1.261580918008973e+17,2.780306248497244e+16,6.74435847938428e+16,4110794517327.2705,26074225361626.703,1268047582566179.8,1.1109758508289274e+16
18.430599558325603,1.870537763931744e+16,1.2784947098791653e+17,2.8106471336840656e+16,6.817958181923503e+16,4262413430585.6504,27035894119436.152,1314659771800713.0,1.1512082113172718e+16
18.899211549492115,1.890769960636981e+16,1.295563776737776e+17,2.8410477826181264e+16,6.8917028563588456e+16,4418584633629.951,28026435103587.965,1362663877915053.0,1.1926062779985874e+16
19.37719578048196,1.9110416908125824e+16,1.3127912737817762e+17,2.8715078340210852e+16,6.965591626327252e+16,4579427054902.602,29046602570343.797,1412096078826780.2,1.2351993758116396e+16
19.864739696091597,1.9313526457689384e+16,1.3301803909729051e+17,2.9020268240604784e+16,7.039623366694595e+16,4745062384695.088,30097168292808.617,1462993394161273.0,1.2790175107211668e+16
20.36203449001343,1.951702449240891e+16,1.347734354975487e+17,2.9326041873656812e+16,7.113796706020198e+16,4915615125124.309,31178921878025.145,1515393700897416.8,1.3240913833380426e+16
20.869275179813698,1.9720906580066708e+16,1.3654564310828368e+17,2.9632392579579388e+16,7.188110028812835e+16,5091212640534.986,32292671086780.18,1569335749178310.5,1.3704524027603534e+16
21.38666068340997,1.9925167624552364e+16,1.383349925135788e+17,2.993931270102829e+16,7.262561477598693e+16,5271985208310.998,33439242156014.477,1624859178283313.2,1.4181327006363504e+16
21.91439389707817,2.012980187107356e+16,1.4014181854366555e+17,3.0246793590932428e+16,7.33714895482064e+16,5458066070077.762,34619480123723.52,1682004532757649.8,1.4671651454501564e+16
22.452681775019734,2.0334802910954204e+16,1.4196646046617616e+17,3.0554825619703524e+16,7.411870124587163e+16,5649591483277.295,35834249156232.97,1740813278695561.5,1.5175833570311724e+16
23.00173541052013,2.054016368606747e+16,1.4380926217754978e+17,3.086339818189697e+16,7.486722414288206e+16,5846700773096.869,37084432877727.875,1801327820172901.2,1.5694217212879648e+16
23.561770118730532,2.074587649294907e+16,1.4567057239487126e+17,3.11724997023925e+16,7.56170301609434e+16,6049536384731.484,38370934701911.375,1863591515824792.8,1.6227154051674908e+16
24.133005521105144,2.0951932986633164e+16,1.4755074484841197e+17,3.148211764215808e+16,7.636808888355123e+16,6258243935959.937,39694678165664.266,1927648695563945.5,1.67750037184041e+16
24.715665631527248,2.1158324184252804e+16,1.494501384751268e+17,3.179223850365975e+16,7.712036756911262e+16,6472972270013.583,41056607264573.86,1993544677434920.5,1.7338133961131968e+16
25.309978944157795,2.136504046844331e+16,1.5136911761334704e+17,3.2102847835975564e+16,7.78738311633522e+16,6693873508716.383,42457686790196.64,2061325784599570.5,1.7916920800677528e+16
25.91617852304095,2.1572071590586932e+16,1.5330805219891133e+17,3.241393023967091e+16,7.862844231113866e+16,6921103105874.282,43898902668915.75,2131039362448709.5,1.8511748689291296e+16
26.53450209350177,2.177940667393461e+16,1.5526731796294605e+17,3.2725469371489532e+16,7.938416136786387e+16,7154819900891.673,45381262302252.766,2202733795834918.0,1.9123010671619836e+16
27.165192135371807,2.1987034216640548e+16,1.5724729663152086e+17,3.3037447948912624e+16,8.014094641050267e+16,7395186172591.898,46905794908488.516,2276458526421241.5,1.9751108547962696e+16
27.808495978079243,2.219494209474229e+16,1.5924837612738266e+17,3.3349847754637544e+16,8.089875324847645e+16,7642367693218.9375,48473551865447.24,2352264070140474.0,2.0396453039827172e+16
28.464665897640828,2.2403117565120676e+16,1.6127095077396752e+17,3.366264964102452e+16,8.165753543444098e+16,7896533782596.512,50085607054294.85,2430202034759507.5,2.1059463957785016e+16
29.133959215593645,2.2611547268469908e+16,1.6331542150188813e+17,3.397583353456007e+16,8.24172442751127e+16,8157857362421.063,51743057204202.68,2510325137543258.0,2.174057037163561e+16
29.816638399905518,2.2820217232310212e+16,1.6538219605808333e+17,3.428937844038345e+16,8.317782884224942e+16,8426515010664.705,53447022237723.03,2592687223012465.5,2.2440210782879284e+16
30.51297116790363,2.302911287407217e+16,1.6747168921781264e+17,3.460326244692138e+16,8.393923598389285e+16,8702687016064.0,55198645616728.03,2677343280789691.5,2.315883329950379e+16
31.223230591261704,2.3238219004283244e+16,1.6958432299967898e+17,3.491746273067592e+16,8.470141033598307e+16,8986557432670.797,56999094688756.95,2764349463527777.0,2.3896895813087508e+16
31.947695203086937,2.3447519829884884e+16,1.7172052688384682e+17,3.523195556120861e+16,8.546429433444834e+16,9278314134441.008,58849561033622.414,2853763104914906.5,2.4654866178221796e+16
32.686649107148675,2.3656998957708284e+16,1.7388073803363312e+17,3.55467163063635e+16,8.622782822787587e+16,9578148869837.57,60751260810124.38,2945642737750551.5,2.5433222394254828e+16
33.44038208929165,2.3866639398137736e+16,1.7606540152063594e+17,3.5861719437771084e+16,8.699195009086205e+16,9886257316424.389,62705435102723.53,3040048112086483.5,2.623245278935933e+16
34.20918973107749,2.4076423568987224e+16,1.7827497055356278e+17,3.6176938536673896e+16,8.775659583814466e+16,10202839135427.676,64713350268028.61,3137040213427099.0,2.7053056206926304e+16
34.993373525699035,2.428633329961884e+16,1.8050990671092186e+17,3.649234630011404e+16,8.852169923961221e+16,10528098026242.887,66776298280953.53,3236681280983449.0,2.789554219428619e+16
35.793240996213015,2.4496349835328028e+16,1.8277068017773626e+17,3.6807914547523144e+16,8.92871919362885e+16,10862241780864.424,68895597080407.16,3339034825975306.5,2.8760431193760176e+16
36.60910581613728,2.4706453842022436e+16,1.8505776998643293e+17,3.7123614227752136e+16,9.0053003457387e+16,11205482338217.922,71072590914381.5,3444165649975914.5,2.9648254736042764e+16
37.44128793246003,2.4916625411219708e+16,1.8737166426206195e+17,3.74394154265813e+16,9.081906123852622e+16,11558035838374.332,73308650684309.89,3552139863294122.5,3.055955563591795e+16
38.29011369110923,2.5126844065389496e+16,1.8971286047200346e+17,3.775528737474672e+16,9.158529064120171e+16,11920122676626.81,75605174288575.39,3663024903388790.0,3.1494888190311576e+16
