t(s),Total solute volume 1,Total retention volume 1,Total 1 volume 1,Total 2 volume 1,Total 3 volume 1,Total 4 volume 1,Total 5 volume 1,Total 6 volume 1
0.1,1360095892163908.8,3176178273173015.0,653029631800972.5,1163052749208134.2,0.0,0.0,0.0,-4.1755110825714755e-98
0.202,2040260590986513.2,4764809359675465.0,979600558825613.0,1744679519242334.2,44578288.962778494,177049710.13393092,7478143055.259401,260990849950.03067
0.30604000000000003,2560434128393525.0,5979973607570056.0,1229354096973043.0,2189493411857016.8,113005668.42536782,448830573.02185524,18984273455.60687,672424236772.3527
0.41216080000000005,3000771047930384.0,7008820281839733.0,1440775275642894.8,2566036915850319.0,200651907.5769061,796947446.2736789,33727952154.429424,1202316864626.4363
0.5204040160000001,3391928772649055.5,7922928728625666.0,1628583799572779.2,2900526009290531.5,305451616.61119074,1213196274.5932925,51360013166.44199,1837268452239.8118
0.6308120963200001,3749253388296369.5,8758128860771084.0,1800147862544445.0,3206083532594694.0,426295849.52251565,1693172263.084932,71693294290.91876,2570264573175.7324
0.7434283382464002,4081681423915630.5,9535285716514454.0,1959758205324341.2,3490351344784860.0,562550275.0857842,2234355832.7564454,94620788371.36478,3397324795143.5083
0.8582969050113283,4394943743776549.0,1.0267780052438922e+16,2110166416639604.0,3758230056910207.0,713856828.3385543,2835324740.9977713,120082092741.39917,4316203838255.0933
0.9754628431115548,4692970015657781.0,1.0964787503225868e+16,2253259267657476.5,4013080029897722.0,880035902.7881626,3495365579.863788,148046891999.61267,5325767719397.146
1.094972099973786,4978591061675082.0,1.1632918403581698e+16,2390395935239622.5,4257321973147703.0,1061032160.4295382,4214258531.28688,178505814296.92514,6425652414295.923
1.2168715419732616,5253924908317398.0,1.2277119106518568e+16,2522593358094341.5,4492767065998133.5,1256881960.7475932,4992147994.801698,211464938188.5782,7616060140552.941
1.3412089728127268,5520604668034349.0,1.2901204013338234e+16,2650635650711985.5,4720811825205629.0,1467692576.8241322,5829460034.179264,246942288519.3316,8897629945155.59
1.4680331522689813,5779920781177487.0,1.3508187657139968e+16,2775142398704667.5,4942559739728370.0,1693628317.4463592,6726847254.813471,284965497161.7276,10271351556708.605
1.597393815314361,6032913885836122.0,1.4100501517019788e+16,2896613248868095.5,5158900686135088.0,1934900930.3631883,7685150685.812022,325570185644.02344,11738505943223.443
1.729341691620648,6280437739109934.0,1.4680140912312232e+16,3015458119888807.5,5370564734218300.0,2191762783.3925543,8705372695.660688,368798816074.2005,13300623143630.22
1.863928525453061,6523203190775213.0,1.5248767661161962e+16,3132018315641774.0,5578159750016902.0,2464501917.3727045,9788657342.79602,414699857568.0538,14959451711244.81
2.001207095962122,6761809736725241.0,1.5807783742915806e+16,3246581675102402.5,5782198377981009.0,2753438401.4066195,10936275898.836338,463327172151.4993,16716936220713.652
2.1412312378813647,6996768680608096.0,1.6358385369384912e+16,3359393693060165.0,5983117847088730.0,3058921619.4330926,12149616070.998707,514739557600.5755,18575200532646.58
2.284055862638992,7228520475125962.0,1.6901603468428576e+16,3470665846283852.5,6181294799840417.0,3381328239.085532,13430173934.527248,569000405242.658,20536535270929.74
2.4297369798917723,7457447933165228.0,1.7438334525753358e+16,3580581936647823.5,6377056589438153.0,3721060691.2377825,14779547893.54078,626177443798.2617,22603388449774.363
2.578331719489608,7683886448499765.0,1.7969364445754614e+16,3689302998449672.5,6570690019773817.0,4078546039.2835965,16199434189.878286,686342548880.5463,24778358502247.004
2.7298983538794,7908132012230280.0,1.849538726674301e+16,3796971147383579.0,6762448200494000.0,4454235151.184589,17691623614.520565,749571603498.4556,27064189172869.418
2.884496320956988,8130447578266794.0,1.901702002226836e+16,3903712636831346.0,6952555990288674.0,4848602110.654187,19257999168.84366,815944398841.894,29463765881433.348
3.0421862473761276,8351068174366128.0,1.9534814674200456e+16,4009640311850535.0,7141214367471806.0,5262143820.191467,20900534487.88544,885544567381.9928,31980113266322.957
3.2030299723236504,8570205047533264.0,2.004926779178402e+16,4114855599526866.5,7328603974821215.0,5695379760.339498,22621292884.124775,958459542284.5458,34616393687729.527
3.3670905717701234,8788049057268848.0,2.0560828475033156e+16,4219450138191160.0,7514888021232413.0,6148851877.999993,24422426903.86127,1034780538559.6471,37375906523376.86
3.5344323832055258,9004773476595597.0,2.1069904895817696e+16,4323507122290268.0,7700214676948719.0,6623124582.860363,26306178313.009666,1114602552419.3743,40262088127794.57
3.7051210308696363,9220536322157712.0,2.1576869739790812e+16,4427102421149334.0,7884719066089574.0,7118784835.634838,28274878447.57099,1198024376097.9502,43278512354826.97
3.879223451487029,9435482306423568.0,2.2082064766327796e+16,4530305516292790.0,8068524936029565.0,7636442315.330398,30330948877.9842,1285148625980.108,46428891564696.72
4.0568079205167695,9649744484088704.0,2.258580465477669e+16,4633180291940000.0,8251746065280199.0,8176729655.4311285,32476902347.21554,1376081782335.2603,49717078053471.18
4.237944078927105,9863445649089436.0,2.308838026870386e+16,4735785705760456.0,8434487458112439.0,8740302740.967203,34715343950.675835,1470934239304.2969,53147065855539.24
4.422702960505647,1.007669952675901e+16,2.3590061442086156e+16,4838176361269697.0,8616846364000150.0,9327841060.052006,37048972532.48074,1569820364058.222,56722992879663.66
4.61115701971576,1.0289611796570812e+16,2.4091099370191188e+16,4940402998884197.0,8798913152194482.0,9940048104.745207,39480582277.62885,1672858564262.5542,60449143347012.164
4.803380160110075,1.0502280973899662e+16,2.459172867151115e+16,5042512919285739.0,8980772065740486.0,10577651817.112396,42013064483.69583,1780171363151.9238,64329950505798.89
4.9994477633122765,1.0714799173768692e+16,2.5092169174367344e+16,5144550350123143.0,9162501874577094.0,11241405077.163218,44649409498.867165,1891885481656.0896,68369999602158.24
5.199436718578522,1.0927252775264004e+16,2.559262747179318e+16,5246556765020953.0,9344176443695126.0,11932086230.006851,47392708815.73687,2008131927129.0862,72574031090906.05
5.403425452950093,1.113972300190646e+16,2.609329828038931e+16,5348571162236283.0,9525865229428178.0,12650499650.09668,50246157312.4219,2129046088323.176,76946944073124.9
5.611493962009095,1.1352286430570312e+16,2.6594365632539596e+16,5450630309008477.0,9707633714642320.0,13397476340.875767,53213055634.28495,2254767836323.1235,81493799950201.62
5.823723841249277,1.15650154393726e+16,2.709600392632139e+16,5552768956606497.0,9889543791737638.0,14173874568.496206,56296812710.994415,2385441631217.3955,86219826286177.05
6.040198318074262,1.1777978603209098e+16,2.759837885336541e+16,5655020030239518.0,1.007165410088143e+16,14980580528.587542,59500948404.85384,2521216634333.7295,91130420872113.0
6.261002284435747,1.1991241044194628e+16,2.8101648221608212e+16,5757414797315763.0,1.0254020329678786e+16,15818509045.3034,62829096287.33526,2662246825909.0713,96231155987742.44
6.486222330124463,1.2204864743108216e+16,2.8605962687179336e+16,5859983016978006.0,1.043669547949719e+16,16688604302.08856,66285006541.60361,2808691128100.1543,101527782856983.66
6.715946776726952,1.2418908816991828e+16,2.911146640744699e+16,5962753073388652.0,1.0619730102848708e+16,17591840603.791,69872548989.54141,2960713533271.317,107026236295009.0
6.950265712261491,1.263342976726992e+16,2.961829762541596e+16,6065752094860466.0,1.0803172515563102e+16,18529223169.900894,73595716242.40459,3118483237522.949,112732639545527.42
7.18927102650672,1.2848481702105676e+16,3.0126589194157224e+16,6169006060617718.0,1.0987068986930668e+16,19501788958.8313,77458626974.77419,3282174779446.1426,118653309307761.0
7.433056447036854,1.3064116536170262e+16,3.0636469048686796e+16,6272539896712317.0,1.1171463910529942e+16,20510607523.275303,81465529321.941,3451968184109.427,124794760953320.78
7.681717575977592,1.3280384170549126e+16,3.1148060631654884e+16,6376377562403130.0,1.13563999580702e+16,21556781896.77567,85620804401.26115,3628049112300.4795,131163713933818.73
7.935351927497144,1.3497332655129356e+16,3.1661483278321588e+16,6480542128123870.0,1.154191821825322e+16,22641449511.734665,89928969958.3917,3810609015061.2095,137767097380611.94
8.194058966047088,1.371500833549275e+16,3.2176852565549068e+16,6585055846011595.0,1.1728058322385302e+16,23765783149.174023,94394684139.63231,3999845293568.325,144612055898573.1
8.45794014536803,1.3933455986068472e+16,3.269428062890789e+16,6689940213838006.0,1.1914858558239444e+16,24930991920.62649,99022749391.89258,4195961464423.7114,151705955556235.84
8.72709894827539,1.4152718931068618e+16,3.321387645145822e+16,6795216033074704.0,1.2102355973470616e+16,26138322282.607933,103818116492.06364,4399167330430.173,159056390075054.66
9.0016409272409,1.4372839154534994e+16,3.3735746127310904e+16,6900903461730698.0,1.2290586469719556e+16,27389059084.178684,108785888707.81921,4609679156938.24,166671187220915.72
9.281673745785717,1.4593857400657502e+16,3.4259993102681524e+16,7007022062518584.0,1.2479584888397498e+16,28684526648.158604,113931326092.08482,4827719853859.087,174558415401346.03
9.567307220701432,1.4815813265380624e+16,3.4786718396815796e+16,7113590846838208.0,1.2669385089021504e+16,30026089886.61216,119259849913.62582,5053519163447.428,182726390472212.47
9.85865336511546,1.5038745280191874e+16,3.5316020804876564e+16,7220628315006272.0,1.2860020020863818e+16,31415155451.268284,124777047226.3897,5287313853966.223,191183682757981.03
10.155826432417769,1.526269098887785e+16,3.584799708463368e+16,7328152493109749.0,1.3051521788588316e+16,32853172919.584393,130488675580.42743,5529347919352.762,199939124289898.8
10.458942961066125,1.5487687017943458e+16,3.638274212858291e+16,7436180966816486.0,1.3243921712467416e+16,34341636017.208466,136400667877.38257,5779872785013.084,209001816266715.1
10.768121820287448,1.571376914130727e+16,3.692034912293405e+16,7544730912437824.0,1.3437250383705084e+16,35882083877.63325,142519137373.70364,6039147519878.475,218381136742823.3
11.083484256693197,1.594097233981893e+16,3.746090969474433e+16,7653819125504913.0,1.3631537715331486e+16,37476102339.87651,148850382834.89362,6307439054864.427,228086748548936.38
11.405153941827061,1.616933085608158e+16,3.8004514048333384e+16,7763462047090897.0,1.38268129890832e+16,39125325285.059555,155400893844.2587,6585022407879.211,238128607450662.5
11.733257020663602,1.6398878245010694e+16,3.855125109199236e+16,7873675788085999.0,1.4023104898637284e+16,40831436012.79452,162177356269.77533,6872180915534.916,248516970550552.62
12.067922161076874,1.6629647420513492e+16,3.910120855588936e+16,7984476151609963.0,1.4220441589528206e+16,42596168658.32506,169186657892.82498,7169206471720.744,259262404939440.0
12.409280604298411,1.6861670698632566e+16,3.965447310198027e+16,8095878653726747.0,1.4418850696040774e+16,44421309651.40322,176435894202.70023,7476399773203.394,270375796603100.72
12.75746621638438,1.7094979837460878e+16,4.02111304266494e+16,8207898542609145.0,1.4618359375342824e+16,46308699217.91784,183932374360.91803,7794070572426.248,281868359590469.2
13.112615540712067,1.7329606074104228e+16,4.077126535673046e+16,8320550816285811.0,1.4818994339092604e+16,48260232925.328224,191683627339.5253,8122537937684.127,293751645449887.6
13.474867851526309,1.756558015893898e+16,4.1334961939494376e+16,8433850239089541.0,1.502078188273344e+16,50277863272.986755,199697408237.69244,8462130520856.785,306037552940053.3
13.844365208556836,1.780293238738769e+16,4.190230352712906e+16,8547811356913883.0,1.5223747912665958e+16,52363601328.4719,207981704781.06598,8813186832889.734,318738338022543.25
14.221252512727972,1.8041692629413816e+16,4.247337285619072e+16,8662448511374545.0,1.5427917971469772e+16,54519518411.08644,216544744008.4474,9176055527216.914,331866624143036.5
14.605677562982532,1.828189035691648e+16,4.304825212245534e+16,8777775852962653.0,1.5633317261329384e+16,56747747823.70876,225394999150.53516,9551095691325.312,345435412808508.56
14.997791114242183,1.8523554669189588e+16,4.362702305156095e+16,8893807353268494.0,1.5839970665804988e+16,59050486634.220566,234541196705.57358,9938677146667.82,359458094467963.4
15.397746936527026,1.8766714316593e+16,4.4209766965796936e+16,9010556816346882.0,1.604790277007432e+16,61429997507.7674,243992323716.91043,10339180757135.797,373948459704387.9
15.805701875257567,1.901139772257063e+16,4.479656484735855e+16,9128037889288918.0,1.6257137879760892e+16,63888610591.14596,253757635257.59277,10752998746309.104,388920710745915.5
16.221815912762718,1.9257633004136988e+16,4.538749739836333e+16,9246264072058148.0,1.6467700038452566e+16,66428725450.641495,263846662127.26645,11180535023706.965,404389473304348.94
16.64625223101797,1.950544799094329e+16,4.598264509789506e+16,9365248726644968.0,1.667961304400532e+16,69052813064.67934,274269218766.7883,11622205520269.318,420369808749404.4
17.079177275638333,1.9754870243023148e+16,4.6582088256318296e+16,9485005085586890.0,1.689290046371839e+16,71763417872.6843,285035411396.1005,12078438533303.094,436877226627310.06
17.5207608211511,2.0005927067310424e+16,4.7185907067088616e+16,9605546259899432.0,1.7107585648458844e+16,74563159881.58296,296155646381.0475,12549675081135.916,453927697532541.56
17.97117603757412,2.0258645533011984e+16,4.779418165626131e+16,9726885246457026.0,1.7323691745807264e+16,77454736831.41464,307640638834.9702,13036369267723.105,471537666341764.6
18.430599558325603,2.0513052485911892e+16,4.840699212988731e+16,9849034934861032.0,1.7541241712289788e+16,80440926421.55415,319501421461.0531,13538988657462.592,489724065819232.06
18.899211549492115,2.0769174561676756e+16,4.902441861946614e+16,9972008113827992.0,1.7760258324755518e+16,83524588599.08847,331749353641.53674,14058014660476.307,508504330603136.3
19.37719578048196,2.1027038198225196e+16,4.9646541325618424e+16,1.0095817477128766e+16,1.7980764190954468e+16,86708667910.92552,344396130780.0636,14593942928624.393,527896411582639.06
19.864739696091597,2.1286669647220484e+16,5.027344056011952e+16,1.0220475629106508e+16,1.8202781759364612e+16,89996195921.24399,357453793903.56757,15147283762524.04,547918790675532.25
20.36203449001343,2.154809498473834e+16,5.0905196786431816e+16,1.0345995089798718e+16,1.842633332831503e+16,93390293695.94261,370934739530.2625,15718562529850.926,568590496016726.1
20.869275179813698,2.1811340121160276e+16,5.154189065885952e+16,1.0472388299687124e+16,1.8651441054444788e+16,96894174355.77519,384851729810.4682,16308320095208.777,589931117567971.9
21.38666068340997,2.2076430810334964e+16,5.218360306043999e+16,1.0599667624096692e+16,1.8878126960538356e+16,100511145699.8996,399217902947.0937,16917113261857.566,611960823159518.2
21.91439389707817,2.2343392658050716e+16,5.283041513968092e+16,1.072784535726344e+16,1.9106412942769676e+16,104244612901.60962,414046783902.83905,17545515225598.285,634700374974582.6
22.452681775019734,2.2612251129855244e+16,5.348240834623922e+16,1.0856933726088954e+16,1.933632077738947e+16,108098081278.05383,429352295401.262,18194116041118.965,658171146487793.6
23.00173541052013,2.288303155825743e+16,5.413966446563744e+16,1.0986944893598054e+16,1.9567872126883492e+16,112075159135.78853,445148769229.0624,18863523101112.324,682395139869025.4
23.561770118730532,2.3155759149343044e+16,5.4802265653100104e+16,1.1117890962115702e+16,1.980108854563014e+16,116179560694.04689,461450957847.0385,19554361628483.47,707395003864258.8
24.133005521105144,2.3430458988833456e+16,5.547029446659272e+16,1.1249783976175556e+16,2.0035991485080984e+16,120415109087.6567,478274046317.4059,20267275181971.562,733194052165381.5
24.715665631527248,2.370715604761367e+16,5.614383389913659e+16,1.1382635925174242e+16,2.0272602298488116e+16,124785739451.56514,495633664555.2614,21002926175517.18,759816282281080.1
25.309978944157795,2.3985875186754156e+16,5.682296741047052e+16,1.1516458745782728e+16,2.051094224519858e+16,129295502088.98186,513545899912.16205,21761996411713.453,787286394921238.9
25.91617852304095,2.4266641162050076e+16,5.750777895812415e+16,1.165126432412549e+16,2.075103249453559e+16,133948565725.1892,532027310099.98083,22545187629686.414,815629813907543.1
26.53450209350177,2.4549478628096372e+16,5.8198353027965976e+16,1.1787064497737398e+16,2.0992894129283972e+16,138749220849.1046,551094936463.3032,23353222067756.31,844872706623192.5
27.165192135371807,2.4834412141920884e+16,5.889477466428155e+16,1.1923871057307808e+16,2.123654814879588e+16,143701883144.7354,570766317608.8666,24186843041239.766,875042005014956.5
27.808495978079243,2.5121466166189564e+16,5.959712949943913e+16,1.2061695748219676e+16,2.148201547173271e+16,148811097014.68802,591059503400.6396,25046815535758.34,906165427161002.9
28.464665897640828,2.5410665072002452e+16,6.0305503783193256e+16,1.2200550271892034e+16,2.172931693845554e+16,154081539197.9566,611993069329.3839,25933926816428.293,938271499418284.5
29.133959215593645,2.5702033141293856e+16,6.1019984411674024e+16,1.2340446286932268e+16,2.1978473313077376e+16,159518022484.24518,633586131265.6239,26848987053310.176,971389579163443.5
29.816638399905518,2.59955945688505e+16,6.174065895611004e+16,1.2481395410105138e+16,2.22295052851892e+16,165125499527.1266,655858360605.1946,27792829963508.527,1005549878141516.4
30.51297116790363,2.629137346395982e+16,6.2467615691327864e+16,1.2623409217124322e+16,2.248243347126975e+16,170909066758.3733,678829999816.6606,28766313470314.24,1040783486437016.9
31.223230591261704,2.6589393851700736e+16,6.320094362406986e+16,1.2766499243271902e+16,2.27372784157885e+16,176873968405.8618,702521878400.0934,29770320379794.227,1077122397082164.0
31.947695203086937,2.688967967388527e+16,6.394073252117039e+16,1.2910676983850726e+16,2.2994060592011756e+16,183025600617.46378,726955429266.8402,30805759075235.773,1114599531317388.9
32.686649107148675,2.7192254789663184e+16,6.46870729376273e+16,1.3055953894474516e+16,2.3252800402518976e+16,189369515693.40305,752152705550.1234,31873564229864.402,1153248764519472.8
33.44038208929165,2.749714297579551e+16,6.54400562446076e+16,1.3202341391199408e+16,2.351351817943712e+16,195911426429.59732,778136397856.4401,32974697538257.19,1193104952812944.8
34.20918973107749,2.7804367926607292e+16,6.619977465741878e+16,1.3349850850501076e+16,2.377623418440027e+16,202657210574.53278,804929851967.9347,34110148466884.5,1234203960380661.8
34.993373525699035,2.8113953253625376e+16,6.696632126348202e+16,1.3498493609100836e+16,2.404096860823936e+16,209612915402.27747,832557087006.0603,35280935024217.7,1276582687489778.0
35.793240996213015,2.8425922484907736e+16,6.7739790050337576e+16,1.3648280963643776e+16,2.4307741570409284e+16,216784762404.2749,861042814067.0289,36488104550848.32,1320279099249523.8
36.60910581613728,2.8740299064071388e+16,6.852027593371564e+16,1.3799224170231836e+16,2.457657311815736e+16,224179152102.60535,890412455339.7284,37732734530072.25,1365332255117561.2
37.44128793246003,2.905710634902294e+16,6.930787478569926e+16,1.3951334443814532e+16,2.484748322543779e+16,231802668987.43372,920692163716.9023,39015933419397.83,1411782339171932.8
38.29011369110923,2.9376367610397696e+16,7.0102683463012664e+16,1.4104622957439264e+16,2.512049179157704e+16,239662086581.41876,951908842910.6321,40338841503445.27,1459670691165823.0
39.15591596493141,2.969810602971113e+16,7.090479983546021e+16,1.4259100841363974e+16,2.5395618639692972e+16,247764372633.8912,984090168083.2366,41702631768711.1,1509039838382723.2
40.03903428423004,3.002234469722695e+16,7.1714322814543896e+16,1.4414779182033364e+16,2.5672883514871548e+16,256116694447.65033,1017264607004.9377,43108510800678.47,1559933528309798.8
40.93981496991464,3.034910660954476e+16,7.253135238228774e+16,1.4571669020920762e+16,2.5952306082104864e+16,264726424341.26822,1051461441749.7572,44557719703759.875,1612396762147522.8
