t(s),Total solute volume 1,Total retention volume 1,Total 1 volume 1,Total 2 volume 1,Total 3 volume 1,Total 4 volume 1,Total 5 volume 1,Total 6 volume 1
0.1,1389665646485961.5,7115728075414663.0,1732020487244934.5,3994041941683769.0,0.0,0.0,0.0,0.004426733051481951
0.202,1258120917927395.0,1.371074077176831e+16,1568069733512265.8,3615986709573692.5,2402747401574.9995,14129654661713.596,718377705676300.6,6533653303015366.0
0.30604000000000003,1130540591494916.5,2.097564780815934e+16,1409058815140400.2,3249304357939826.5,4361391550708.9434,25661367438991.594,1354058360736605.5,1.3802662923857892e+16
0.41216080000000005,1072254496086865.6,2.861679467884712e+16,1336413345254093.0,3081781608796160.5,6266957557707.232,36877717813145.96,1963175773293304.8,2.1120024780045836e+16
0.5204040160000001,1044635376098519.6,3.651721975704163e+16,1301989974151196.8,3002400241909337.0,8222497214893.205,48387802634971.95,2584222731913950.5,2.8527361133118744e+16
0.6308120963200001,1029577354943819.2,4.4630748711275096e+16,1283222258479215.5,2959121336619217.0,10232059110499.955,60216114762661.67,3222024787352546.0,3.606635480000711e+16
0.7434283382464002,1020334852739798.9,5.293835895172293e+16,1271702773771324.0,2932557074477425.0,12291273507248.238,72336993531244.22,3875672043747628.0,4.3753463939948264e+16
0.8582969050113283,1014158126100529.0,6.143220448844136e+16,1264004349059413.0,2914804287415276.0,14397575418584.707,84735351410941.38,4544334481630859.0,5.159577031740574e+16
0.9754628431115548,1009771423494995.6,7.0109521604608184e+16,1258536938572427.8,2902196282186674.5,16549899360691.068,97404932773064.38,5227651035924861.0,5.959741109229548e+16
1.094972099973786,1006511932939559.9,7.897010653139264e+16,1254474439996476.5,2892828043246849.5,18747972308747.348,110344149762361.28,5925529423475848.0,6.776167056966279e+16
1.2168715419732616,1004004840859616.4,8.80151607323593e+16,1251349700719932.0,2885622303595862.5,20991968893216.227,123554050857612.47,6638025302610723.0,7.609161256482237e+16
1.3412089728127268,1002023476456753.6,9.724672033162765e+16,1248880207351222.0,2879927579495547.0,23282326775912.71,137037233701349.72,7365278985040254.0,8.459029052280666e+16
1.4680331522689813,1000423165596739.0,1.0666735544273141e+17,1246885643852039.2,2875328057144318.5,25619646971167.926,150797258335326.5,8107482537672743.0,9.32608191331591e+16
1.597393815314361,999107413479504.4,1.1628000270858632e+17,1245245742973015.0,2871546396907020.0,28004638145660.824,164838319407337.06,8864861941148069.0,1.0210639825652574e+17
1.729341691620648,998009472744669.5,1.2608786747298478e+17,1243877313480029.5,2868390757464291.0,30438084488120.523,179165057127567.28,9637666985671600.0,1.1113031980200846e+17
1.863928525453061,997081744367663.9,1.3609436424015853e+17,1242721029856548.0,2865724332503122.0,32920826645605.094,193782445130168.1,1.0426165334558716e+16,1.2033596852709664e+17
2.001207095962122,996289398581255.5,1.463030791664365e+17,1241733481676247.2,2863447016351547.5,35453750116378.38,208695722217599.5,1.1230638924732738e+16,1.2972682087276077e+17
2.1412312378813647,995606382285246.5,1.5671774576224003e+17,1240882197398677.8,2861483928714276.5,38037778013664.02,223910349827308.75,1.2051381723473066e+16,1.3930644340252779e+17
2.284055862638992,995012833981550.9,1.6734222881623744e+17,1240142422448057.0,2859777984833189.5,40673866460700.28,239431984983946.94,1.288869829767379e+16,1.4907849142585626e+17
2.4297369798917723,994493359930548.0,1.781805136133034e+17,1239494970683694.5,2858284940918430.5,43363001613620.766,255266462832451.44,1.3742902885174658e+16,1.5904670799215005e+17
2.578331719489608,994035854566390.5,1.8923669866719264e+17,1238924754212934.0,2856970003856005.5,46106197719897.49,271419785267147.75,1.4614318786034382e+16,1.6921492328553587e+17
2.7298983538794,993630674813947.6,2.0051499085273696e+17,1238419754292894.0,2855805458078374.0,48904495854521.72,287898113551508.9,1.5503277964014004e+16,1.7958705439213165e+17
2.884496320956988,993270050417620.5,2.120197022183926e+17,1237970286387938.0,2854768970766314.5,51758963112512.29,304707763625875.06,1.641012079038618e+16,1.9016710539369606e+17
3.0421862473761276,992947655240671.5,2.2375524800328774e+17,1237568465854345.8,2853842359702701.0,54670692117402.58,321855203277384.4,1.7335195886960134e+16,2.0095916774013507e+17
3.2030299723236504,992658290579854.9,2.3572614553653818e+17,1237207813236350.5,2853010683074012.5,57640800754573.15,339347050635950.3,1.827886004023027e+16,2.119674208580272e+17
3.3670905717701234,992397647845235.2,2.479370137960388e+17,1236882958479778.0,2852261557378610.5,60670432068837.78,357190073639826.2,1.9241478167881972e+16,2.231961329587445e+17
3.5344323832055258,992162128392084.9,2.6039257346979034e+17,1236589416377741.2,2851584639598107.5,63760754285071.95,375391190228332.6,2.022342332481791e+16,2.346496620160912e+17
3.7051210308696363,991948705118141.2,2.7309764740734474e+17,1236323414071005.5,2850971229408331.5,66912960923241.16,393957469093287.6,2.1225076739728212e+16,2.4633245688900256e+17
3.879223451487029,991754814992688.0,2.8605716137963325e+17,1236081757100532.8,2850413960292650.0,70128270987518.984,412896130869729.25,2.2246827875798704e+16,2.5824905856959142e+17
4.0568079205167695,991578274775438.9,2.9927614508695814e+17,1235861724362885.5,2849906557306128.5,73407929214826.81,432214549679698.2,2.328907451090162e+16,2.7040410154071757e+17
4.237944078927105,991417214316827.8,3.1275973337025043e+17,1235660984978369.0,2849443645371104.0,76753206372022.77,451920254965813.06,2.4352222833829516e+16,2.82802315230417e+17
4.422702960505647,991270023325870.0,3.2651316759176954e+17,1235477531944629.0,2849020596280466.5,80165399593712.62,472020933567510.4,2.5436687553995544e+16,2.954485255530622e+17
4.61115701971576,991135308553210.5,3.405417971595336e+17,1235309628771317.8,2848633405635667.0,83645832754623.53,492524432004418.94,2.6542892022645012e+16,3.0834765652916934e+17
4.803380160110075,991011859100296.0,3.5485108117578106e+17,1235155766242831.8,2848278593140343.5,87195856871915.19,513438758939783.06,2.767126836408017e+16,3.215047319774053e+17
4.9994477633122765,990898618121135.1,3.6944659019427117e+17,1235014627148522.2,2847953121267174.5,90816850533865.34,534772087803112.2,2.8822257615740068e+16,3.3492487727365715e+17
5.199436718578522,990794659591642.1,3.8433400807464954e+17,1234885057328928.8,2847654328489662.5,94510220352165.36,556532759555930.25,2.9996309876234652e+16,3.4861332117309645e+17
5.403425452950093,990699169125198.0,3.995191339247085e+17,1234766041765072.2,2847379874143332.5,98277401435667.16,578729285588090.1,3.1193884460628308e+16,3.625753976920228e+17
5.611493962009095,990611428040745.1,4.1500788412341005e+17,1234656684721551.8,2847127692635163.5,102119857883890.25,601370350734856.8,3.241545006242101e+16,3.7681654804697254e+17
5.823723841249277,990530800062033.8,4.308062944190813e+17,1234556193169031.5,2846895955215337.0,106039083298962.64,624464816407131.5,3.3661484921794236e+16,3.913423226491345e+17
6.040198318074262,990456720158113.0,4.469205220984583e+17,1234463862875466.0,2846683037903210.5,110036601314953.33,648021723828866.5,3.4932476999782016e+16,4.06158383152596e+17
6.261002284435747,990388685136208.1,4.633568482232053e+17,1234379066681442.0,2846487494449916.0,114113966143781.97,672050297377065.2,3.622892415810414e+16,4.212705045553129e+17
6.486222330124463,990326245676410.4,4.8012167993132576e+17,1234301244572533.0,2846308033444911.0,118272763137073.36,696559948020847.5,3.755133434445737e+16,4.3668457735201696e+17
6.715946776726952,990268999558663.6,4.972215528015123e+17,1234229895237688.8,2846143498849393.0,122514609363470.4,721560276856918.8,3.890022578311021e+16,4.524066097385361e+17
6.950265712261491,990216585880440.9,5.146631332789769e+17,1234164568862376.0,2845992853377037.0,126841154201036.72,747061078739502.1,4.027612717068707e+16,4.684427298672296e+17
7.18927102650672,990168680101343.6,5.324532211617247e+17,1234104860952365.2,2845855164251517.5,131254079944482.5,773072346003373.1,4.167957787705971e+16,4.8479918815341203e+17
7.433056447036854,990124989780939.2,5.505987521465673e+17,1234050407021543.2,2845729590956400.5,135755102427020.3,799604272279114.1,4.311112815129165e+16,5.0148235963281043e+17
7.681717575977592,990085250900165.0,5.691068004344552e+17,1234000878007055.2,2845615374662351.0,140345971656733.27,826667256400115.4,4.4571339332604984e+16,5.184987463702237e+17
7.935351927497144,990049224675900.0,5.879845813949388e+17,1233955976299122.5,2845511829071766.0,145028472467384.72,854271906401195.4,4.606078406635601e+16,5.3585497991966726e+17
8.194058966047088,990016694793916.6,6.072394542897636e+17,1233915432292289.8,2845418332465857.0,149804425183653.84,882429043608975.6,4.7580046525024904e+16,5.53557823836394e+17
8.45794014536803,989987464997992.6,6.268789250557692e+17,1233879001380603.2,2845334320775436.0,154675686300816.34,911149706824428.4,4.912972263423717e+16,5.716141762412529e+17
8.72709894827539,989961356983325.5,6.469106491474026e+17,1233846461332044.2,2845259281526277.0,159644149178923.84,940445156598187.9,5.071042030384685e+16,5.900310724379375e+17
9.0016409272409,989938208550747.2,6.673424344392746e+17,1233817609988007.0,2845192748534052.5,164711744751569.1,970326879599432.5,5.232275966412205e+16,6.088156875837288e+17
9.281673745785717,989917871985192.6,6.881822441892955e+17,1233792263242302.2,2845134297243847.0,169880442249343.3,1000806593079283.4,5.39673733070829e+16,6.279753394144123e+17
9.567307220701432,989900212627589.5,7.094382000630094e+17,1233770253261199.5,2845083540625534.0,175152249938118.6,1031896249429822.6,5.5644906533049224e+16,6.475174910240778e+17
9.85865336511546,989885107614037.2,7.311185852198378e+17,1233751426912008.0,2845040125550014.0,180529215872305.66,1063608040839951.5,5.735601760246319e+16,6.674497537005866e+17
10.155826432417769,989872444760116.6,7.532318474619963e+17,1233735644372512.8,2845003729582554.5,186013428663255.7,1095954404049426.2,5.91013779930586e+16,6.877798898175094e+17
10.458942961066125,989862121571411.5,7.75786602446927e+17,1233722777897728.5,2844974058138884.5,191607018262986.8,1128948025202513.8,6.0881672662453896e+16,7.085158157833998e+17
10.768121820287448,989854044364107.6,7.987916369641418e+17,1233712710723859.2,2844950841957672.0,197312156763436.6,1162601844802810.2,6.269760031625173e+16,7.296656050492782e+17
11.083484256693197,989848127481822.2,8.222559122774089e+17,1233705336092173.2,2844933834849576.0,203131059211443.25,1196929062770831.0,6.4549873681733064e+16,7.512374911752699e+17
11.405153941827061,989844292596764.8,8.461885675332861e+17,1233700556378008.0,2844922811688690.0,209065984439681.84,1231943143606097.5,6.643921978723782e+16,7.732398709573394e+17
11.733257020663602,989842468084979.1,8.705989232370321e+17,1233698282312088.2,2844917566616887.5,215119235913782.9,1267657821655488.0,6.836638024732882e+16,7.9568130761512e+17
12.067922161076874,989842588466811.1,8.954964847969599e+17,1233698432283156.8,2844917911435652.5,221293162595871.84,1304087106489721.8,7.03321115538402e+16,8.185705340418482e+17
12.409280604298411,989844593904929.2,9.208909461383633e+17,1233700931712317.5,2844923674163309.0,227590159824783.78,1341245288389880.0,7.233718537291456e+16,8.419164561174529e+17
12.75746621638438,989848429753229.5,9.4679219338815e+17,1233705712490815.5,2844934697738524.5,234012670213203.9,1379146943945996.2,7.438238884813744e+16,8.657281560858706e+17
13.112615540712067,989854046150838.5,9.732103086313709e+17,1233712712474014.0,2844950838853397.5,240563184562002.88,1417806941769719.5,7.646852490988157e+16,8.900148959976788e+17
13.474867851526309,989861397656147.2,1.0001555737408586e+18,1233721875025272.5,2844971966901630.5,247244242792036.8,1457240448323215.0,7.859641259097645e+16,9.147861212191839e+17
13.844365208556836,989870442916461.2,1.027638474281225e+18,1233733148604210.5,2844997963029057.0,254058434893692.6,1497462933866463.2,8.07668873488213e+16,9.40051464009094e+17
14.221252512727972,989881144369393.8,1.055669703488491e+18,1233746486394534.5,2845028719275386.5,261008401894463.3,1538490178525202.0,8.298080139406688e+16,9.658207471639653e+17
14.605677562982532,989893467972598.0,1.0842601663266552e+18,1233761845967189.2,2845064137797436.5,268096836844845.2,1580338278481812.8,8.523902402598782e+16,9.921039877336033e+17
14.997791114242183,989907382958853.1,1.1134209836225445e+18,1233779188975104.8,2845104130165202.0,275326485822855.88,1623023652291514.2,8.75424419746787e+16,1.0189114008076524e+18
15.397746936527026,989922861613870.6,1.1431634962802972e+18,1233798480876263.8,2845148616723241.0,282700148957476.1,1666563047326293.0,8.989195975020373e+16,1.0462534033745966e+18
15.805701875257567,989939879074486.5,1.1734992695768876e+18,1233819690682176.8,2845197526010648.0,290220681471327.06,1710973546349026.8,9.228849999883787e+16,1.0741406182544631e+18
16.221815912762718,989958413145191.0,1.2044400975400934e+18,1233842790729210.5,2845250794233734.5,297890994742896.8,1756272574220361.0,9.473300386653637e+16,1.1025838781064852e+18
16.64625223101797,989978444131166.4,1.2359980074103588e+18,1233867756470499.2,2845308364786163.5,305714057388636.44,1802477904740934.5,9.72264313697776e+16,1.1315942295130643e+18
17.079177275638333,989999954686219.8,1.268185264188049e+18,1233894566286401.0,2845370187811867.0,313692896365257.44,1849607667631594.0,9.976976177392318e+16,1.1611829371413437e+18
17.5207608211511,990022929674167.9,1.301014375267541e+18,1233923201311747.2,2845436219806666.0,321830598092553.1,1897680355654340.2,1.0236399397924589e+17,1.1913614879837558e+18
17.97117603757412,990047356042392.6,1.3344980951597486e+18,1233953645278242.2,2845506423254837.0,330130309597086.75,1946714831876762.2,1.0501014691477677e+17,1.2221415956789217e+18
18.430599558325603,990073222706436.4,1.3686494303045678e+18,1233985884370621.8,2845580766297429.5,338595239677089.6,1996730337082821.8,1.0770925994012939e+17,1.2535352049143048e+18
18.899211549492115,990100520444596.6,1.4034816439748782e+18,1234019907095287.2,2845659222429309.5,347228660088909.25,2047746497332859.8,1.1046239325545835e+17,1.2855544959120287e+18
19.37719578048196,990129241801630.0,1.4390082612736576e+18,1234055704160283.2,2845741770222393.0,356033906755365.3,2099783331675823.8,1.1327062831971754e+17,1.318211888999324e+18
19.864739696091597,990159381000726.6,1.4752430742258808e+18,1234093268365590.5,2845828393072659.0,365014380996366.75,2152861260016720.5,1.161350682773833e+17,1.3515200492650463e+18
20.36203449001343,990190933863045.8,1.5122001469668444e+18,1234132594502828.0,2845919078968858.5,374173550782152.75,2207001111142394.0,1.190568383938132e+17,1.3854918913037714e+18
20.869275179813698,990223897734130.4,1.549893821028589e+18,1234173679263549.0,2846013820281034.0,383514952009519.2,2262224130908792.0,1.2203708649941506e+17,1.4201405840489772e+18
21.38666068340997,990258271416622.0,1.588338720726168e+18,1234216521155375.0,2846112613567137.5,393042189801408.94,2318551990592946.5,1.2507698344280272e+17,1.455479555696832e+18
21.91439389707817,990294055108748.0,1.627549758645457e+18,1234261120425328.8,2846215459396222.0,402758939830232.5,2376006795412950.5,1.2817772355312198e+17,1.4915224987221617e+18
22.452681775019734,990331250348082.9,1.6675421412342976e+18,1234307478989742.2,2846322362186807.0,412668949665302.44,2434611093219308.0,1.3134052511173026e+17,1.5282833749881574e+18
23.00173541052013,990369859960168.8,1.7083313744987538e+18,1234355600370217.5,2846433330059210.5,422776040144766.25,2494387883361094.0,1.3456663083342118e+17,1.5657764209514365e+18
23.561770118730532,990409888011590.4,1.7499332698063048e+18,1234405489635142.8,2846548374700669.5,433084106772421.75,2555360625730395.0,1.378573083573864e+17,1.6040161529640684e+18
24.133005521105144,990451339767155.8,1.7923639497978079e+18,1234457153346324.0,2846667511242284.5,443597121139810.4,2617553249988664.5,1.4121385074811282e+17,1.643017372674212e+18
24.715665631527248,990494221650864.5,1.83563985441011e+18,1234510599510334.5,2846790758146822.0,454319132373982.06,2680990164978590.5,1.4463757700641696e+17,1.6827951725270323e+18
25.309978944157795,990538541210363.5,1.8797777470111944e+18,1234565837534216.5,2846918137106563.0,465254268611335.2,2745696268325233.5,1.481298325908231e+17,1.7233649413675837e+18
25.91617852304095,990584307084635.6,1.9247947206498056e+18,1234622878185210.5,2847049672950435.5,476406738497930.44,2811696956230228.0,1.516919899494937e+17,1.7647423701473633e+18
26.53450209350177,990631528974677.6,1.9707082044214733e+18,1234681733554207.5,2847185393559738.5,487780832716694.1,2879018133462943.0,1.5532544906293085e+17,1.806943457736275e+18
27.165192135371807,990680217616951.9,2.0175359699529336e+18,1234742417022660.5,2847325329791828.5,499380925541911.9,2947686223552548.5,1.590316379976637e+17,1.8499845168417444e+18
27.808495978079243,990730384759408.8,2.065296138006937e+18,1234804943232702.0,2847469515411221.5,511211476421440.0,3017728179185038.0,1.628120134711492e+17,1.8938821800367782e+18
28.464665897640828,990782043139907.1,2.1140071852094807e+18,1234869328060241.2,2847617987027548.0,523277031587041.4,3089171492809349.0,1.6666806142811392e+17,1.9386534058987433e+18
29.133959215593645,990835206466860.9,2.1636879509015158e+18,1234935588590852.8,2847770784039951.0,535582225693277.94,3162044207456762.5,1.706012976285704e+17,1.9843154852606976e+18
29.816638399905518,990889889401968.2,2.2143576441172006e+18,1235003743098243.5,2847927948587430.5,548131783485375.0,3236374927777929.5,1.746132682477468e+17,2.0308860475771028e+18
30.51297116790363,990946107544884.5,2.2660358506908303e+18,1235073811025152.8,2848089525504796.0,560930521496495.6,3312192831301855.5,1.787055504881746e+17,2.0783830674057825e+18
31.223230591261704,991003877419713.9,2.3187425404945546e+18,1235145812966515.0,2848255562283843.0,573983349774848.0,3389527679921381.5,1.8287975320418038e+17,2.1268248710080077e+18
31.947695203086937,991063216463206.5,2.372498074809047e+18,1235219770654748.0,2848426109039429.0,587295273641062.0,3468409831609672.0,1.871375175390393e+17,2.1762301430685972e+18
32.686649107148675,991124143014557.2,2.427323213829319e+18,1235295706947042.5,2848601218480150.5,600871395476271.5,3548870252372429.0,1.914805175750467e+17,2.2266179335379817e+18
33.44038208929165,991186676306711.4,2.4832391243078907e+18,1235373645814519.5,2848780945883355.0,614716916541341.9,3630940528440544.0,1.9591046099677392e+17,2.2780076645981297e+18
34.20918973107749,991250836459089.8,2.5402673873375237e+18,1235453612333169.8,2848965349074234.0,628837138827681.5,3714652878708096.5,2.0042908976778003e+17,2.330419137754341e+18
34.993373525699035,991316644471654.1,2.5984300062758205e+18,1235535632676453.2,2849154488408761.0,643237466940077.2,3800040167420598.0,2.050381808210521e+17,2.3838725410548516e+18
35.793240996213015,991384122220244.1,2.6577494148139484e+18,1235619734109488.0,2849348426760296.0,657923410012005.1,3887135917118598.5,2.097395467634611e+17,2.4383884564402647e+18
36.60910581613728,991453292453108.4,2.718248485191785e+18,1235705944984727.0,2849547229509608.5,672900583653855.0,3975974321841779.5,2.1453503659451648e+17,2.493987867224826e+18
37.44128793246003,991524178788587.6,2.779950536561871e+18,1235794294739069.2,2849750964538217.0,688174711934519.9,4066590260598821.0,2.1942653643971744e+17,2.550692165711555e+18
38.29011369110923,991596805713870.4,2.842879343504458e+18,1235884813892312.8,2849959702224821.5,703751629396793.8,4159019311108421.0,2.244159702987983e+17,2.6085231609433236e+18
39.15591596493141,991671198584793.0,2.907059144696081e+18,1235977534046900.0,2850173515444717.5,719637283107031.4,4253297763816937.5,2.2950530080917734e+17,2.667503086591904e+18
40.03903428423004,991747383626628.1,2.9725146517340396e+18,1236072487888902.5,2850392479572066.5,735837734739511.5,4349462636198285.5,2.3469653002491968e+17,2.727654608987095e+18
