t(s),Total solute volume 1,Total retention volume 1,Total 1 volume 1,Total 2 volume 1,Total 3 volume 1,Total 4 volume 1,Total 5 volume 1,Total 6 volume 1
0.1,1012905215437994.5,1251976985692815.0,109237715628389.53,129834054626431.92,0.0,0.0,0.0,0.0
0.202,1525622215570211.8,1885966882396608.5,164532163296675.62,195554053500916.2,285222629.56908506,608236947.8201321,10314888442.193697,247241680784.7348
0.30604000000000003,1916107905662210.0,2369014548384357.0,206644460021518.53,245606457846991.06,723603318.8431171,1543083883.7430801,26168860987.125214,627289305448.6555
0.41216080000000005,2246336494721198.2,2777694563287577.0,242258272952448.12,287935114794348.8,1285210600.2973733,2740711776.068027,46479354309.346,1114175542898.2632
0.5204040160000001,2539537732461061.5,3140707443448852.5,273878836330131.6,325517610703075.1,1956746471.7990751,4172762641.9276953,70765433983.3147,1696369011488.7422
0.6308120963200001,2807287648298739.5,3472354985762380.0,302754577945347.44,359837759519881.8,2731067966.3718076,5824004131.240587,98768770852.96916,2367676155459.516
0.7434283382464002,3056314806661499.0,3780950159499975.0,329611146161947.25,391758027752256.4,3604081765.178029,7685707275.241745,130341328630.14899,3124547806601.899
0.8582969050113283,3290929656769951.5,4071818688684284.5,354913405432844.25,421830928214957.56,4573468185.175071,9752925387.279305,165399215523.81674,3964972657435.052
0.9754628431115548,3514085872758912.5,4348610325967460.0,378979897524735.3,450435062469699.9,5638052426.369492,12023153246.779163,203899944931.62216,4887932063511.004
1.094972099973786,3727910136596622.0,4613953362357189.0,402039976455777.75,477843028330813.0,6797456330.930168,14495584475.34122,245829841113.0753,5893098092062.364
1.2168715419732616,3933992998939667.0,4869813949052074.0,424265176658259.44,504258702371593.8,8051889095.685048,17170665231.140907,291196470212.91815,6980652058011.836
1.3412089728127268,4133560435345366.0,5117708024300620.0,445787714619799.56,529839229977130.06,9402013715.963245,20049809400.51655,340023810153.00214,8151168725057.321
1.4680331522689813,4327580868561726.5,5358833514870931.0,466712030802931.06,554708743447359.5,10848857787.575993,23135208383.333557,392349024758.19305,9405538967986.197
1.597393815314361,4516835012805253.0,5594156609454880.0,487122322066961.2,578967314627404.9,12393751800.717344,26429699504.893974,448220232139.3873,10744916271826.707
1.729341691620648,4701963178435952.0,5824470188705620.0,507087643285186.2,602697018414609.4,14038285268.210627,29936672459.606026,507694918062.5173,12170678694083.68
1.863928525453061,4883498322489512.0,6050434647675719.0,526665471710607.2,625966169171361.1,15784274868.511389,33660001376.136177,570838783835.4485,13684401244158.105
2.001207095962122,5061889758735115.0,6272607180762090.0,545904264009452.44,648832359877202.5,17633740945.402103,37603994703.21865,637724896417.4194,15287835508243.777
2.1412312378813647,5237520558536825.0,6491463273735595.0,564845332873430.1,671344692568942.8,19588889981.898167,41773357835.481804,708433054587.6954,16982894453998.861
2.284055862638992,5410720576829043.0,6707412792263938.0,583524251818325.2,693545448008461.8,21652101448.972717,46173165068.58778,783049313330.9121,18771641028266.64
2.4297369798917723,5581776374233959.0,6920812236951809.0,601971925244075.1,715471357498427.5,23825917927.008236,50808838533.47404,861665626581.6115,20656279592302.586
2.578331719489608,5750938892219261.0,7131974223342977.0,620215416169387.8,737154586682984.9,26113037723.10485,55686132453.02074,944379580232.2115,22639149520940.137
2.7298983538794,5918429472241421.0,7341174916801592.0,638278595371908.2,758623507080764.4,28516309425.599625,60811121529.836006,1031294195200.9199,24722720481341.43
2.884496320956988,6084444634713626.0,7548659935889697.0,656182656780512.6,779903308652337.4,31038727986.957523,66190192593.30423,1122517785773.7383,26909589036858.76
3.0421862473761276,6249159915752072.0,7754649092244415.0,673946531252824.2,801016491593874.6,33683432031.12381,71830038857.81589,1218163862229.6335,29202476312514.65
3.2030299723236504,6412732978693392.0,7959340234955573.0,691587222139735.4,821983265171011.8,36453702156.28151,77737656303.71233,1318351069465.0188,31604226523504.234
3.3670905717701234,6575306160760849.0,8162912397516433.0,709120079933020.5,842821874150212.1,39352960058.23287,83920341808.22635,1423203155296.4912,34117806215183.266
3.5344323832055258,6737008575015905.0,8365528395717103.0,726559028952284.9,863548868226619.2,42384768339.56566,90385692738.87903,1532848963565.5122,36746304097636.695
3.7051210308696363,6897957858698218.0,8567336988991313.0,743916755896329.8,884179326126064.6,45552830899.57172,97141607785.34653,1647422448246.3118,39492931383760.43
3.879223451487029,7058261637823203.0,8768474691501770.0,761204867794057.0,904727043336966.9,48860993822.388626,104196288853.80519,1767062705572.4807,42361022559307.19
4.0568079205167695,7218018762179249.0,8969067299825979.0,778434025193914.8,925204690412141.1,52313246698.04059,111558243884.45615,1891914021819.8474,45354036528256.766
4.237944078927105,7377320353085212.0,9169231189553726.0,795614055160268.0,945623947270186.0,55913724324.3354,119236290481.24739,2022125934863.4185,48475558088393.15
4.422702960505647,7536250697344551.0,9369074422087726.0,812754047682754.0,965995617782429.8,59666708747.937195,127239560264.90561,2157853308001.0413,51729299700947.81
4.61115701971576,7694888014010016.0,9568697694511000.0,829862438368709.0,986329728056713.4,63576631611.08648,135577503877.78981,2299256414831.308,55119103525243.04
4.803380160110075,7853305115303035.0,9768195158880108.0,846947079720676.8,1006635611153958.9,67648076776.91895,144259896582.87534,2446501034207.439,58648943694882.79
4.9994477633122765,8011569978931796.0,9967655132236780.0,864015302858554.0,1026921980447812.8,71885783211.5172,153296844410.2515,2599758554476.4565,62322928816535.05
5.199436718578522,8169746245831495.0,1.0167160714656568e+16,881073971198883.6,1047196993424939.5,76294648105.01462,162698790813.42136,2759206086364.152,66145304675974.97
5.403425452950093,8327893654804949.0,1.0366790329508222e+16,898129527329068.0,1067468307397193.9,80879730217.47108,172476523804.95642,2925026583989.4834,70120457139009.98
5.611493962009095,8486068423513546.0,1.0566618197594112e+16,915188034095699.0,1087743128336978.9,85646253438.02475,182641183546.99225,3097408973592.7383,74252915237318.48
5.823723841249277,8644323583642251.0,1.0766714754833472e+16,932255210750741.1,1108028253838669.2,90599610548.12042,193204270376.95096,3276548289644.675,78547354431228.58
6.040198318074262,8802709276751130.0,1.0967147021531494e+16,949336464857924.2,1128330111040811.5,95745367181.523,204177653252.93497,3462645818072.9355,83008600043113.02
6.261002284435747,8961273016260361.0,1.116797892996188e+16,966436920546756.5,1148654790207326.5,101089265975.4085,215573578606.63394,3655909246399.6484,87641630856453.84
6.486222330124463,9120059920146742.0,1.1369271615917112e+16,983561443607899.1,1169008074554517.8,106637230908.1736,227404679594.44388,3856552820632.209,92451582876800.61
6.715946776726952,9279112887413914.0,1.15710836802841e+16,1000714660530510.1,1189395462897388.2,112395371479.11798,239683985481.24167,4064797701222.525,97443792384120.88
6.950265712261491,9438472906670914.0,1.1773471418150348e+16,1017900991758145.1,1209822209097332.5,118369988767.95071,252424932694.02182,4280871367542.4517,102623644334926.75
7.18927102650672,9598179036258686.0,1.1976489032251932e+16,1035124649580152.8,1230293319674079.8,124567578294.50627,265641373709.70303,4505008936793.679,107996808850211.19
7.433056447036854,9758268677185690.0,1.218018882002171e+16,1052389667543488.9,1250813588683955.8,130994836420.74072,279347588859.0126,4737452589514.574,113569091593772.77
7.681717575977592,9918777675834100.0,1.2384621343800674e+16,1069699911534966.2,1271387610911495.8,137658665257.55264,293558297251.15125,4978451947513.507,119346476610087.16
7.935351927497144,1.0079740444647148e+16,1.258983558492614e+16,1087059092796914.0,1292019797339131.5,144566178084.41525,308288668332.16516,5228264269890.684,125335131026633.75
8.194058966047088,1.02411900711649e+16,1.279587908357803e+16,1104470779686224.8,1312714389123384.0,151724704949.30563,323554333827.83325,5487154655579.513,131541409909159.16
8.45794014536803,1.0403158416721758e+16,1.3002798066011484e+16,1121938408318480.8,1333475470245882.0,159141798450.2232,339371400073.8597,5755396252455.878,137971861274388.47
8.72709894827539,1.0565676205948638e+16,1.321063756059e+16,1139465292220421.0,1354306978985779.2,166825239699.9905,355756460736.97156,6033270473077.242,144633231261656.38
9.0016409272409,1.0728773108076814e+16,1.3419441503852986e+16,1157054631098221.5,1375212718341212.8,174783044476.37262,372726609931.26685,6321067217124.556,151532469465216.22
9.281673745785717,1.0892477810913046e+16,1.3629252837695074e+16,1174709518815384.2,1396196365511475.5,183023469559.84088,390299455734.7704,6619085100631.635,158676734429249.8
9.567307220701432,1.1056818088248836e+16,1.384011359860221e+16,1192432950662589.5,1417261480537497.5,191555019261.57742,408493134111.7511,6927631692095.976,166073399307827.3
9.85865336511546,1.122182086137391e+16,1.405206499977553e+16,1210227829991671.8,1438411514186657.2,200386452144.57764,427326323246.8754,7247023755573.772,173730057692295.94
10.155826432417769,1.1387512255283674e+16,1.426514750687426e+16,1228096974277339.8,1459649815157409.0,209526787940.91754,446818258297.77734,7577587500871.228,181654529608759.75
10.458942961066125,1.1553917650100878e+16,1.4479400908024932e+16,1246043120662815.5,1480979636670549.8,218985314668.47974,466988746573.0246,7919658840950.128,189854867688500.7
10.768121820287448,1.1721061728172964e+16,1.46948643786683e+16,1264068931039092.8,1502404142506125.0,228771595950.61578,487858183142.93555,8273583656674.378,198339363514362.1
11.083484256693197,1.1888968517252318e+16,1.4911576541753032e+16,1282176996701730.8,1523926412538268.8,238895478542.40195,509447566891.0458,8639718069029.5,207116554146264.06
11.405153941827061,1.2057661430123156e+16,1.5129575523727434e+16,1300369842624474.8,1545549447814578.5,249367100067.32755,531778517014.3993,9018428718954.06,216195228829185.16
11.733257020663602,1.2227163300997298e+16,1.5348899006731972e+16,1318649931384397.0,1567276175221320.8,260196896968.4008,554873289981.1707,9410093054927.018,225584435887053.03
12.067922161076874,1.2397496418967288e+16,1.5569584277352642e+16,1337019666769655.8,1589109451771445.0,271395612677.8139,578754796954.4851,9815099628461.43,235293489806153.88
12.409280604298411,1.2568682558774238e+16,1.5791668272257442e+16,1355481397097693.5,1611052068548397.2,282974306009.4519,603446621691.5144,10233848397658.889,245331978511761.7
12.75746621638438,1.2740743009120546e+16,1.6015187621003972e+16,1374037418268658.5,1633106754335262.2,294944359778.66516,628973038927.3708,10666751038984.947,255709770841829.8
13.112615540712067,1.2913698598734514e+16,1.62401786862786e+16,1392689976576363.0,1655276178955687.5,307317489653.85944,655359033253.3868,11114231267430.398,266437024221682.34
13.474867851526309,1.3087569720372242e+16,1.6466677601800224e+16,1411441271296766.2,1677562956350470.2,320105753244.55707,682630318499.8763,11576725165226.686,277524192543766.84
13.844365208556836,1.3262376352923912e+16,1.6694720308100116e+16,1430293457072101.5,1699969647411130.5,333321559430.75946,710813357633.505,12054681519289.967,288982034256610.1
14.221252512727972,1.3438138081775064e+16,1.6924342586367506e+16,1449248646106687.2,1722498762589814.0,346977677938.4597,739935383179.773,12548562167570.25,300821620667253.1
14.605677562982532,1.3614874117558498e+16,1.7155580090534056e+16,1468308910189306.5,1745152764302913.0,361087249166.3894,770024418181.33,13058842354487.945,313054344461485.44
14.997791114242183,1.3792603313419848e+16,1.7388468377753164e+16,1487476282555194.5,1767934069144154.5,375663794269.05255,801109297703.0115,13586011095642.639,325691928446354.1
15.397746936527026,1.3971344180907586e+16,1.7623042937416514e+16,1506752759599712.0,1790845049921392.8,390721225501.32,833219690894.7671,14130571551983.24,338746434519445.1
15.805701875257567,1.415111490458863e+16,1.785933921883691e+16,1526140302454605.0,1813888037530037.2,406273856829.87964,866386123623.8264,14693041413632.07,352230272869569.5
16.221815912762718,1.433193335548052e+16,1.8097392657715484e+16,1545640838436569.5,1837065322674770.8,422336414816.9611,900640001687.6381,15273953293558.807,366156211413549.8
16.64625223101797,1.4513817103383526e+16,1.8337238701500656e+16,1565256262377259.2,1860379157450284.8,438924049781.84106,936013634619.3656,15873855131303.695,380537385473870.44
17.079177275638333,1.4696783428187996e+16,1.8578912833737708e+16,1584988437842713.5,1883831756790663.2,456052347245.72516,972540260097.8439,16493310606951.863,395387307702055.7
17.5207608211511,1.4880849330225998e+16,1.8822450597498828e+16,1604839198249741.8,1907425299796246.8,473737339665.6793,1010254068974.124,17132899565565.107,410719878252688.4
17.97117603757412,1.506603153973003e+16,1.9067887617976836e+16,1624810347886009.0,1931161930946042.5,491995518463.36346,1049190230926.8866,17793218452278.586,426549395213067.8
18.430599558325603,1.5252346525455708e+16,1.9315259624317664e+16,1644903662839976.0,1955043761202994.5,510843846354.4138,1089384920759.1714,18474880758274.2,442890565293561.9
18.899211549492115,1.5439810502521564e+16,1.9564602470763764e+16,1665120891846360.8,1979072869018868.8,530299769984.36584,1130875345349.0322,19178517477844.12,459758514783782.9
19.37719578048196,1.5628439439513114e+16,1.9815952157170936e+16,1685463757052293.0,2003251301244875.0,550381232877.0958,1173699771266.8782,19904777576760.992,477168800779760.2
19.864739696091597,1.5818249064895682e+16,2.0069344848959516e+16,1705933954708931.0,2027581073953644.8,571106688701.839,1217897553072.384,20654328472172.973,495137422687357.9
20.36203449001343,1.6009254872775998e+16,2.0324816896555228e+16,1726533155792800.2,2052064173177756.8,592495114864.8701,1263509162303.9802,21427856524245.75,513680834007226.56
20.869275179813698,1.6201472128049742e+16,2.058240485437021e+16,1747263006560930.8,2076702555569537.2,614566026432.0057,1310576217174.143,22226067539772.777,532815954406634.2
21.38666068340997,1.6394915870968594e+16,2.084214549937347e+16,1768125129043435.5,2101498148986498.5,637339490388.1615,1359141512983.6472,23049687287980.668,552560182083556.3
21.91439389707817,1.6589600921158836e+16,2.1104075849292796e+16,1789121121476857.8,2126452853006390.2,660836140240.2125,1409249053268.2207,23899462028754.613,572931406428470.8
22.452681775019734,1.6785541881119426e+16,2.1368233180491948e+16,1810252558681440.0,2151568539375630.8,685077190969.4575,1460944081691.0686,24776159053513.566,593948020989311.1
23.00173541052013,1.698275313922693e+16,2.1634655045559668e+16,1831520992385200.5,2176847052394458.0,710084454340.0675,1514273114694.7588,25680567238964.402,615628936745093.1
23.561770118730532,1.7181248872271216e+16,2.1903379290647716e+16,1852927951497392.5,2202290209241950.2,735880354569.844,1569283974926.1477,26613497613965.79,637993595693725.8
24.133005521105144,1.738104304754509e+16,2.2174444072591956e+16,1874474942333856.8,2227899800243884.0,762487944369.7617,1626025825447.9966,27575783939734.23,661061984759582.6
24.715665631527248,1.7582149424508456e+16,2.244788787584705e+16,1896163448796490.0,2253677589086034.0,789930921358.6674,1684549204751.0273,28568283303625.71,684854650026398.5
25.309978944157795,1.7784581556046594e+16,2.2723749529266296e+16,1917994932508983.5,2279625312975482.5,818233644859.6273,1744906062580.1855,29591876726724.44,709392711301067.8
25.91617852304095,1.7988352789341038e+16,2.3002068222753064e+16,1939970832910678.2,2305744682752224.0,847421153084.368,1807149796588.9065,30647469785475.504,734697877013951.9
26.53450209350177,1.819347626636889e+16,2.3282883523811924e+16,1962092567310473.5,2332037382953167.5,877519180712.2727,1871335289835.1614,31735993247592.89,760792459461281.2
27.165192135371807,1.839996492404694e+16,2.3566235394023612e+16,1984361530902340.0,2358505071830633.0,908554176870.3898,1937518949133.1384,32858403722478.44,787699390395259.2
27.808495978079243,1.860783149403488e+16,2.3852164205467724e+16,2006779096744110.2,2385149381327106.0,940553323520.9343,2005758744274.2964,34015684326384.438,815442236967420.1
28.464665897640828,1.881708850221135e+16,2.4140710757116196e+16,2029346615700950.0,2411971917008097.5,973544554262.6649,2076114248131.479,35208845362553.49,844045218030822.8
29.133959215593645,1.9027748267834524e+16,2.4431916291218316e+16,2052065416354859.2,2438974257954506.5,1007556573552.5809,2148646677659.9084,36438925016566.586,873533220806601.5
29.816638399905518,1.923982290240034e+16,2.472582250969785e+16,2074936804881521.5,2466157956616323.0,1042618876354.2938,2223418935808.478,37706990067130.375,903931817920382.9
30.51297116790363,1.9453324308208384e+16,2.502247159058187e+16,2097962064895642.8,2493524538628762.0,1078761768219.3785,2300495654355.014,39014136612532.94,935267284813978.6
31.223230591261704,1.9668264176645868e+16,2.532190620447835e+16,2121142457265882.5,2521075502592313.0,1116016385807.9797,2379943237678.698,40361490812993.64,967566617537818.4
31.947695203086937,1.988465398619926e+16,2.5624169531121424e+16,2144479219900420.2,2548812319817887.5,1154414717854.8489,2461829907483.05,41750209649131.68,1000857550929382.6
32.686649107148675,2.010250500020226e+16,2.5929305275999216e+16,2167973567504081.5,2576736434038131.5,1193989626586.913,2546225748482.3613,43181481696773.586,1035168577182918.2
33.44038208929165,2.032182826432819e+16,2.6237357687080652e+16,2191626691307900.8,2604849261086016.5,1234774869598.3809,2633202755064.4644,44656527918317.85,1070528964815587.5
34.20918973107749,2.0542634603833696e+16,2.654837157165417e+16,2215439758771889.0,2633152188541532.0,1276805122189.2234,2722834878942.3267,46176602470867.625,1106968778035062.1
34.993373525699035,2.0764934620561284e+16,2.686239231329333e+16,2239413913261709.8,2661646575347467.0,1320116000172.815,2815198077806.8467,47742993531341.62,1144518896513523.2
35.793240996213015,2.098873868970493e+16,2.717946588895935e+16,2263550273699932.5,2690333751394809.5,1364744083158.2368,2910370364992.56,49357024138759.625,1183211035572781.0
36.60910581613728,2.1214056956344556e+16,2.7499638886252864e+16,2287849934192244.0,2719215017078581.5,1410726938312.636,3008431860167.827,51020053053903.57,1223077766785109.5
37.44128793246003,2.1440899331753024e+16,2.7822958520823024e+16,2312313963629202.0,2748291642824424.0,1458103144608.7913,3109464841060.5376,52733475636533.87,1264152538994202.5
38.29011369110923,2.1669275489477356e+16,2.8149472653941748e+16,2336943405263578.0,2777564868586327.5,1506912317562.7007,3213553796229.6377,54498724740340.69,1306469699760347.5
39.15591596493141,2.189919486119694e+16,2.847922981024913e+16,2361739276263699.0,2807035903315671.0,1557195134465.7795,3320785478892.2065,56317271625794.35,1350064517233703.5
40.03903428423004,2.2130666632356676e+16,2.8812279195672964e+16,2386702567242534.0,2836705924401566.0,1608993360115.884,3431248961815.2534,58190626891046.75,1394973202459241.5
40.93981496991464,2.2363699737574868e+16,2.914867071552327e+16,2411834241762378.5,2866576077082162.5,1662349873050.848,3545035693280.0645,60120341421018.68,1441232932116521.2
41.85861126931294,2.2598302855820864e+16,2.9488454992760428e+16,2437135235814834.0,2896647473826561.0,1717308692287.9175,3662239554126.2915,62108007354794.86,1488881871696993.5
42.7957834946992,2.2834484405356584e+16,2.983168338643136e+16,2462606457275280.5,2926921193686417.0,1773915004571.6892,3782956915881.5967,64155259071422.29,1537959199121169.0
43.751699164593184,2.3072252538434076e+16,3.017840801026484e+16,2488248785330978.0,2957398281616221.5,1832215192132.7131,3907286699981.138,66263774194189.05,1588505128797275.2
