t(s),Total solute volume 1,Total retention volume 1,Total 1 volume 1,Total 2 volume 1,Total 3 volume 1,Total 4 volume 1,Total 5 volume 1,Total 6 volume 1
0.1,1393105271922661.8,5193352995607505.0,1226369007487646.5,2573878716197194.5,0.0,0.0,0.0,3.3616881476863753e-156
0.202,2073236507567841.0,7733182746509854.0,1825097876963395.2,3830483053771942.0,851228769.5939255,4345238359.036038,234440693390.43973,4125671046156.447
0.30604000000000003,2596549240927322.5,9691384509373590.0,2285777129891764.0,4797349010641414.0,2153507513.254393,10994450834.49179,599188956095.1107,11096790998636.984
0.41216080000000005,3039704529997973.0,1.1353118297639876e+16,2675892690476320.0,5616116895929283.0,3819504409.602715,19501059561.24196,1067280108114.677,20313580564206.453
0.5204040160000001,3433106942140453.0,1.2831433925565062e+16,3022210120048821.0,6342961957439441.0,5809647749.584569,29662920617.354935,1627141443745.93,31492291924237.22
0.6308120963200001,3792123761548413.5,1.4183461475559614e+16,3338257448467279.0,7006276629208015.0,8102460896.770254,41370340494.21193,2272582482591.217,44481581051928.18
0.7434283382464002,4125737902736052.5,1.5442597575695056e+16,3631942457132756.5,7622657639590292.0,10685461321.347427,54559566657.2581,3000020755999.388,59194310451979.02
0.8582969050113283,4439720957991375.5,1.6630304958856368e+16,3908345956716343.0,8202768511803434.0,13551398309.682825,69193567422.22427,3807376521705.4775,75579410857779.28
0.9754628431115548,4738034486603215.0,1.7761322342649514e+16,4170955361286245.0,8753928572857504.0,16696393785.159805,85252535500.32101,4693534205453.68,93608438767815.38
1.094972099973786,5023533540961369.0,1.8846279555685612e+16,4422284011920242.5,9281412780923266.0,20118910392.430492,102728617503.53397,5658045507247.622,113268328845602.81
1.2168715419732616,5298354325679663.0,1.989313823946918e+16,4664212438293309.0,9789167959921482.0,23819130101.292538,121622740317.70331,6700951321316.438,134557122383024.72
1.3412089728127268,5564143426559261.0,2.0908043587813412e+16,4898190152037216.0,1.028023632023544e+16,27798556803.792175,141942581526.2827,7822668137187.629,157481279705961.34
1.4680331522689813,5822201078402352.0,2.1895856580967144e+16,5125361767332996.0,1.0757020158574442e+16,32059750205.024853,163701210392.50323,9023912105015.348,182053903591727.72
1.597393815314361,6073574798554906.0,2.2860501768176656e+16,5346649427782433.0,1.1221454854141278e+16,36606141117.23898,186916144582.02853,10305646396478.793,208293519015868.5
1.729341691620648,6319122876673696.0,2.380520304898828e+16,5562808697305979.0,1.1675126171523534e+16,41441899564.9419,211608676594.64734,11669043651918.803,236223209256972.84
1.863928525453061,6559558774959429.0,2.473264853840421e+16,5774467646266330.0,1.2119352293997098e+16,46571838458.614006,237803381844.07605,13115458574313.71,265869989386744.53
2.001207095962122,6795483005135480.0,2.56451089171971e+16,5982154913202000.0,1.2555242719021398e+16,52001341991.49362,265527752996.31818,14646407568540.11,297264343174708.1
2.1412312378813647,7027406538293225.0,2.654452433842092e+16,6186320312829340.0,1.2983741509965968e+16,57736311691.11236,294811924468.3428,16263553407287.828,330439875688947.06
2.284055862638992,7255768338726161.0,2.743256951641745e+16,6387350271312594.0,1.3405659691393934e+16,63783125377.25251,325688462837.45917,17968693569039.47,365433049827467.3
2.4297369798917723,7480948725955149.0,2.8310703328735116e+16,6585579589034525.0,1.382169993656468e+16,70148605751.89182,358192206439.1143,19763751314831.574,402282985053719.44
2.578331719489608,7703279714801846.0,2.918020720162671e+16,6781300543102049.0,1.4232475671617684e+16,76839996310.91203,392360142355.072,21650768845828.87,441031303120635.6
2.7298983538794,7923053127045611.0,3.004221522598233e+16,6974770028146947.0,1.4638526062562904e+16,83864942914.50858,428231312298.9767,23631902068362.75,481722009903276.8
2.884496320956988,8140527033407596.0,3.0897738078360336e+16,7166215227290987.0,1.5040327917405476e+16,91231479797.56157,465846741175.45984,25709416619742.516,524401405415573.94
3.0421862473761276,8355930926430479.0,3.1747682234264884e+16,7355838165901552.0,1.5438305243489756e+16,98948019112.50972,505249383678.5758,27885684896820.47,569118016143472.6
3.2030299723236504,8569469916122819.0,3.2592865557119056e+16,7543819405073724.0,1.5832836999316144e+16,107023343319.30579,546484085429.3148,30163183892509.39,615922545285093.9
3.3670905717701234,8781328164184016.0,3.3434030063965428e+16,7730321064824653.0,1.62242634395696e+16,115466599898.0245,589597555974.0695,32544493691262.48,664867837540014.9
3.5344323832055258,8991671718540949.0,3.4271852468104184e+16,7915489319374283.0,1.661289135217167e+16,124287297978.15204,634638351570.886,35032296508220.72,716008855859488.9
3.7051210308696363,9200650870888496.0,3.510695295394473e+16,8099456472519898.0,1.6998998414041036e+16,133495306566.92151,681656866141.4414,37629376181848.92,769402668140756.0
3.879223451487029,9408402131362358.0,3.59399025333124e+16,8282342695967221.0,1.7382836839472662e+16,143100854125.74747,730705329107.2319,40338618048837.54,825108442278084.8
4.0568079205167695,9615049893309914.0,3.67712292538992e+16,8464257494850447.0,1.7764636455946196e+16,153114529294.72852,781837809088.5076,43163009144514.18,883187448309738.1
4.237944078927105,9820707845263402.0,3.7601423471683064e+16,8645300950711317.0,1.8144607312868816e+16,163547282604.45355,835110222644.9711,46105638683164.875,943703066651097.0
4.422702960505647,1.0025480175204886e+16,3.843094235455045e+16,8825564781629670.0,1.8522941906559044e+16,174410429044.93695,890580347393.5023,49169698781351.4,1006720801599000.1
4.61115701971576,1.0229462603019838e+16,3.926021375024978e+16,9005133251106226.0,1.8899817087794216e+16,185715651385.52905,948307838960.8219,52358485394132.28,1072308299444967.8
4.803380160110075,1.043274326993831e+16,4.0089639525468344e+16,9184083951049570.0,1.927539570512992e+16,197475004158.67847,1008354251326.1893,55675399439498.17,1140535370655551.5
4.9994477633122765,1.0635403508234942e+16,4.091959846231926e+16,9362488479353510.0,1.9649828026987776e+16,209700918235.60553,1070783060186.7856,59123948090643.52,1211474015673996.2
5.199436718578522,1.0837518510119242e+16,4.1750448782425544e+16,9540413028730032.0,2.002325297748779e+16,222406205934.15643,1135659689040.73,62707746219155.805,1285198453974406.0
5.403425452950093,1.1039157911314046e+16,4.258253035605675e+16,9717918900441290.0,2.039579921466036e+16,235604066608.95868,1203051537733.0742,66430517975010.805,1361785156061710.8
5.611493962009095,1.1240386302085898e+16,4.341616664363022e+16,9895062954166626.0,2.076758607461897e+16,249308092682.0489,1273028013251.1309,70296098491533.9,1441312878161266.5
5.823723841249277,1.1441263676297194e+16,4.42516664087566e+16,1.0071898003309074e+16,2.1138724401223164e+16,263532276078.69388,1345660562589.0015,74308435705356.77,1523862699383173.8
6.040198318074262,1.1641845827280348e+16,4.508932523544512e+16,1.0248473163488796e+16,2.1509317277490188e+16,278291015038.5358,1421022707528.809,78471592282929.5,1609518061180278.5
6.261002284435747,1.184218469789719e+16,4.592942687675787e+16,1.042483416070495e+16,2.1879460672359932e+16,293599121276.655,1499190081208.8518,82789747646412.22,1698364808946928.0
6.486222330124463,1.2042328690973422e+16,4.6772244457854024e+16,1.0601023604615456e+16,2.2249244014249764e+16,309471827472.834,1580240466367.8264,87267200092826.19,1790491235628670.2
6.715946776726952,1.224232294533608e+16,4.761804155279404e+16,1.0777081231536408e+16,2.2618750701057492e+16,325924795070.3998,1664253835170.0408,91908369001213.42,1885988127232617.5
6.950265712261491,1.2442209581886966e+16,4.8467073151534504e+16,1.0953044121063816e+16,2.2988058554803256e+16,342974122368.5924,1751312390529.5862,96717797123288.86,1984948810144260.5
7.18927102650672,1.2642027923487376e+16,4.931958653109991e+16,1.1128946889641102e+16,2.3357240227885748e+16,360636352894.5499,1841500608862.532,101700152953677.84,2087469200170255.2
7.433056447036854,1.2841814691881516e+16,5.017582204289294e+16,1.1304821863913428e+16,2.3726363566915308e+16,378928484042.84174,1934905284205.4702,106860233176355.02,2193647853238166.5
7.681717575977592,1.3041604184427616e+16,5.10360138264016e+16,1.1480699236306452e+16,2.4095491939239836e+16,397867975971.9694,2031615573646.401,112202965184319.42,2303586017693768.5
7.935351927497144,1.3241428433021254e+16,5.190039045813911e+16,1.165660720492872e+16,2.4464684526569544e+16,417472760748.57556,2131723044020.6716,117733409669924.2,2417387688144876.5
8.194058966047088,1.3441317347271098e+16,5.2769175543451224e+16,1.183257209961111e+16,2.483399658950637e+16,437761251731.1436,2235321719830.087,123456763283571.1,2535159660807534.0
8.45794014536803,1.36412988437128e+16,5.36425882578073e+16,1.2008618495655664e+16,2.520347970627805e+16,458752353185.93494,2342508132348.021,129378361358753.6,2657011590316480.0
8.72709894827539,1.3841398962614282e+16,5.452084384332915e+16,1.218476931666071e+16,2.557318198854591e+16,480465470128.6245,2453381369877.306,135503680701642.92,2783056047966638.0
9.0016409272409,1.4041641973726322e+16,5.540415406557746e+16,1.236104592761468e+16,2.594314827678822e+16,502920518385.7912,2568043129130.9736,141838342443602.97,2913408581357115.0
9.281673745785717,1.4242050472163884e+16,5.629272763498481e+16,1.2537468219301598e+16,2.631342031744927e+16,526137934870.9324,2686597767708.654,148388114955171.47,3048187775412348.5
9.567307220701432,1.4442645465456808e+16,5.718677059678762e+16,1.2714054684933072e+16,2.668403692377311e+16,550138688070.1475,2809152357643.854,155158916820180.38,3187515314758771.0
9.85865336511546,1.464344645268452e+16,5.808648669284315e+16,1.2890822489811616e+16,2.7055034122011932e+16,574944288732.9982,2935816739999.2285,162156819868791.7,3331516047437587.0
10.155826432417769,1.4844471496500912e+16,5.899207769832024e+16,1.306778753473508e+16,2.7426445284497876e+16,600576800764.3751,3066703580488.506,169388052268321.47,3480318049936845.5
10.458942961066125,1.5045737288761972e+16,5.99037437359049e+16,1.3244964513769586e+16,2.7798301250896256e+16,627058852313.4626,3201928426105.107,176859001670795.4,3634052693527867.5
10.768121820287448,1.5247259210388528e+16,6.082168356986152e+16,1.3422366966947466e+16,2.817063043880683e+16,654413647056.0745,3341609762738.5723,184576218416241.9,3792854711892660.0
11.083484256693197,1.5449051386025398e+16,6.174609488203209e+16,1.3600007328384432e+16,2.85434589447515e+16,682664975666.8489,3485869073760.643,192546418790773.8,3956862270030581.0
11.405153941827061,1.5651126733997044e+16,6.26771745316241e+16,1.3777896970256316e+16,2.8916810636471652e+16,711837227477.8441,3634830899563.6445,200776488338554.53,4126217034433430.5
11.733257020663602,1.5853497012006728e+16,6.361511880044327e+16,1.3956046243028544e+16,2.9290707237361416e+16,741955402320.2544,3788622898034.1646,209273485226767.94,4301064244519429.5
12.067922161076874,1.6056172858978428e+16,6.4560123625051096e+16,1.4134464512290214e+16,2.966516840377413e+16,773045122545.9681,3947375905945.433,218044643662730.44,4481552785317105.0
12.409280604298411,1.6259163833400264e+16,6.551238481717354e+16,1.4313160192508188e+16,3.004021179586525e+16,805132645225.7555,4111224001252.113,227097377362306.78,4667835261391011.0
12.75746621638438,1.6462478448491686e+16,6.647209827355485e+16,1.4492140777985404e+16,3.0415853142566596e+16,838244874520.9254,4280304566271.0625,236439283068790.88,4860068072001674.0
13.112615540712067,1.666612420448468e+16,6.743946017633208e+16,1.4671412871278452e+16,3.0792106301229044e+16,872409374225.2338,4454758351732.061,246078144121417.75,5058411487492520.0
13.474867851526309,1.687010761828174e+16,6.841466718489738e+16,1.4850982209305754e+16,3.116898331241792e+16,907654380473.8623,4634729541681.956,256021934072673.53,5263029726897129.0
13.844365208556836,1.707443425072719e+16,6.939791662012881e+16,1.5030853687354904e+16,3.154649445029916e+16,944008814616.2576,4820365819225.983,266278820353568.6,5474091036760143.0
14.221252512727972,1.7279108731707824e+16,7.038940664178321e+16,1.5211031381179284e+16,3.192464826901523e+16,981502296249.5514,5011818433089.562,276857167986010.94,5691767771165574.0
14.605677562982532,1.7484134783278364e+16,7.1389336419774056e+16,1.5391518567355482e+16,3.2303451645411e+16,1020165156409.2762,5209242264983.73,287765543341444.6,5916236472966326.0
14.997791114242183,1.7689515240989886e+16,7.239790629999152e+16,1.5572317742059142e+16,3.268290981844017e+16,1060028450914.0214,5412795897757.134,299012717944855.8,6147677956208833.0
15.397746936527026,1.7895252073584248e+16,7.34153179652668e+16,1.5753430638402152e+16,3.3063026425552388e+16,1101123973860.6033,5622641684317.182,310607672323278.75,6386277389746573.0
15.805701875257567,1.8101346401203624e+16,7.444177459202632e+16,1.5934858242462736e+16,3.344380353633683e+16,1143484271266.299,5838945817302.497,322559599897880.75,6632224382036668.0
16.221815912762718,1.830779851225135e+16,7.547748100314026e+16,1.6116600808128362e+16,3.382524168367425e+16,1187142654854.5637,6061878399488.881,334877910918723.0,6885713067113285.0
16.64625223101797,1.8514607879030216e+16,7.652264381742667e+16,1.6298657870862408e+16,3.4207339892630172e+16,1232133215980.6772,6291613514910.049,347572236441242.75,7146942191731771.0
17.079177275638333,1.8721773172274076e+16,7.757747159623414e+16,1.6481028260496136e+16,3.4590095707302764e+16,1278490839693.592,6528329300674.703,360652432343507.56,7416115203677217.0
17.5207608211511,1.8929292274678584e+16,7.864217498749522e+16,1.6663710113140608e+16,3.4973505215822948e+16,1326251218930.2893,6772208019460.7295,374128583383272.75,7693440341231410.0
17.97117603757412,1.913716229353167e+16,7.971696686761291e+16,1.684670088230496e+16,3.5357563073689612e+16,1375450868838.8079,7023436132667.033,388011007293832.56,7979130723791399.0
18.430599558325603,1.9345379572534084e+16,8.080206248151258e+16,1.7029997349302318e+16,3.574226252560926e+16,1426127141226.121,7282204374203.698,402310258917685.44,8273404443633754.0
18.899211549492115,1.955393970289598e+16,8.189767958117086e+16,1.7213595633018404e+16,3.6127595425998024e+16,1478318239126.922,7548707824900.014,417037134376965.94,8576484658817471.0
19.37719578048196,1.9762837533788976e+16,8.300403856291198e+16,1.7397491199112492e+16,3.651355225829266e+16,1532063231489.3877,7823145987510.665,432202675279625.6,8888599687219189.0
19.864739696091597,1.9972067182227904e+16,8.412136260373709e+16,1.7581678868716426e+16,3.690012215320813e+16,1587402067973.9072,8105722862299.437,447818172960310.06,9209983101694180.0
20.36203449001343,2.018162204245154e+16,8.524987779694152e+16,1.7766152826692792e+16,3.728729290606915e+16,1644375593860.7815,8396647023180.131,463895172754884.44,9540873826356070.0
20.869275179813698,2.0391494794868056e+16,8.63898132872509e+16,1.7950906629509504e+16,3.767505099333755e+16,1703025565062.8333,8696131694393.829,480445478307541.9,9881516233968864.0
21.38666068340997,2.060167741462555e+16,8.754140140570258e+16,1.813593321278461e+16,3.806338158844759e+16,1763394663238.9087,9004394827702.273,497481155909441.3,1.0232160244444492e+16
21.91439389707817,2.0812161179866344e+16,8.870487780447323e+16,1.8321224898552784e+16,3.845226857705588e+16,1825526511004.2183,9321659180076.451,515014538867805.8,1.0593061424439368e+16
22.452681775019734,2.102293667971886e+16,8.988048159185323e+16,1.85067734023005e+16,3.8841694571807416e+16,1889465687233.5454,9648152391860.191,533058231904436.3,1.0964481088042946e+16
23.00173541052013,2.123399382207878e+16,9.106845546754971e+16,1.869256983981603e+16,3.923164092671189e+16,1955257742453.3083,9984107065388.336,551625115582584.5,1.134668639855264e+16
23.561770118730532,2.1445321841228236e+16,9.226904585849317e+16,1.8878604733896696e+16,3.962208775122089e+16,2022949214318.6162,10329760844039.871,570728350761163.5,1.1739950471327972e+16
24.133005521105144,2.1656909305339556e+16,9.348250305531414e+16,1.9064868020954444e+16,4.001301392409148e+16,2092587643171.469,10685356491706.121,590381383075273.5,1.2144552477718728e+16
24.715665631527248,2.1868744123907308e+16,9.47090813496465e+16,1.9251349057558492e+16,4.040439710711762e+16,2164221587676.3518,11051141972655.105,610597947442063.0,1.2560777750060738e+16
25.309978944157795,2.2080813555150656e+16,9.59490391724067e+16,1.9438036626951548e+16,4.079621375880689e+16,2237900640529.654,11427370531773.887,631392072590960.2,1.298891788773431e+16
25.91617852304095,2.2293104213426052e+16,9.720263923319405e+16,1.962491894557536e+16,4.1188439148075624e+16,2313675444239.439,11814300775170.807,652778085617356.4,1.3429270864280322e+16
26.53450209350177,2.2505602076687944e+16,9.84701486609468e+16,1.9811983669638856e+16,4.158104736803389e+16,2391597706972.2056,12212196751121.102,674770616558868.8,1.3882141135569042e+16
27.165192135371807,2.271829249403509e+16,9.97518391459841e+16,1.9999217901760544e+16,4.197401134992701e+16,2471720218463.667,12621328031340.05,697384602993330.5,1.434783974901851e+16
27.808495978079243,2.2931160193375384e+16,1.0104798708356486e+17,2.0186608197716612e+16,4.236730287729808e+16,2554096865990.5225,13041969792568.7,720635294657774.1,1.4826684453858412e+16
28.464665897640828,2.314418928924478e+16,1.0235887371907499e+17,2.0374140573323572e+16,4.276089260043275e+16,2638782650400.721,13474402898459.404,744538258087674.9,1.5318999812437502e+16
29.133959215593645,2.3357363290810016e+16,1.0368478529497178e+17,2.05618005114834e+16,4.315475005114605e+16,2725833702199.85,13918913981748.416,769109381275822.8,1.582511731257258e+16
29.816638399905518,2.3570665110087096e+16,1.0502601319958514e+17,2.0749572969418544e+16,4.354884365796666e+16,2815307297691.537,14375795526705.996,794364878350288.6,1.6345375480938148e+16
30.51297116790363,2.378407707040469e+16,1.0638285411789467e+17,2.0937442386121824e+16,4.394314076177284e+16,2907261875170.3555,14845345951855.076,820321294271021.0,1.6880119997497254e+16
31.223230591261704,2.3997580915139244e+16,1.0775561018438182e+17,2.1125392690046676e+16,4.433760763193225e+16,3001757051165.8286,15327869692952.137,846995509544699.4,1.7429703810974562e+16
31.947695203086937,2.4211157816749936e+16,1.0914458913805955e+17,2.131340730706025e+16,4.473220948299413e+16,3098853636736.698,15823677286225.662,874404744957619.9,1.7994487255374564e+16
32.686649107148675,2.4424788386137932e+16,1.1055010447978333e+17,2.150146916868285e+16,4.512691049198181e+16,3198613653815.103,16333085451870.645,902566566326471.9,1.8574838167548516e+16
33.44038208929165,2.463845268235533e+16,1.1197247563193262e+17,2.168956072063458e+16,4.5521673816330216e+16,3301100351600.7354,16856417177798.908,931498889267012.6,1.9171132005816028e+16
34.20918973107749,2.4852130222685628e+16,1.1341202810056187e+17,2.1877663931709604e+16,4.5916461612511176e+16,3406378223005.613,17394001803649.408,961219983980780.8,1.978375196964808e+16
34.993373525699035,2.506579999311936e+16,1.1486909364011029e+17,2.2065760302997584e+16,4.631123505538689e+16,3514513021150.6553,17946175105063.836,991748480060163.5,2.041308912042001e+16
35.793240996213015,2.5279440459244412e+16,1.1634401042075915e+17,2.225383087747091e+16,4.67059543583316e+16,3625571775916.0776,18513279378237.9,1023103371312257.2,2.1059542503245924e+16
36.60910581613728,2.549302957757146e+16,1.1783712319852654e+17,2.2441856249954464e+16,4.710057879415624e+16,3739622810547.86,19095663524760.086,1055304020602175.6,2.1723519269906876e+16
37.44128793246003,2.5706544807313164e+16,1.1934878348817822e+17,2.2629816577495212e+16,4.749506671687084e+16,3856735758323.715,19693683136755.56,1088370164716630.4,2.240543480288714e+16
38.29011369110923,2.5919963122634224e+16,1.2087934973904552e+17,2.2817691590145668e+16,4.7889375584318e+16,3976981579282.527,20307700582354.156,1122321919248795.2,2.3105712840537096e+16
39.15591596493141,2.6133261025388596e+16,1.2242918751382664e+17,2.3005460602177052e+16,4.828346198170555e+16,4100432577021.8877,20938085091508.41,1157179783505722.8,2.3824785603381156e+16
