t(s),Total solute volume 1,Total retention volume 1,Total 1 volume 1,Total 2 volume 1,Total 3 volume 1,Total 4 volume 1,Total 5 volume 1,Total 6 volume 1
0.1,1012905215437994.5,1251976985692815.0,109237715628389.53,129834054626431.92,0.0,0.0,0.0,0.0
0.202,1506618158271920.8,1903051604646380.0,162482652880781.97,193118116065649.56,45062108320.89292,96096474645.29457,1629670483047.346,39061848362015.87
0.30604000000000003,1868732634288100.2,2412112573860097.0,201535229353345.62,239533902060828.78,112899960101.94838,240765125626.54828,4083098939414.955,97874044132677.73
0.41216080000000005,2163677919422065.5,2853832894137573.0,233343881201802.28,277339949910635.9,198039910266.37723,422334289422.5896,7162332956056.228,171688436447324.53
0.5204040160000001,2415921671589291.5,3256020194440488.0,260547346041128.78,309672520882440.06,297795302749.937,635075478376.622,10770222523343.045,258175562623157.38
0.6308120963200001,2637819487883165.5,3632459502027749.0,284478124871150.3,338115353802090.0,410525503179.52905,875490798720.3452,14847447410913.748,355913071758528.94
0.7434283382464002,2836648662114715.0,3991133450323535.0,305921044291983.9,363601251234837.0,535113409721.0553,1141198766068.0906,19353620838162.016,463932559668049.94
0.8582969050113283,3017132644164859.5,4337145411591678.0,325385509200997.4,386735664363776.44,670747939534.6339,1430470471851.1167,24259423143320.656,581530952307334.6
0.9754628431115548,3182550131520394.5,4673991877771840.0,343225113813814.5,407938856199517.6,816815370701.0734,1741997879183.9187,29542672263457.496,708176290724774.9
1.094972099973786,3335291834217838.5,5004195287622847.0,359697686503798.1,427517267638113.2,972838273499.14,2074763600359.6401,35186115275745.62,843454782113495.5
1.2168715419732616,3477167904282909.0,5329650220615999.0,374998444819315.25,445702923726349.06,1138438219706.7202,2427961379411.699,41176079857303.36,987038468331016.8
1.3412089728127268,3609590316028875.0,5651826872713218.0,389279664458655.7,462676811144423.1,1313311561782.0737,2800944445214.9062,47501598405747.87,1138664226668520.8
1.4680331522689813,3733687307233183.5,5971897553759734.0,402663021286422.3,478583547260896.44,1497212931254.567,3193190325163.4272,54153811316348.14,1298119463406460.0
1.597393815314361,3850378507009448.5,6290818963449613.0,415247693569582.3,493541010013418.9,1689943559778.7217,3604275942751.8223,61125544664558.75,1465231988690075.8
1.729341691620648,3960426123110899.0,6609387733235744.0,427115882320377.7,507646899090523.56,1891342752686.2493,4033859437567.7686,68411001894176.38,1639862624629508.0
1.863928525453061,4064470921034681.5,6928279109039855.0,438336691496681.2,520983347728465.8,2101281501509.193,4481666546442.243,76005532858233.62,1821899667873847.2
2.001207095962122,4163058192341872.0,7248074617397611.0,448968928579902.25,533620251327040.25,2319657593854.541,4947480177567.401,83905457009421.77,2011254650367962.8
2.1412312378813647,4256656930157010.5,7569282311060820.0,459063172574780.5,545617725362577.1,2546391799726.055,5431132280049.9,92107925518774.3,2207859033367908.5
2.284055862638992,4345674272780330.0,7892351883458589.0,468663331694328.56,557027956768241.56,2781424849654.003,5932497401940.645,100610812029183.72,2411661587934921.5
2.4297369798917723,4430466574612526.5,8217686152928510.0,477807837314142.5,567896623003708.9,3024715007016.93,6451487515351.154,109412624897415.61,2622626290578344.0
2.578331719489608,4511348024115441.0,8545649926293749.0,486530573384466.7,578263996704211.2,3276236094171.588,6988047809308.519,118512435847981.42,2840730612338170.0
2.7298983538794,4588597445433238.0,8876576936445351.0,494861609957440.06,588165817511450.1,3535975870626.567,7542153233352.381,127909821358844.3,3065964113080386.0
2.884496320956988,4662463733329099.0,9210775341649672.0,502827789322950.0,597633988723051.4,3803934688153.8013,8113805631724.404,137604814062990.47,3298327275891690.0
3.0421862473761276,4733170244830556.0,9548532135256594.0,510453199629758.7,606697140213086.4,4080124366510.1914,8703031348042.491,147597862128971.28,3537830532739674.5
3.2030299723236504,4800918383992289.0,9890116719175282.0,517759561487618.6,615381087926488.8,4364567246910.212,9309879209072.422,157889795070594.0,3784493444242301.5
3.3670905717701234,4865890555169004.0,1.023578382796592e+16,524766546465767.4,623709212429182.0,4657295390210.315,9934418817149.33,168481794791045.47,4038344004903582.0
3.5344323832055258,4928252616684529.0,1.05857759432066e+16,531492041711172.7,631702773419051.2,4958349894031.73,10576739096295.17,179375370929503.4,4299418051472001.0
3.7051210308696363,4988155935295595.0,1.0940325303811584e+16,537952371514116.56,639381173066839.2,5267780308497.902,11236947048698.297,190572339775335.06,4567758756802499.0
3.879223451487029,5045739118746185.0,1.1299655593174186e+16,544162484157152.3,646762178094746.4,5585644134399.897,11915166687044.17,202074806164639.28,4843416195190015.0
4.0568079205167695,5101129486544139.0,1.1663983365668494e+16,550136110532382.8,653862108300362.1,5912006390781.077,12611538114961.902,213885147888751.03,5126446967897121.0
4.237944078927105,5154444326190071.0,1.2033519261334566e+16,555885899620658.6,660695997579924.4,6246939241396.944,13326216733107.566,226006002233522.16,5416913879735858.0
4.422702960505647,5205791972287976.0,1.2408469047206068e+16,561423534869268.7,667277732248579.0,6590521671438.524,14059372552525.617,238440254338018.5,5714885659238250.0
4.61115701971576,5255272738445901.0,1.2789034515829084e+16,566759834693647.2,673620170491282.4,6942839207434.057,14811189600184.664,251191027116512.38,6020436716274133.0
4.803380160110075,5302979726051387.0,1.3175414265423498e+16,571904839700536.2,679735246031529.0,7303983674460.894,15581865404180.213,264261672531658.4,6333646932029746.0
4.9994477633122765,5348999529456473.0,1.356780438140265e+16,576867888739290.6,685634058521867.9,7674052985778.146,16371610548181.68,277655764042101.6,6654601477108941.0
5.199436718578522,5393412853524388.0,1.3966399035254284e+16,581657685501821.4,691326952700952.8,8053150960780.038,17180648286388.434,291377090076385.9,6983390654203584.0
5.403425452950093,5436295056647486.0,1.4371391013857596e+16,586282357084858.2,696823587997529.6,8441387167816.801,18009214211633.61,305429648408327.2,7320109762339924.0
5.611493962009095,5477716630074393.0,1.4782972189980634e+16,590749505683424.0,702132999970493.4,8838876788956.008,18857555970402.5,319817641328165.2,7664858980164821.0
5.823723841249277,5517743622556088.0,1.5201333942840334e+16,595066254387219.1,707263654739994.8,9245740504195.04,19725933019460.668,334545471519507.3,8017743266113870.0
6.040198318074262,5556438017842231.0,1.562666753610456e+16,599239287892044.8,712223497374852.5,9662104392995.83,20614616419559.168,349617738565232.7,8378872273617629.0
6.261002284435747,5593858071353010.0,1.6059164459500878e+16,603274888808500.4,717019995047108.5,10088099851314.822,21523888662326.914,365039236016383.06,8748360279762249.0
6.486222330124463,5630058611365609.0,1.6499016739205456e+16,607178970143731.9,721660175638080.8,10523863522554.209,22454043526999.49,380814948967213.56,9126326126041276.0
6.715946776726952,5665091309241683.0,1.694641722137374e+16,610957104444356.6,726150662376061.9,10969537241072.648,23405385964087.727,396950052087307.8,9512893170019140.0
6.950265712261491,5699004922549399.0,1.7401559832507462e+16,614614550016189.6,730497704999700.0,11425267987074.605,24378232003473.51,413449908068137.2,9908189246883474.0
7.18927102650672,5731845514375031.0,1.7864639819799546e+16,618156274576111.6,734707207869300.6,11891207851849.695,25372908684747.47,430320066447032.75,1.0312346639995472e+16
7.433056447036854,5763656651651362.0,1.833585397413917e+16,621586976640990.8,738784755388553.4,12367514012464.297,26389754007881.52,447566262776193.06,1.0725502059661728e+16
7.681717575977592,5794479584938644.0,1.8815400838076804e+16,624911104916310.4,742735635048823.6,12854348715120.229,27429116902566.53,465194418108497.3,1.1147796629446846e+16
7.935351927497144,5824353411763304.0,1.9303480900727996e+16,628132875911596.1,746564858365889.0,13351879266489.912,28491357214754.777,483210638775271.1,1.1579375879430696e+16
8.194058966047088,5853315225340433.0,1.9800296781324028e+16,631256289979538.0,750277179943165.8,13860278032421.975,29576845709118.566,501621216434249.6,1.2020389745885096e+16
8.45794014536803,5881400250269131.0,2.0306053402890564e+16,634285145950173.4,753877114865122.4,14379722443482.45,30685964086295.008,520432628368528.56,1.247099257690781e+16
8.72709894827539,5908641966587092.0,2.0820958157341252e+16,637223054509674.5,757368954598578.9,14910395006858.889,31819105013917.12,539651538019575.75,1.293134314360556e+16
9.0016409272409,5935072223398610.0,2.1345221063110236e+16,640073450454663.4,760756781557530.9,15452483324209.973,32976672170549.883,559284795739362.8,1.3401604656465298e+16
9.281673745785717,5960721343141492.0,2.187905491630555e+16,642839603936982.1,764044482468061.4,16006180115089.459,34159080301749.176,579339439748380.9,1.3881944786593796e+16
9.567307220701432,5985618217430884.0,2.242267543624781e+16,645524630800058.4,767235760653604.1,16571683245616.885,35366755287554.29,599822697287833.5,1.437253569154223e+16
9.85865336511546,6009790395307897.0,2.2976301406153304e+16,648131502096154.5,770334147346621.2,17149195762101.883,36600134220799.42,620741985955623.0,1.4873554045464098e+16
10.155826432417769,6033264164625121.0,2.3540154809634244e+16,650663052863476.4,773343012120605.4,17738925929363.707,37859665495703.195,642104915216947.2,1.5385181073382998e+16
10.458942961066125,6056064627218906.0,2.411446096361056e+16,653121990233187.4,776265572525645.2,18341087273513.664,39145808906251.12,663919288081315.1,1.5907602589371716e+16
10.768121820287448,6078215768445465.0,2.4699448648162868e+16,655510900928601.2,779104903001544.5,18955898628995.81,40459035753946.945,686193102938773.9,1.6441009038465564e+16
11.083484256693197,6099740521595114.0,2.5295350233798136e+16,657832258211998.8,781863943134455.4,19583584189701.938,41799828964550.78,708934555548925.8,1.6985595542153364e+16
11.405153941827061,6120660827644238.0,2.5902401806549784e+16,660088428328628.1,784545505315848.6,20224373563998.54,43168683213470.49,732152041177038.1,1.7541561947306518e+16
11.733257020663602,6140997690755334.0,2.6520843291290612e+16,662281676492166.1,787152281856522.9,20878501833519.44,44566105059508.445,755854156872240.5,1.810911287842131e+16
12.067922161076874,6160771229893808.0,2.715091857359915e+16,664414172451364.9,789686851602826.8,21546209615595.926,45992613086699.19,780049703883374.4,1.8688457793065516e+16
12.409280604298411,6180000726892039.0,2.779287562048591e+16,666487995673595.8,792151686097514.1,22227743129208.82,47448738054010.23,804747690208555.4,1.927981104043098e+16
12.75746621638438,6198704671258624.0,2.8446966600257776e+16,668505140177311.6,794549155323375.0,22923354264360.637,48935023052699.914,829957333275054.5,1.988339192290634e+16
13.112615540712067,6216900802000980.0,2.911344800177313e+16,670467519042463.1,796881533064061.1,23633300654778.332,50452023671154.4,855688062746487.1,2.049942476059317e+16
13.474867851526309,6234606146703586.0,2.979258075331678e+16,672376968624932.5,799151001913126.6,24357845753865.03,52000308167049.734,881949523454661.2,2.112813895869958e+16
13.844365208556836,6251837058081254.0,3.0484630341305228e+16,674235252498637.8,801359657959424.2,25097258913832.06,53580457646704.79,908751578453892.0,2.1769769077751508e+16
14.221252512727972,6268609248205887.0,3.1189866929013416e+16,676044065146762.2,803509515174271.2,25851815467949.336,55193066251508.164,936104312195775.5,2.2424554906571244e+16
14.605677562982532,6284937820586860.0,3.1908565475501496e+16,677805035421493.0,805602509523532.6,26621796815858.207,56838741351322.39,964018033822840.0,2.3092741537979564e+16
14.997791114242183,6300837300269069.0,3.264100585490258e+16,679519729789971.5,807640502825575.4,27407490511902.965,58518103744782.89,992503280579655.0,2.3774579447181584e+16
15.397746936527026,6316321662097604.0,3.3387472976223336e+16,681189655382522.6,809625286374214.8,28209190356437.715,60231787866422.68,1021570821340277.8,2.44703245728059e+16
15.805701875257567,6331404357284885.0,3.4148256903797576e+16,682816262857806.8,811558584344110.1,29027196490075.89,61980442000569.625,1051231660251166.6,2.518023840056894e+16
16.221815912762718,6346098338404377.0,3.4923652978521564e+16,684400949098311.8,813442056994442.5,29861815490852.027,63764728501973.45,1081497040488807.2,2.590458804954281e+16
16.64625223101797,6360416082924416.0,3.571396193999478e+16,685945059748349.6,815277303685477.2,30713360474272.758,65585324023129.45,1112378448131612.6,2.6643646361007484e+16
17.079177275638333,6374369615385611.0,3.651949004967797e+16,687449891605826.2,817065865721271.2,31582151196235.703,67442919748282.586,1143887616145708.2,2.7397691989874892e+16
17.5207608211511,6387970528317269.0,3.734054921517742e+16,688916694877976.2,818809229030719.1,32468514158802.406,69338221634095.07,1176036528484493.0,2.8167009498674004e+16
17.97117603757412,6401230001979752.0,3.817745711575543e+16,690346675310506.4,820508826698148.8,33372782718811.7,71271950656980.3,1208837424301933.0,2.895188945408927e+16
18.430599558325603,6414158823013338.0,3.90305373291629e+16,691740996198790.0,822166041353706.0,34295297199326.703,73244843067106.31,1242302802279746.2,2.975262852605084e+16
18.899211549492115,6426767402066897.0,3.9900119459884424e+16,693100780289059.6,823782207433012.6,35236405003909.484,75257650649084.88,1276445425068722.2,3.0569529589373796e+16
19.37719578048196,6439065790474597.0,4.07865392688829e+16,694427111576909.4,825358613314778.2,36196460733721.055,77311140989365.31,1311278323844604.5,3.1402901827949004e+16
19.864739696091597,6451063696043017.0,4.169013880492568e+16,695721037009881.2,826896503344398.1,37175826307448.984,79406097750363.61,1346814802979000.5,3.225306084149164e+16
20.36203449001343,6462770498006593.0,4.2611266537570696e+16,696983568100344.0,828397079750921.4,38174871084062.19,81543320951360.39,1383068444825986.0,3.3120328754851344e+16
20.869275179813698,6474195261204532.0,4.355027749188921e+16,698215682454419.2,829861504464268.0,39193971988403.36,83723627256206.05,1420053114625088.8,3.4005034329896284e+16
21.38666068340997,6485346749528746.0,4.450753338499849e+16,699418325222277.9,831290900838968.5,40233513639622.05,85947850267884.89,1457782965521533.8,3.490751307997941e+16
21.91439389707817,6496233438688357.0,4.5483402764472504e+16,700592410474749.4,832686355290320.9,41293888482460.23,88216840829986.86,1496272443704576.5,3.5828107387002144e+16
22.452681775019734,6506863528332986.0,4.647826114870204e+16,701738822510775.9,834048918848354.2,42375496921402.75,90531467335140.0,1535536293665010.2,3.676716662108835e+16
23.00173541052013,6517244953574415.0,4.749249116926759e+16,702858417099951.5,835379608634674.5,43478747457703.055,92892616040475.12,1575589563572926.2,3.772504726288739e+16
23.561770118730532,6527385395942656.0,4.8526482715391576e+16,703952022664116.1,836679409266801.0,44604056829301.38,95301191390180.92,1616447610776841.5,3.870211302852177e+16
24.133005521105144,6537292293810447.0,4.958063308053109e+16,705020441401584.9,837949274194395.8,45751850153651.11,97758116345222.5,1658126107425549.2,3.969873499720028e+16
24.715665631527248,6546972852317783.0,5.065534711117191e+16,706064450357462.4,839190126971375.4,46922561073468.89,100264332720301.83,1700641046213865.8,4.071529174151773e+16
25.309978944157795,6556434052825553.0,5.175103735788617e+16,707084802443184.5,840402862467672.8,48116631905431.59,102820801528136.17,1744008746253832.5,4.17521694604623e+16
25.91617852304095,6565682661925651.0,5.286812422870894e+16,708082227408233.1,841588348024169.9,49334513791834.95,105428503331138.78,1788245859072722.0,4.280976211515507e+16
26.53450209350177,6574725240033154.0,5.400703614489431e+16,709057432766748.1,842747424554027.5,50576666855238.516,108088438600590.06,1833369374739397.8,4.388847156734517e+16
27.165192135371807,6583568149584161.0,5.516820969910572e+16,710011104681636.1,843880907593479.2,51843560356117.27,110801628083386.05,1879396628120672.5,4.4988707720686296e+16
27.808495978079243,6592217562861328.0,5.6352089816096264e+16,710943908808544.2,844989588304930.4,53135672853543.67,113569113176467.8,1926345305269252.8,4.611088866482216e+16
28.464665897640828,6600679469468397.0,5.755912991593521e+16,711856491101916.9,846074234435010.9,54453492368921.78,116391956309014.88,1974233449945040.0,4.725544082230687e+16
29.133959215593645,6608959683472212.0,5.878979207983425e+16,712749478585275.6,847135591230064.2,55797516552799.93,119271241332519.81,2023079470271506.8,4.842279909838983e+16
29.816638399905518,6617063850231261.0,6.004454721862565e+16,713623480087620.0,848174382311415.6,57168252854786.37,122208073918835.19,2072902145529051.0,4.961340703369269e+16
30.51297116790363,6624997452927084.0,6.132387524394836e+16,714479086947826.1,849191310512570.4,58566218696591.305,125203581966307.92,2123720633087128.2,5.0827716959810824e+16
31.223230591261704,6632765818814803.0,6.262826524219068e+16,715316873688747.9,850187058680410.2,59991941648224.164,128258916014108.22,2175554475477166.5,5.2066190157867176e+16
31.947695203086937,6640374125207710.0,6.3958215651244664e+16,716137398662602.2,851162290442281.1,61445959607370.59,131375249664868.14,2228423607608251.0,5.332929702005152e+16
32.686649107148675,6647827405209555.0,6.53142344401215e+16,716941204669210.2,852117650940781.6,62928820981975.67,134553780015744.31,2282348364127557.5,5.461751721417663e+16
33.44038208929165,6655130553208395.0,6.669683929148005e+16,717728819548458.2,853053767537940.6,64441084876061.71,137795728098024.36,2337349486927761.0,5.593133985128343e+16
34.20918973107749,6662288330143624.0,6.8106557787117864e+16,718500756748340.9,853971250490362.8,65983321278805.734,141102339325400.75,2393448132803356.5,5.7271263656328104e+16
34.993373525699035,6669305368558406.0,6.954392759647702e+16,719257515869836.2,854870693596835.6,67556111256906.01,144474883951032.94,2450665881258335.5,5.863779714198552e+16
35.793240996213015,6676186177448088.0,7.100949666821043e+16,719999583189799.0,855752674819808.9,69160047150262.81,147914657533528.97,2509024742467284.0,6.003145878560168e+16
36.60910581613728,6682935146915232.0,7.25038234248638e+16,720727432162971.8,856617756882060.9,70795732771002.03,151422981411971.72,2568547165392193.5,6.145277720932846e+16
37.44128793246003,6689556552640551.0,7.402747696071658e+16,721441523904168.0,857466487839802.2,72463783605869.16,155001203190127.0,2629256046057370.0,6.290229136347865e+16
38.29011369110923,6696054560179371.0,7.558103724283322e+16,722142307651628.0,858299401633380.6,74164827022016.97,158650697229963.12,2691174735984914.5,6.438055071313207e+16
39.15591596493141,6702433229092031.0,7.716509531537462e+16,722830221212455.6,859117018616719.9,75899502476220.64,162372865154622.9,2754327050792947.5,6.588811542802976e+16
40.03903428423004,6708696516916284.0,7.87802535072126e+16,723505691391042.1,859919846066503.8,77668461727538.75,166169136360984.5,2818737278959265.5,6.742555657579103e+16
40.93981496991464,6714848282989631.0,8.042712564290048e+16,724169134401268.6,860708378672119.0,79472369053452.22,170040968541956.56,2884430190752831.0,6.899345631848918e+16
41.85861126931294,6720892292128757.0,8.210633725704307e+16,724820956263346.6,861483099007289.2,81311901469504.69,173989848218646.03,2951431047335722.5,7.059240811261974e+16
42.7957834946992,6726832218172901.0,8.381852581211408e+16,725461553185924.1,862244477984257.2,83187748952467.7,178017291282548.4,3019765610038007.5,7.222301691249813e+16
43.751699164593184,6732671647397788.0,8.55643409197673e+16,726091311934279.9,862992975291384.6,85100614667057.75,182124843547911.34,3089460149808347.5,7.388589937712058e+16
44.72673314788505,6738414081806152.0,8.734444456568557e+16,726710610185205.5,863729039814941.1,87051215196228.97,186314081314414.47,3160541456842835.0,7.558168408052582e+16
