t(s),Total solute volume 1,Total retention volume 1,Total 1 volume 1,Total 2 volume 1,Total 3 volume 1,Total 4 volume 1,Total 5 volume 1,Total 6 volume 1
0.1,919935341976466.9,1072551036543860.6,72903600131805.52,79712094435588.67,0.0,0.0,0.0,0.0
0.202,1363638056211344.0,1634922557192310.5,108066425152917.5,118158789371436.92,77340982354.78761,145066390707.85278,2029374577017.3293,42807504506530.37
0.30604000000000003,1685515004417022.8,2077640276623432.8,133574727023042.27,146049321275186.72,193094019418.28012,362190799037.6096,5066813404944.156,106879125684781.06
0.41216080000000005,1944948624416249.5,2464284005424861.0,154134481703584.34,168529159265934.28,337555273098.4994,633177024849.1722,8857762042189.053,186843245698956.44
0.5204040160000001,2164580477962349.8,2818445956628408.5,171540001578468.5,187560187264523.62,505908764541.729,948995899866.2546,13275911346492.975,280034473812166.84
0.6308120963200001,2355898297072427.0,3151791118483740.5,186701673483396.8,204137813482537.75,695186989543.1206,1304084946740.277,18243449085600.55,384810613423490.5
0.7434283382464002,2525699462556713.5,3471059116028540.0,200158180423023.3,218851028735347.22,903354625184.6224,1694629924144.1272,23707019649078.395,500045440115045.6
0.8582969050113283,2678414834562808.5,3780550140473163.0,212260661920450.56,232083765599096.25,1128925061473.7014,2117845672998.1104,29627663560224.004,624916444096112.2
0.9754628431115548,2817131839056096.0,4083205534093615.5,223253792202488.97,244103548519048.3,1370767768833.096,2571614865006.46,35975763831990.7,758798207850149.9
1.094972099973786,2944109237279245.5,4381144519053984.0,233316574965633.88,255106098414406.0,1627999406295.8687,3054283799870.317,42728189330394.79,901202135858135.8
1.2168715419732616,3061062063309010.5,4675957439670248.0,242584924282392.8,265240022424091.12,1899916936784.727,3564536982090.7764,49866540208852.76,1051739435527027.1
1.3412089728127268,3169331097643047.5,4968877893836709.0,251165095148056.2,274621498737385.25,2185953928473.4326,4101315180076.61,57376001627873.21,1210096931571800.0
1.4680331522689813,3269989495831526.5,5260889606429213.0,259142133651914.25,283343515929838.06,2485650609635.4824,4663759277706.585,65244558291493.46,1376020492837100.0
1.597393815314361,3363912982300641.5,5552795851929873.0,266585439740440.66,291481955235012.1,2798632554690.73,5251170312150.333,73462435416786.14,1549303236370153.8
1.729341691620648,3451827812245337.0,5845266258983837.0,273552568130789.25,299099746426723.44,3124595038203.2354,5862980140831.004,82021688396567.1,1729776868605386.2
1.863928525453061,3534344581341228.5,6138869365823863.0,280091907683579.44,306249797419468.8,3463291252446.263,6498729353728.307,90915893818544.2,1917305164954869.0
2.001207095962122,3611982699666078.0,6434095874135111.0,286244620927245.94,312977114925678.3,3814523242195.133,7158050281296.129,100139911767963.08,2111778953324656.8
2.1412312378813647,3685188516667093.0,6731375643991296.0,292046080436557.3,319320374978169.1,4178134801984.0815,7840653682608.905,109689699613656.98,2313112183811218.5
2.284055862638992,3754349013269388.0,7031090365353712.0,297526953913232.4,325313109346846.9,4554005823485.679,8546318152973.548,119562163837231.45,2521238801010544.5
2.4297369798917723,3819802326987215.5,7333583173975335.0,302714038286400.3,330984617536129.25,4942047735938.038,9274881581416.998,129755040538391.28,2736110221309846.0
2.578331719489608,3881845968132649.0,7639166063805015.0,307630910835762.0,336360678716728.1,5342199784961.88,10026234180521.43,140266797936224.11,2957693274218174.0
2.7298983538794,3940743322183570.0,7948125681703438.0,312298444495222.5,341464115153696.25,5754425964432.898,10800312741079.518,151096556004835.16,3185968505160608.0
2.884496320956988,3996728859406809.5,8260727915422892.0,316735220708306.5,346315243618561.3,6178712464078.199,11597095854061.678,162244019641037.7,3420928763730036.0
3.0421862473761276,4050012355180881.5,8577221568395489.0,320957863882885.94,350932241078900.56,6615065529388.946,12416599906001.29,173709422651721.3,3662578020165728.0
3.2030299723236504,4100782343286384.5,8897841334453988.0,324981315059648.06,355331443924818.75,7063509654854.1,13258875699684.023,185493480488909.84,3910930366339688.0
3.3670905717701234,4149208967401948.0,9222810229520694.0,328819057889205.94,359527595050137.06,7524086049377.263,14124005585513.725,197597350129013.47,4166009167415501.5
3.5344323832055258,4195446355313899.5,9552341597538926.0,332483306784908.94,363534049576871.8,7996851325998.837,15012101013792.63,210022595840580.22,4427846337682888.0
3.7051210308696363,4239634610821271.5,9886640779308378.0,335985164778565.25,367362947453157.0,8481876378022.964,15923300436863.645,222771159846624.9,4696481719593854.0
3.879223451487029,4281901496617914.0,1.0225906512015274e+16,339334756886508.4,371025359274420.3,8979245411251.824,16857767504319.734,235845337087024.66,4971962549233829.0
4.0568079205167695,4322363865282882.0,1.057033211183196e+16,342541343513601.5,374531410278233.75,9489055107887.516,17815689505470.184,249247753440173.34,5254342994703729.0
4.237944078927105,4361128883350397.5,1.0920106480438878e+16,345613417459088.75,377890386409567.8,10011413902223.756,18797276021807.734,262981346882720.9,5543683756413076.0
4.422702960505647,4398295084175386.5,1.1275414967622388e+16,348558787354724.06,381110825551244.8,10546441351835.252,19802757758945.594,277049351160331.34,5840051720269909.0
4.61115701971576,4433953278196808.0,1.1636440115463732e+16,351384649801878.5,384200596397964.06,11094267590817.447,20832385532826.97,291455281616974.7,6143519656326449.0
4.803380160110075,4468187343680809.0,1.2003362304524268e+16,354097652036846.0,387166966973926.94,11655032853903.73,21886429389276.965,306202922889991.3,6454165956699513.0
4.9994477633122765,4501074916706289.0,1.2376360318464264e+16,356703946611229.75,390016664419863.3,12228887062121.727,22965177839404.594,321296318226242.0,6772074407599091.0
5.199436718578522,4532687995746818.0,1.2755611840425276e+16,359209239304232.06,392755927379855.06,12815989462137.293,24068937196154.465,336739760213722.06,7097333991122348.0
5.403425452950093,4563093473493734.0,1.3141293892056944e+16,361618831268895.0,395390552083636.3,13416508312652.123,25198030999588.656,352537782754921.0,7430038713143492.0
5.611493962009095,4592353606395809.0,1.3533583224121036e+16,363937656242458.4,397925933032039.94,14030620612221.06,26352799520356.3,368695154134468.3,7770287454183696.0
5.823723841249277,4620526430641846.0,1.393265666605062e+16,366170313512421.1,400367099041769.2,14658511863682.064,27533599332359.324,385216871055315.5,8118183840603207.0
6.040198318074262,4647666131895147.0,1.4338691440587908e+16,368321097217467.06,402718745282750.5,15300375871079.908,28740802946915.297,402108153535764.06,8473836133838793.0
6.261002284435747,4673823374930159.0,1.4751865448612158e+16,370394022470726.5,404985261841053.3,15956414565541.963,29974798501798.09,419374440574761.5,8837357135728132.0
6.486222330124463,4699045598373276.0,1.5172357528441634e+16,372392848717564.1,407170759258080.3,16626837857044.807,31235989499442.625,437021386505580.1,9208864108230672.0
6.715946776726952,4723377278965094.0,1.5600347693219658e+16,374321100678010.4,409279091428800.7,17311863509421.672,32524794589369.77,455054857968724.7,9588478706080232.0
6.950265712261491,4746860169112607.0,1.6036017349438002e+16,376182087172427.25,411313876185574.06,18011717036305.04,33841647390533.895,473480931443984.3,9976326921096562.0
7.18927102650672,4769533510958076.0,1.6479549499192388e+16,377978918086179.7,413278513847143.8,18726631615993.32,35186996349851.3,492305891289316.0,1.037253903704583e+16
7.433056447036854,4791434229738639.0,1.6931128928382836e+16,379714519693116.25,415176203973186.94,19456848023484.426,36561304633639.734,511536228240836.25,1.077724959407992e+16
7.681717575977592,4812597108829824.0,1.7390942382754482e+16,381391648527522.6,417009960531779.06,20202614578131.312,37965050049105.98,531178638333924.0,1.1190597361904206e+16
7.935351927497144,4833054948544883.0,1.785917873340745e+16,383012903968747.2,418782625659299.6,20964187105565.58,39398724993368.74,551240022210270.75,1.1612725320925318e+16
8.194058966047088,4852838710489194.0,1.8336029133181496e+16,384580739681087.4,420496882168690.5,21741828912690.645,40862836427805.78,571727484780030.6,1.204378065072204e+16
8.45794014536803,4871977649037756.0,1.8821687165131536e+16,386097474033205.44,422155264941951.75,22535810774689.445,42357905875776.3,592648335211807.6,1.2483914725256334e+16
8.72709894827539,4890499431305975.0,1.9316348984150404e+16,387565299605635.4,423760171325548.9,23346410933111.312,43884469441999.97,614010087226468.8,1.2933283114311678e+16
9.0016409272409,4908430246814016.0,1.98202134526609e+16,388986291881543.06,425313870632821.3,24173915104206.617,45443077852070.28,635820459673543.5,1.3392045590702692e+16
9.281673745785717,4925794907900601.0,2.033348227118005e+16,390362417204370.2,426818512844771.0,25018616496772.723,47034296510756.54,658087377371420.6,1.3860366142851404e+16
9.567307220701432,4942616941815230.0,2.0856360104463556e+16,391695540076022.3,428276136589853.2,25880815838853.598,48658705577899.43,680818972194643.6,1.4338412992371084e+16
9.85865336511546,4958918675310540.0,2.1389054703850132e+16,392987429860690.8,429688676473862.56,26760821412707.81,50316900060844.805,704023584393581.9,1.4826358616337928e+16
10.155826432417769,4974721312461685.0,2.1931777026354204e+16,394239766951934.6,431057969822954.94,27658949097521.387,52009489922469.914,727709764133349.8,1.532437977396429e+16
10.458942961066125,4990045006357982.0,2.248474135099201e+16,395454148454142.06,432385762895713.44,28575522419397.367,53737100203974.46,751886273240305.5,1.5832657537420456e+16
10.768121820287448,5004908925240943.0,2.3048165392771276e+16,396632093423879.1,433673716613977.3,29510872608203.48,55500371161687.49,776562087145877.6,1.635137732657671e+16
11.083484256693197,5019331313600046.0,2.3622270414727892e+16,397775047711642.2,434923411856779.06,30465338660901.406,57299958417237.97,801746397018470.8,1.6880728947462808e+16
11.405153941827061,5033329548683279.0,2.4207281338351268e+16,398884388440243.75,436136354356959.25,31439267411021.05,59136533120499.88,827448612075372.0,1.7420906634263886e+16
11.733257020663602,5046920192831424.0,2.4803426852705092e+16,399961428152228.4,437313979235915.6,32433013603976.293,61010782124794.56,853678362067437.4,1.7972109094689334e+16
12.067922161076874,5060119042002522.0,2.5410939522518332e+16,401007418655371.6,438457655208237.2,33446939977949.36,62923408173892.75,880445499930171.4,1.8534539558570216e+16
12.409280604298411,5072941170816098.0,2.6030055895493884e+16,402023554592375.7,439568688484764.9,34481417350099.953,64875130100404.805,907760104595582.2,1.9108405829554604e+16
12.75746621638438,5085400974413405.0,2.6661016609058844e+16,403010976758222.06,440648326399768.06,35536824707875.695,66866683035206.875,935632483959851.6,1.9693920339784476e+16
13.112615540712067,5097512207400681.0,2.7304066496758364e+16,403970775186391.44,441697760785369.94,36613549305227.625,68898818627581.01,964073178002444.2,2.0291300207450644e+16
13.474867851526309,5109288020116972.0,2.7959454694477828e+16,404903992023021.75,442718131114140.4,37711986763547.58,70972305275796.72,993092962052851.8,2.090076729713149e+16
13.844365208556836,5120740992444332.0,2.8627434746659772e+16,405811624206323.1,443710527428738.25,38832541177170.26,73087928367889.2,1022702850201666.1,2.1522548282833684e+16
14.221252512727972,5131883165358123.0,2.9308264712669508e+16,406694625966903.56,444675993075732.56,39975625223287.555,75246490532426.25,1052914098853088.6,2.2156874713659944e+16
14.605677562982532,5142726070396544.0,3.000220727344865e+16,407553911163177.56,445615527259128.44,41141660276149.06,77448811899082.83,1083738210416434.6,2.2803983082038148e+16
14.997791114242183,5153280757212238.0,3.070952983858622e+16,408390355464799.4,446530087427712.3,42331076525424.266,79695730368867.28,1115186937134521.1,2.3464114894452664e+16
15.397746936527026,5163557819354023.0,3.1430504653924696e+16,409204798395826.6,447420591509015.1,43544313098621.586,81988101893869.84,1147272285047223.2,2.4137516744626064e+16
15.805701875257567,5173567418413592.0,3.2165408909811424e+16,409998045248314.06,448287920001627.9,44781818187465.36,84326800766426.44,1180006518088723.8,2.4824440389105348e+16
16.221815912762718,5183319306660189.0,3.2914524850096824e+16,410770868876080.0,449132917936491.6,46044049178142.586,86712719917608.44,1213402162317338.2,2.5525142825210976e+16
16.64625223101797,5192822848275793.0,3.3678139881972068e+16,411524011377565.0,449956396716904.0,47331472785339.5,89146771224967.66,1247472010277009.0,2.6239886371314444e+16
17.079177275638333,5202087039293247.0,3.4456546686736296e+16,412258185675900.8,450759135846164.5,48644565189994.71,91629885829487.69,1282229125489835.2,2.696893874941167e+16
17.5207608211511,5211120526331496.0,3.5250043331573416e+16,412974077003649.9,451541884550975.25,49983812180704.46,94163014461703.3,1317686847079213.8,2.7712573169965724e+16
17.97117603757412,5219931624214213.0,3.605893338241556e+16,413672344299066.9,452305363308084.4,51349709298719.31,96747127776965.84,1353858794523370.2,2.8471068418995092e+16
18.430599558325603,5228528332550798.0,3.688352601796556e+16,414353621520103.06,453050265281028.6,52742761986478.16,99383216699846.64,1390758872539333.0,2.924470894738789e+16
18.899211549492115,5236918351352358.0,3.772413614494581e+16,415018518881966.1,453777257673245.56,54163485739629.484,102072292777686.14,1428401276097388.5,3.0033784962423532e+16
19.37719578048196,5245109095749456.0,3.858108451463758e+16,415667624023473.9,454486983003376.1,55612406262497.18,104815388543296.78,1466800495566460.2,3.083859252148907e+16
19.864739696091597,5253107709873343.0,3.945469784077039e+16,416301503107121.4,455180060308048.94,57090059626946.234,107613557886859.75,1505971321990888.8,3.1659433627977156e+16
20.36203449001343,5260921079956866.0,4.034530891881921e+16,416920701857323.06,455857086277093.3,58596992434612.92,110467876437039.88,1545928852499166.0,3.249661632935703e+16
20.869275179813698,5268555846707965.0,4.1253256746763624e+16,417525746540970.6,456518636325672.25,60133761982463.695,113379441951374.81,1586688495845550.5,3.3350454817409612e+16
21.38666068340997,5276018417003207.0,4.2178886647361176e+16,418117144894151.4,457165265607544.75,61700936431650.41,116349374715991.31,1628265978085308.8,3.4221269530623228e+16
21.91439389707817,5283314974946594.0,4.312255039198078e+16,418695386998539.94,457797509973302.94,63299094979632.1,119378817954715.28,1670677348384766.0,3.510938725874323e+16
22.452681775019734,5290451492334705.0,4.408460632604868e+16,419260946110733.25,458415886877160.94,64928828035535.41,122468938247644.92,1713938984967204.8,3.601514124947571e+16
23.00173541052013,5297433738566017.0,4.506541949614587e+16,419814279447562.44,459020896235612.1,66590737398725.76,125620925959273.92,1758067601195992.8,3.693887131734269e+16
23.561770118730532,5304267290030249.0,4.606536177880305e+16,420355828930184.44,459613021240998.1,68285436440565.66,128835995676245.6,1803080251796160.8,3.788092395468866e+16
24.133005521105144,5310957539010233.0,4.708481201103435e+16,420886021889536.56,460192729132865.3,70013550289335.54,132115386654837.64,1848994339216086.2,3.8841652444841496e+16
24.715665631527248,5317509702126824.0,4.812415612264642e+16,421405271735593.3,460760471929701.5,71775716018292.36,135460363278278.75,1895827620130711.5,3.982141697742709e+16
25.309978944157795,5323928828355193.0,4.918378727036352e+16,421913978592635.8,461316687123553.7,73572582836843.88,138872215524001.55,1943598212088017.8,4.082058476584331e+16
25.91617852304095,5330219806638656.0,5.026410597380252e+16,422412529902647.7,461861798339763.1,75404812284817.02,142352259440949.5,1992324600300563.8,4.1839530166895096e+16
26.53450209350177,5336387373124689.0,5.136552025333374e+16,422901300998746.56,462396215963955.6,77273078429794.55,145901837637053.88,2042025644583826.0,4.287863480259564e+16
27.165192135371807,5342436118045583.0,5.248844576986039e+16,423380655650484.8,462920337738263.4,79178068067500.5,149522319777011.3,2092720586443393.8,4.393828768413828e+16
27.808495978079243,5348370492265519.0,5.3633305966549304e+16,423850946582672.1,463434549328603.0,81120480925208.75,153215103090484.6,2144429056312919.0,4.501888533804385e+16
28.464665897640828,5354194813512995.0,5.48005322125412e+16,424312515969311.4,463939224864743.1,83101029868151.2,156981612890871.44,2197171080945030.5,4.612083193449008e+16
29.133959215593645,5359913272317978.0,5.599056394867384e+16,424765695904092.7,464434727454734.25,85120441108901.23,160823303104773.22,2250967090957278.0,4.724453941782606e+16
29.816638399905518,5365529937670462.0,5.7203848835242e+16,425210808848832.8,464921409675226.5,87179454419705.36,164741656812318.12,2305837928535408.5,4.839042763928008e+16
30.51297116790363,5371048762416541.0,5.84408429018241e+16,425648168061104.5,465399614039041.8,89278823347738.98,168738186798482.16,2361804855296296.0,4.9558924491864984e+16
31.223230591261704,5376473588407388.0,5.9702010699199176e+16,426078078002287.2,465869673441327.3,91419315433253.55,172814436115563.22,2418889560312907.0,5.075046604748652e+16
31.947695203086937,5381808151414882.0,6.09878254533807e+16,426500834727127.1,466331911585495.8,93601712430585.75,176971978656977.34,2477114168303811.0,5.196549669626175e+16
32.686649107148675,5387056085827350.0,6.229876922178728e+16,426916726255859.75,466786643390107.56,95826810532002.31,181212419742524.2,2536501247989583.5,5.320446928804987e+16
33.44038208929165,5392220929137591.0,6.363533305157625e+16,427326032929884.4,467234175377756.25,98095420594335.77,185537396715306.03,2597073820619094.0,5.446784527620229e+16
34.20918973107749,5397306126234869.0,6.4998017140156616e+16,427729027751900.1,467674806046967.5,100408368368385.42,189948579550458.78,2658855368667843.5,5.575609486353609e+16
34.993373525699035,5402315033511677.0,6.6387330997903576e+16,428125976711363.44,468108826228056.94,102766494731038.69,194447671475888.25,2721869844711560.5,5.706969715053396e+16
35.793240996213015,5407250922795647.0,6.7803793613092264e+16,428517139096074.94,468536519423817.44,105170655920071.5,199036409605167.8,2786141680477488.5,5.840914028577404e+16
36.60910581613728,5412116985115961.0,6.9247933619066296e+16,428902767790674.1,468958162135884.25,107621723771587.23,203716565582802.53,2851695796076586.5,5.977492161859278e+16
37.44128793246003,5416916334313393.0,7.07202894636571e+16,429283109562727.1,469374024177541.2,110120585960044.3,208489946242042.28,2918557609419119.0,6.116754785398226e+16
38.29011369110923,5421652010502493.0,7.222140958086869e+16,429658405337097.94,469784368973722.2,112668146240819.4,213358394275423.16,2986753045817143.5,6.258753520972202e+16
39.15591596493141,5426326983393828.0,7.375185256483957e+16,430028890459232.75,470189453848874.06,115265324695261.48,218323788918250.28,3056308547776566.5,6.40354095757478e+16
40.03903428423004,5430944155483720.0,7.531218734609259e+16,430394794947942.2,470589530303357.7,117913057978164.97,223388046645210.16,3127251084982034.5,6.551170667575207e+16
40.93981496991464,5435506365118757.0,7.690299337008149e+16,430756343738256.75,470984844278972.1,120612299567617.38,228553121880309.28,3199608164477883.0,6.701697223101955e+16
41.85861126931294,5440016389441471.0,7.852486077804552e+16,431113756914874.8,471375636414212.7,123364020017139.22,233821007720364.5,3273407841048276.5,6.8551762126488936e+16
42.7957834946992,5444476947223711.0,8.017839059017206e+16,431467249936697.25,471762142289771.75,126169207210061.83,239193736672226.34,3348678727799945.5,7.011664257903972e+16
43.751699164593184,5448890701593536.0,8.186419489107867e+16,431817033852928.9,472144592664823.06,129028866616055.48,244673381403973.3,3425450006950817.5,7.171219030799639e+16
