t(s),Total solute volume 1,Total retention volume 1,Total 1 volume 1,Total 2 volume 1,Total 3 volume 1,Total 4 volume 1,Total 5 volume 1,Total 6 volume 1
0.1,821307387244814.4,914309965951331.9,46537842289353.97,46464736417161.86,0.0,0.0,0.0,0.0
0.202,1237123028675035.5,1378098466857449.5,70099255596714.234,69989137481452.94,2460267336.2073927,4012494874.9329534,45515981022.93395,835056361012.9126
0.30604000000000003,1553412795643716.2,1731566858795677.0,88021221896543.95,87882950390787.27,6240155576.625274,10177200019.904398,115445804247.82306,2118027704784.0088
0.41216080000000005,1820632120506603.0,2030790429925563.5,103162703644926.61,103000646568945.61,11080135630.98344,18070853794.53795,204988131833.4415,3760820083830.0835
0.5204040160000001,2057661747542586.8,2296746197269473.0,116593542799883.84,116410387379208.48,16864466755.110132,27504700596.755035,312001799649.98895,5724148580793.074
0.6308120963200001,2273907765548524.5,2539882806394466.5,128846717738263.73,128644313950713.12,23530569426.586765,38376686118.62093,435329150408.4916,7986772751009.258
0.7434283382464002,2474836633479558.0,2766272649540295.0,140231975102069.28,140011686348695.97,31042182584.936848,50627679307.450424,574299431353.6854,10536385316723.672
0.8582969050113283,2663949677647948.0,2979805971722046.0,150947710978485.03,150710589002504.06,39378331553.43129,64223480112.44012,728524697154.868,13365867584292.072
0.9754628431115548,2843645561545016.5,3183149043421711.0,161129841134459.78,160876724170720.9,48527889679.9594,79145950069.96329,897799198838.3649,16471443532930.324
1.094972099973786,3015650776794302.0,3378222312425852.5,170876193979008.53,170607766584924.3,58486564302.90014,95388096735.89159,1082043623609.6182,19851656782976.72
1.2168715419732616,3181255990959778.0,3566462861298023.0,180259902768397.47,179976734617239.78,69255083676.07898,112951116768.74326,1281271552826.2915,23506755199326.54
1.3412089728127268,3341455454575669.0,3748979182765646.0,189337304843962.66,189039877109357.3,80838038437.13113,131842506511.10846,1495568029239.6206,27438297662470.594
1.4680331522689813,3497033971336386.0,3926647718687442.5,198152869634781.16,197841593633863.66,93243106438.16913,152074797798.84354,1725075216564.695,31648890961609.926
1.597393815314361,3648623658804588.5,4100175854352582.0,206742414896706.4,206417645680927.94,106480515133.49602,173664681203.7602,1969982453937.8225,36142007320083.7
1.729341691620648,3796742393652695.0,4270144578866499.0,215135285139858.7,214797331663729.3,120562658024.05214,196632380528.9974,2230519160481.597,40921854211177.84
1.863928525453061,3941820673627583.0,4437038288002224.5,223355873711462.84,223005006610275.22,135503814832.91951,221001196480.93088,2506949658939.5166,45993279382641.34
2.001207095962122,4084220888836107.0,4601266162817600.0,231424714767088.6,231061172419274.5,151319943771.38608,246797167915.1907,2799569333023.635,51361700350427.25
2.1412312378813647,4224251465488666.5,4763177858662513.0,239359284699349.0,238983278029883.1,168028525282.6119,274048817039.20645,3108701737131.5356,57033051365174.18
2.284055862638992,4362177447735795.5,4923075249826207.0,247174601739322.88,246786318084591.1,185648443194.9623,302786955946.98334,3434696462894.9707,63013750404467.96
2.4297369798917723,4498228587904338.0,5081221374023101.0,254883684368506.97,254483290607381.78,204199895088.85587,333044539207.1546,3777927222995.2314,69310639485592.77
2.578331719489608,4632605547218365.0,5237847354121184.0,262497902680327.53,262085547834123.6,223704321790.58554,364856550829.7625,4138790934579.835,75931004581166.7
2.7298983538794,4765484814062484.0,5393157825194596.0,270027257058009.9,269603074438554.78,244184355610.85358,398259918626.5306,4517706504382.514,82882528856926.02
2.884496320956988,4897022581777705.0,5547335244412243.0,277480597904207.28,277044706920333.0,265663780440.35013,433293449499.531,4915114155521.215,90173286424542.06
3.0421862473761276,5027357866953605.0,5700543351857591.0,284865802333173.5,284418310019646.1,288167502394.49963,469997781619.4701,5331474885071.15,97811732382079.62
3.2030299723236504,5156615038052179.0,5852929977912185.0,292189917450497.9,291730919771866.6,311721528790.7678,508415350196.10583,5767270075823.383,105806695682818.89
3.3670905717701234,5284905884730285.0,6004629341782365.0,299459277607366.6,298988860577624.5,336352953933.17633,548590364353.2689,6223001234011.584,114167374314804.5
3.5344323832055258,5412331325520495.0,6155763949462370.0,306679601163112.44,306197841813346.4,362089950523.7844,590568793183.7631,6699189831173.697,122903332390528.6
3.7051210308696363,5538982827933973.0,6306446173250792.0,313856070952661.75,313363038172305.7,388961765778.2421,634398359479.145,7196377233076.559,132024498833510.28
3.879223451487029,5664943597788124.0,6456779575793629.0,320993401677564.75,320489156949784.5,416998721516.7893,680128539946.2151,7715124702225.804,141541167414470.94
4.0568079205167695,5790289581779706.0,6606860027449378.0,328095896714921.25,327580494762758.4,446232217650.36993,727810570963.9342,8256013463226.323,151463997940146.7
4.237944078927105,5915090317746126.0,6756776655151308.0,335167496295836.3,334640985652669.9,476694738595.969,777497459121.0703,8819644822376.533,161804018436602.53
4.422702960505647,6039409659803835.0,6906612652899217.0,342211818594030.75,341674242109494.6,508419862244.3228,829243995920.187,9406640334526.283,172572628199168.72
4.61115701971576,6163306400005876.0,7056445977861934.0,349232194950896.44,348683590241460.75,541442271173.18976,883106776147.7438,10017642011525.13,183781601604863.78
4.803380160110075,6286834803876940.0,7206349951324971.0,356231700220590.7,355672100072474.75,575797765854.8065,939144219500.5237,10653312567611.672,195443092601994.53
4.9994477633122765,6410045073850501.0,7356393780020328.0,363213179029829.3,362642611760662.25,611523279650.3912,997416595130.7675,11314335697915.402,207569639806649.7
5.199436718578522,6532983752014737.0,7506643010475850.0,370179268598725.25,369597758383360.56,648656895420.1538,1057986048830.455,12001416386898.96,220174172147868.38
5.403425452950093,6655694071503769.0,7657159926725633.0,377132418651722.44,376539985816768.3,687237863606.0112,1120916632622.0237,12715281244101.98,233270015013039.44
5.611493962009095,6778216264222286.0,7808003899897959.0,384074908854224.3,383471570145195.9,727306621667.6748,1186274336561.162,13456678864981.236,246870896853035.75
5.823723841249277,6900587831269092.0,7959231696730217.0,391008864135644.06,390394632960027.4,768904814771.8887,1254127122588.4065,14226380214996.2,260990956213091.8
6.040198318074262,7022843781358773.0,8110897752880247.0,397936268199120.3,397311154848229.75,812075317650.4451,1324544960292.2256,15025179035381.12,275644749160796.06
6.261002284435747,7145016841674518.0,8263054415943042.0,404858975469093.0,404222987321150.25,856862257555.5453,1397599864467.2664,15853892269285.953,290847257086982.3
6.486222330124463,7267137644878348.0,8415752162299499.0,411778721687891.7,411131863394462.1,903311038252.0084,1473365934369.45,16713360507169.31,306613894858992.3
6.715946776726952,7389234895425362.0,8569039791281111.0,418697133339613.75,418039406997240.56,951468364994.7236,1551919394583.9534,17604448450492.934,322960519308832.0
6.950265712261491,7511335517849683.0,8722964599605394.0,425615736052478.75,424947141361115.6,1001382270447.438,1633338637434.7397,18528045392907.42,339903438041318.75
7.18927102650672,7633464789294324.0,8877572538596781.0,432535962108374.3,431856496518022.0,1053102141505.13,1717704266874.4507,19485065718236.023,357459418549457.44
7.433056447036854,7755646458225877.0,9032908356343422.0,439459157169612.75,438768816016387.8,1106678746987.7344,1805099143802.278,20476449414662.035,375645697626090.6
7.681717575977592,7877902851000816.0,9189015726634112.0,446386586317297.5,445685362950019.75,1162164266177.2751,1895608432764.631,21503162604608.707,394479991062403.56
7.935351927497144,8000254967716554.0,9345937366263074.0,453319439482555.8,452607325380795.94,1219612318174.4277,1989319649999.8438,22566198089869.9,413980503625137.5
8.194058966047088,8122722568587022.0,9503715142075052.0,460258836340840.6,459535821225288.5,1279077992053.6328,2086322712793.103,23666575911611.3,434165939305469.8
8.45794014536803,8245324251916325.0,9662390168938778.0,467205830730163.9,466471902666048.6,1340617877798.6016,2186709990112.5027,24805343924909.203,455055511833421.1
8.72709894827539,8368077524603895.0,9822002899682914.0,474161414646143.4,473416560140382.1,1404290098002.4246,2290576354500.6895,25983578387540.65,476668955452453.44
9.0016409272409,8490998865995628.0,9982593207896138.0,481126521859996.9,480370725952659.2,1470154340318.2842,2398019235199.801,27202384562769.367,499026535949555.5
9.281673745785717,8614103785792773.0,1.0144200464378856e+16,488102031199852.94,487335277550470.6,1538271890648.608,2509138672490.108,28462897335907.734,522149061936685.75
9.567307220701432,8737406876643247.0,1.0306863607938542e+16,495088769530729.94,494311040499923.0,1608705667061.6143,2624037373224.986,29766281844456.76,546057896379897.3
9.85865336511546,8860921861964303.0,1.0470621211136344e+16,502087514464326.2,501298791191177.06,1681520254425.645,2742820767546.682,31113734121649.45,570774968372880.1
10.155826432417769,8984661639481350.0,1.0635511541520694e+16,509098996826052.06,508299259301601.5,1756781939752.33,2865597066769.0854,32506481753240.02,596322785151949.6
10.458942961066125,9108638320910036.0,1.0801572618822218e+16,516123902903559.56,515313130040767.4,1834558748240.7053,2992477322414.85,33945784547396.477,622724444349804.5
10.768121820287448,9232863268162224.0,1.0968842268528858e+16,523162876498268.44,522341046198758.25,1914920480014.7808,3123575486395.2715,35432935217566.266,650003646485605.8
11.083484256693197,9357347126411616.0,1.1137358172214538e+16,530216520798976.9,529383610016832.25,1997938747547.8125,3259008472322.3364,36969260078194.016,678184707689043.1
11.405153941827061,9482099854320066.0,1.1307157914953284e+16,537285400094578.94,536441384897451.94,2083687013766.714,3398896217943.013,38556119753178.94,707292572656300.4
11.733257020663602,9607130751691966.0,1.147827903011412e+16,544370041341045.2,543514896968801.06,2172240630830.555,3543361748686.0474,40194909896964.73,737352827835822.5
12.067922161076874,9732448484796608.0,1.1650759041802252e+16,551470935596268.8,550604636517378.7,2263676879577.1626,3692531242312.572,41887061928158.97,768391714841942.2
12.409280604298411,9858061109573100.0,1.1824635505183142e+16,558588539334927.94,557711059300795.56,2358075009632.0337,3846534094661.3613,43634043775583.78,800436144094450.4
12.75746621638438,9983976092911282.0,1.1999946044902852e+16,565723275654327.6,564834587751720.4,2455516280173.947,4005502986480.2427,45437360636658.16,833513708682216.5
13.112615540712067,1.0110200332182156e+16,1.21767283917957e+16,572875535381059.5,571975612082802.1,2556084001351.428,4169573951335.116,47298555748016.41,867652698448986.2
13.474867851526309,1.0236740173175168e+16,1.2355020418052706e+16,580045678087378.2,579134491301451.0,2659863576344.6074,4338886444587.76,49219211168265.11,902882114299483.1
13.844365208556836,1.036360142658411e+16,1.2534860171006128e+16,587234033025347.4,586311554142513.9,2766942544066.4404,4513583413433.953,51200948572779.58,939231682723876.6
14.221252512727972,1.0490789383170142e+16,1.271628590567193e+16,594440899986025.2,593507099926117.6,2877410622497.59,4693811367992.907,53245430060441.63,976731870538708.4
14.605677562982532,1.0618308827719324e+16,1.289933611617754e+16,601666550090340.5,600721399347289.4,2991359752648.821,4879720453438.917,55354358972213.93,1015413899842261.9
14.997791114242183,1.074616405190064e+16,1.30840495661918e+16,608911226517659.1,607954695203392.6,3108884143144.733,5071464523165.955,57529480721447.82,1055309763182343.9
15.397746936527026,1.0874358866121494e+16,1.327046531846243e+16,616175145177580.1,615207203064855.0,3230080315422.4263,5269201212975.625,59772583635814.16,1096452238934324.1
15.805701875257567,1.1002896610469982e+16,1.3458622763557958e+16,623458495329924.6,622479111894201.1,3355047149538.3315,5473092016278.197,62085499810745.08,1138874906887266.0
16.221815912762718,1.1131780164824398e+16,1.3648561647900984e+16,630761440157594.6,629770584617988.1,3483885930576.411,5683302360296.6455,64470105974269.414,1182612164035855.5
16.64625223101797,1.126101195820483e+16,1.3840322101174916e+16,638084117296459.8,637081758655879.8,3616700395650.4146,5900001683262.733,66928324363118.766,1227699240575730.5
17.079177275638333,1.1390593977435466e+16,1.4033944663176208e+16,645426639326185.2,644412746410696.2,3753596781492.717,6123363512593.731,69462123609978.61,1274172216099777.5
17.5207608211511,1.1520527775180256e+16,1.4229470310179972e+16,652789094225561.6,651763635723022.6,3894683872621.8975,6353565544038.187,72073519641750.58,1322068035992721.2
17.97117603757412,1.1650814477410026e+16,1.442694048088123e+16,660171545795619.4,659134490293667.5,4040073050080.798,6590789721778.329,74764576588685.42,1371424528021394.5
18.430599558325603,1.1781454790355028e+16,1.462639710196781e+16,667574034053566.6,666525350076980.1,4189878340736.518,6835222319476.055,77537407704242.9,1422280419117766.2
18.899211549492115,1.1912449006991604e+16,1.4827882613376546e+16,674996575600360.8,673936231647842.9,4344216467133.307,7087054022249.096,80394176295524.5,1474675352351818.5
19.37719578048196,1.2043797013109208e+16,1.5031439993281208e+16,682439163964475.4,681367128544897.5,4503206897888.814,7346480009562.9375,83337096664117.06,1528649904091050.2
19.864739696091597,1.2175498292999582e+16,1.5237112782854496e+16,689901769924273.0,688818011592408.1,4666971898623.836,7613700039023.612,86368435057178.0,1584245601343403.5
20.36203449001343,1.2307551934806868e+16,1.5444945110844046e+16,697384341811150.8,696288829202941.6,4835636583414.801,7888918531054.964,89490510628582.28,1641504939280045.0
20.869275179813698,1.2439956635574666e+16,1.5654981717998562e+16,704886805795527.5,703779507662898.5,5009328966757.993,8172344654444.122,92705696409939.1,1700471398934323.8
21.38666068340997,1.2572710706022312e+16,1.586726798137556e+16,712409066157489.0,711289951402725.4,5188180016033.511,8464192412736.414,96016420291274.72,1761189465072958.0
21.91439389707817,1.2705812075080876e+16,1.6081849938560532e+16,719951005543793.5,718820043253534.0,5372323704456.162,8764680731460.8955,99425166011164.03,1823704644235247.5
22.452681775019734,1.2839258294215418e+16,1.6298774311822368e+16,727512485212806.2,726369644691635.8,5561897064499.881,9074033546165.518,102934474156074.2,1888063482935766.5
23.00173541052013,1.297304654155884e+16,1.6518088532227352e+16,735093345268720.2,733938596072401.5,5757040241780.697,9392479891239.447,106546943168670.14,1954313586025678.5
23.561770118730532,1.3107173625878532e+16,1.6739840763730602e+16,742693404886325.9,741526716854677.6,5957896549382.566,9720253989498.469,110265230364805.42,2022503635207382.0
24.133005521105144,1.3241635990395428e+16,1.6964079927260474e+16,750312462527412.6,749133805816841.2,6164612522608.884,10057595342506.55,114092052958897.22,2092683407696789.2
24.715665631527248,1.3376429716472476e+16,1.7190855724807754e+16,757950296149755.0,756759641265475.8,6377337974140.5205,10404748821605.178,118030189097363.6,2164903795026941.8
25.309978944157795,1.3511550527186052e+16,1.7420218663528086e+16,765606663409504.6,764403981237421.5,6596226049580.36,10761964759618.254,122082478899760.9,2239216821986143.2
25.91617852304095,1.3646993790792814e+16,1.7652220079863196e+16,773281301857606.6,772066563695897.1,6821433283361.426,11129499043197.88,126251825507224.55,2315675665683101.0
26.53450209350177,1.3782754524100262e+16,1.7886912163681644e+16,780973929130806.1,779747106721207.8,7053119654994.005,11507613205772.59,130541196137784.98,2394334674730850.0
27.165192135371807,1.3918827395748182e+16,1.8124347982437212e+16,788684243137582.2,787445308696372.4,7291448645624.622,11896574521055.586,134953623148073.17,2475249388540288.0
27.808495978079243,1.4055206729405112e+16,1.836458150533854e+16,796411922239248.6,795160848487963.2,7536587294876.71,12296656097065.844,139492205100889.03,2558476556713408.0
28.464665897640828,1.4191886506880874e+16,1.8607667627521136e+16,804156625426351.5,802893385622204.4,7788706257940.17,12708136970610.955,144160107838045.7,2644074158525098.0
29.133959215593645,1.4328860371155776e+16,1.8853662194206772e+16,811917992490289.6,810642560456331.4,8047979862873.568,13131302202174.287,148960565557846.5,2732101422481457.5
29.816638399905518,1.4466121629322406e+16,1.910262202483432e+16,819695644190016.9,818407994345036.6,8314586168078.771,13566442971143.506,153896881896483.22,2822618845941143.5
30.51297116790363,1.4603663255436374e+16,1.9354604937140604e+16,827489182413570.8,826189289801735.0,8588707019904.604,14013856671311.863,158972431012572.84,2915688214785133.0
31.223230591261704,1.4741477893268582e+16,1.9609669771166612e+16,835298190334021.9,833986030654273.6,8870528110331.404,14473847006576.023,164190658673975.56,3011372623118860.5
31.947695203086937,1.4879557858951062e+16,1.986787641316168e+16,843122232559402.6,841797782194625.5,9160239034684.389,14946724086748.072,169555083345961.34,3109736492989174.5
32.686649107148675,1.5017895143506942e+16,2.0129285819354308e+16,850960855276054.1,849624091322005.6,9458033349318.844,15432804523391.322,175069297279698.3,3210845594096917.0
33.44038208929165,1.5156481440736278e+16,2.0393960038797704e+16,858813587828306.2,857464488119103.5,9764108645451.305,15932411550564.396,180736967594095.06,3314767034323878.0
34.20918973107749,1.5295308047477636e+16,2.066196223910307e+16,866679937068691.1,865318480215061.0,10078666541979.598,16445875020970.81,186561837384508.3,3421569395394243.0
34.993373525699035,1.5434366018881814e+16,2.0933356727195556e+16,874559396153673.6,873185561561540.4,10401912839172.83,16973531649707.803,192547726771923.3,3531322579337710.5
35.793240996213015,1.5573646068126556e+16,2.120820897302963e+16,882451438862884.1,881065206764789.1,10734057511537.2,17515725010587.879,198698534001827.5,3644097942751458.5
36.60910581613728,1.5713138593806666e+16,2.1486585632141496e+16,890355521150694.4,888956872633792.2,11075314780288.6,18072805655015.133,205018236511067.88,3759968287603969.0
37.44128793246003,1.5852833681536036e+16,2.1768554567840244e+16,898271081237010.1,896859998270924.4,11425903169404.684,18645131205633.656,211510891991903.44,3879007880429327.0
38.29011369110923,1.5992721105361472e+16,2.205418487299602e+16,906197539687363.1,904774005151922.0,11786045561116.016,19233066449151.31,218180639446767.5,4001292471338205.5
39.15591596493141,1.6132790328982002e+16,2.2343546891383292e+16,914134299482014.2,912698297194867.1,12155969250742.08,19836983428187.68,225031700232038.44,4126899312813441.5
40.03903428423004,1.6273030506770374e+16,2.2636712238541236e+16,922080746073829.1,920632260817987.9,12535906000773.484,20457261531989.37,232068379089035.66,4255907178257230.5
40.93981496991464,1.6413430484597068e+16,2.2933753822114464e+16,930036247434970.6,928575264986259.9,12926092094099.123,21094287585850.48,239295065160407.94,4388396380255830.5
41.85861126931294,1.6553978800459694e+16,2.3234745861641256e+16,938000154092559.4,936526661247028.2,13326768386274.605,21748455939072.57,246716232990036.03,4524448788526616.0
42.7957834946992,1.6694663684925934e+16,2.353976390775946e+16,945971799153784.2,944485783755059.1,13738180356725.473,22420168551294.957,254336443504529.75,4664147847512092.0
43.751699164593184,1.6835473061401962e+16,2.38488848608056e+16,953950498321094.8,952451949287725.0,14160578158779.13,23109835077023.918,262160344974393.5,4807578593584622.0
44.72673314788505,1.6976394546242814e+16,2.4162186988788104e+16,961935549898461.6,960424457251252.5,14594216668417.725,23817872948192.203,270192673952921.44,4954827671826083.0
