t(s),Total solute volume 1,Total retention volume 1,Total 1 volume 1,Total 2 volume 1,Total 3 volume 1,Total 4 volume 1,Total 5 volume 1,Total 6 volume 1
0.1,941999071437344.5,1111941895936827.4,80338108873842.89,89604715625638.98,0.0,0.0,0.0,0.0
0.202,1419163355970950.8,1675202166886899.8,121032922337840.83,134993476979028.14,19177063.678089175,37085145.63637192,543141775.75907,11812195094.16843
0.30604000000000003,1782596539168187.5,2104220166346547.5,152028212695722.03,169563922327447.94,48656994.65264366,94094282.45626123,1378091402.8966863,29971312508.98397
0.41216080000000005,2090008805024322.5,2467116073544936.5,178245775856370.6,198805553000733.9,86428725.25877795,167138343.49983433,2447887851.248141,53238208587.598335
0.5204040160000001,2363013141093084.5,2789401423484049.5,201528869011242.12,224774236913546.0,131599846.48081642,254491561.81146863,3727255389.8517914,81063119374.0948
0.6308120963200001,2612377886469772.5,3083786924680528.5,222795866742315.84,248494278665714.88,183691803.04164395,355228493.3265812,5202639940.398311,113151242484.43452
0.7434283382464002,2844361707359649.5,3357660170858753.0,242580537526017.53,270561014315656.94,242431117.32841507,468820279.25124013,6866295832.281961,149334110202.46387
0.8582969050113283,3062973979373588.5,3615753755558915.0,261224819762588.94,291355823184315.9,307663617.45518583,594968777.7209663,8713856477.157051,189516749545.6065
0.9754628431115548,3270962154593527.0,3861310739361436.0,278963029081312.72,311140048061603.5,379312180.05662614,733524845.5657289,10743137519.745005,233651650446.09088
1.094972099973786,3470304571693188.5,4096666351047699.5,295963887504393.2,330101872228813.4,457353330.27467936,884443086.6771885,12953474081.612202,281724350805.14105
1.2168715419732616,3662480998950913.0,4323567329250932.5,312353596626928.9,348382054017021.8,541803182.3658776,1047754663.5444353,15345322558.922686,333744775664.83344
1.3412089728127268,3848632197732489.5,4543360266435310.0,328229445940856.2,366089104784594.44,632708470.9632922,1223549953.2474449,17920006602.321068,389741712344.45905
1.4680331522689813,4029659458823080.5,4757109098361402.0,343668301761245.56,383308756999586.06,730140564.111761,1411966969.6912355,20679547549.202236,449759122404.98413
1.597393815314361,4206289558798010.5,4965671776334378.0,358732147010971.1,400110143011448.7,834191324.4016334,1613183359.7469478,23626547199.398643,513853592070.0417
1.729341691620648,4379118752777727.0,5169752194638366.0,373471833129658.9,416549979724306.8,944970169.095045,1827410718.03976,26764104549.73418,582092521241.2223
1.863928525453061,4548643510201413.0,5369936469865682.0,387929701364952.6,432675492241330.2,1062601938.1209924,2054890464.017174,30095755409.70232,654552810168.9156
2.001207095962122,4715282563848230.0,5566718966710276.0,402141463216689.75,448526511208950.2,1187225324.1048563,2295890805.895791,33625427935.5392,731319892341.2439
2.1412312378813647,4879393091420293.0,5760521398058721.0,416137580478374.8,464137012039345.2,1318991704.3354478,2550704481.8867826,37357409548.2947,812487014969.5203
2.284055862638992,5041282828686636.0,5951707122859451.0,429944298303030.0,479536267135388.2,1458064267.2064342,2819647070.884426,41296322192.24278,898154700871.7472
2.4297369798917723,5201219296270750.0,6140592037060827.0,443584432107024.75,494749723559972.75,1604617359.0935957,3103055729.4400234,45447103836.64829,988430346145.7365
2.578331719489608,5359436936995137.0,6327452998265556.0,457077976276355.5,509799681953580.9,1758835999.4878395,3401288254.1136875,49814994743.00879,1083427921488.5815
2.7298983538794,5516142713346839.0,6512534432786812.0,470442581544837.1,524705828975720.8,1920915526.8716033,3714722396.66162,54405527435.311646,1183267754054.4968
2.884496320956988,5671520551775574.0,6696053581564414.0,483693934024718.8,539485660054851.06,2091061347.8948073,4043755378.987165,59224519596.02369,1288076372945.5356
3.0421862473761276,5825734910901481.0,6878204711992159.0,496846059520236.7,554154818803026.3,2269488769.459903,4388803568.423863,64278069310.29643,1397986405774.4783
3.2030299723236504,5978933675417630.0,7059162533834389.0,509911570333211.0,568727372289303.1,2456422898.357022,4750302283.649104,69572552223.38016,1513136516838.7788
3.3670905717701234,6131250524822216.0,7239084995264134.0,522901867279661.8,583216036357982.2,2652098596.739329,5128705708.583152,75114620279.58609,1633671379692.0623
3.5344323832055258,6282806888692772.0,7418115590883270.0,535827306444794.6,597632361617974.4,2856760484.414133,5524486896.822034,80911201787.20491,1759741678554.2742
3.7051210308696363,6433713573216598.0,7596385281716822.0,548697337901149.3,611986888161397.5,3070662980.930139,5938137853.029434,86969502610.55986,1891504134236.1973
3.879223451487029,6584072123944585.0,7774014103866128.0,561520621930668.25,626289275191291.5,3294070381.9549747,6370169680.640295,93297008333.26077,2029121551186.8164
4.0568079205167695,6733975974606425.0,7951112525269094.0,574305127004685.6,640548410313805.8,3527256966.2796116,6821112800.270831,99901491070.28218,2172763483332.5774
4.237944078927105,6883511424421452.0,8127782596930401.0,587058213118926.4,654772502442485.0,3770507125.900545,7291517155.564542,106790998093.74507,2322603925159.5986
4.422702960505647,7032758467350679.0,8304118935582483.0,599786702538178.5,668969160767923.5,4024115526.6382813,7781952592.078594,113973878872.55977,2478824978718.5015
4.61115701971576,7181791508267953.0,8480209566713446.0,612496940859858.5,683145462821115.4,4288387283.5034885,8293009151.088978,121458775108.50566,2641614592984.306
4.803380160110075,7330679978189314.0,8656136651528610.0,625194849487397.8,697308013010375.9,4563638159.204506,8825297464.758768,129254630076.04984,2811167275830.7646
4.9994477633122765,7479488867690648.0,8831977116740231.0,637885971122627.5,711462993361035.5,4850194780.325755,9379449174.193602,137370694745.17944,2987684227221.9863
5.199436718578522,7628279191034409.0,9007803202576744.0,650575509348668.5,725616207664038.1,5148394870.717467,9956117380.78113,145816534391.68597,3171373482979.047
5.403425452950093,7777108391677150.0,9183682941608180.0,663268363213536.0,739773120048587.6,5458587501.19476,10555977129.06991,154602035669.37943,3362450068593.0757
5.611493962009095,7926030697944734.0,9359680578759210.0,675969157563781.6,753938888814633.9,5781133354.833809,11179725919.810854,163737414124.05496,3561136162646.1895
5.823723841249277,8075097436149919.0,9535856941096632.0,688682269748632.5,768118396217195.8,6116405007.30981,11828084252.08711,173233222133.48776,3767661269498.061
6.040198318074262,8224357307207278.0,9712269764538494.0,701411853211029.5,782316274778504.1,6464787221.852754,12501796193.712315,183100357261.45483,3982262400977.213
6.261002284435747,8373856631810737.0,9888973983463132.0,714161858397495.2,796536930609742.6,6826677258.507028,13201629979.290398,193350071016.86874,4205184266883.183
6.486222330124463,8523639568430284.0,1.0066021988243536e+16,726936051349937.8,810784564147302.5,7202485197.473721,13928378635.509148,203993978011.79337,4436679474163.871
6.715946776726952,8673748307721962.0,1.0243463854948358e+16,739738030285838.0,825063188645429.9,7592634276.394573,14682860633.394838,215044065514.31674,4677008734680.682
6.950265712261491,8824223246397878.0,1.0421347550806348e+16,752571240426704.0,839376646715055.0,7997561241.504591,15465920567.386627,226512703394.23178,4926441081516.925
7.18927102650672,8975103143149883.0,1.0599719118496266e+16,765438987295981.0,853728625155558.4,8417716712.639511,16278429861.20408,238412654461.12433,5185254093820.61
7.433056447036854,9126425258843594.0,1.077862284187781e+16,778344448675449.8,868122668290283.4,8853565562.136265,17121287500.581968,250757085195.96075,5453734130205.372
7.681717575977592,9278225482883506.0,1.0958101395408084e+16,791290685382235.6,882562189986618.4,9305587307.710266,17995420793.033764,263559576878.53152,5732176570761.067
7.935351927497144,9430538447385288.0,1.1138195979175062e+16,804280651005968.0,897050484516288.6,9774276519.433334,18901786154.884342,276834137114.2843,6020886067750.482
8.194058966047088,9583397630568486.0,1.1318946441215352e+16,817317200726589.6,911590736390256.6,10260143240.973665,19841369925.882385,290595211765.07904,6320176805091.004
8.45794014536803,9736835450593514.0,1.1500391388562044e+16,830403099317209.8,926186029284671.2,10763713425.290205,20815189211.76629,304857697289.36273,6630372766740.713
8.72709894827539,9890883350906256.0,1.1682568288277736e+16,843541028422711.0,940839354159010.5,11285529385.00539,21824292755.215935,319636953498.06305,6951808014125.929
9.0016409272409,1.0045571878017958e+16,1.1865513559567392e+16,856733593193169.6,955553616654654.5,11826150257.7072,22869761835.6748,334948816733.3305,7284826972765.282
9.281673745785717,1.0200930752530222e+16,1.2049262657927746e+16,869983328341199.4,970331643850897.2,12386152486.45618,23952711198.577118,350809613477.9408,7629784728260.082
9.567307220701432,1.0356988934114752e+16,1.2233850152171062e+16,883292703683747.1,985176190445977.8,12966130315.798418,25074290014.56099,367236174403.86786,7987047331836.288
9.85865336511546,1.0513774681072698e+16,1.2419309795060422e+16,896664129221571.8,1000089944422431.6,13566696303.606722,26235682869.29116,384245848869.163,8356992115636.434
10.155826432417769,1.0671315605021786e+16,1.2605674588204552e+16,910099959803228.0,1015075532249066.9,14188481849.094355,27438110784.556637,401856519872.88995,8740008017974.219
10.458942961066125,1.0829638721197174e+16,1.2792976841786106e+16,923602499414976.1,1030135523665667.1,14832137737.365318,28682832271.34899,420086619478.44116,9136495918775.215
10.768121820287448,1.0988770494795286e+16,1.2981248229629012e+16,937174005133168.2,1045272436091289.6,15498334700.886438,29971144415.663467,438955144716.113,9546868985441.404
11.083484256693197,1.1148736883740766e+16,1.3170519840056124e+16,950816690771649.4,1060488738692361.8,16187763998.283224,31304383997.802994,458481673976.3647,9971553029387.46
11.405153941827061,1.1309563378215616e+16,1.3360822222935444e+16,964532730252972.2,1075786856142750.2,16901138010.88248,32683928646.00136,478686383905.7077,10410986873508.434
11.733257020663602,1.1471275037251714e+16,1.3552185433271942e+16,978324260729165.9,1091169172104507.8,17639190857.441067,34111198025.216587,499590066817.70264,10865622730850.688
12.067922161076874,1.163389652265525e+16,1.374463907166257e+16,992193385475001.0,1106638032454844.2,18402679027.519444,35587655061.980156,521214148632.02704,11335926594767.623
12.409280604298411,1.1797452130504178e+16,1.3938212321898038e+16,1006142176574220.9,1122195748282212.9,19192382033.975773,37114807206.22256,543580707355.0907,11822378640853.564
12.75746621638438,1.1961965820433858e+16,1.4132933985966934e+16,1020172677417160.1,1137844598672016.5,20009103085.07359,38694207731.03011,566712492116.1953,12325473640959.893
13.112615540712067,1.212746124290402e+16,1.4328832516689754e+16,1034286905026205.1,1153586833300291.0,20853669776.71486,40327457071.32032,590632942773.7014,12845721389608.285
13.474867851526309,1.229396176462116e+16,1.4525936048189236e+16,1048486852223923.1,1169424674851930.5,21726934805.3274,42016204202.46047,615366210106.1732,13383647143126.592
13.844365208556836,1.2461490492272404e+16,1.4724272424381126e+16,1062774489657221.1,1185360321278307.8,22629776701.951744,43762148059.883316,640937176604.0066,13939792071844.297
14.221252512727972,1.2630070294712686e+16,1.4923869225653122e+16,1077151767689554.1,1201395947907743.2,23563100588.092957,45567039000.79362,667371477877.481,14514713725694.543
14.605677562982532,1.279972382373192e+16,1.5124753793882444e+16,1091620618172050.2,1217533709420941.0,24527838953.91926,47432680309.088905,694695524697.7386,15108986513581.78
14.997791114242183,1.2970473533518284e+16,1.5326953255928786e+16,1106182956103425.5,1233775741702332.5,25524952459.406017,49360929744.65617,722936525687.7032,15723202196884.256
15.397746936527026,1.3142341698921146e+16,1.553049454572606e+16,1120840681187557.2,1250124163577326.8,26555430759.045727,51353701138.24056,752122510680.4142,16357970397472.314
15.805701875257567,1.3315350432609832e+16,1.573540442508592e+16,1135595679296825.0,1266581078444459.8,27620293350.75867,53412966033.11443,782282354762.8281,17013919120634.682
16.221815912762718,1.3489521701213028e+16,1.5941709503314412e+16,1150449823848595.2,1283148575810602.0,28720590449.660427,55540755374.81851,813445803023.657,17691695293316.473
16.64625223101797,1.3664877340518014e+16,1.6149436255735444e+16,1165404977101450.0,1299828732736742.5,29857403887.360573,57739161250.2755,845643496024.33,18391965318083.906
17.079177275638333,1.3841439069800902e+16,1.6358611041205362e+16,1180462991377361.2,1316623615201126.8,31031848037.48582,60010338677.61954,878906996012.7201,19115415643243.54
17.5207608211511,1.4019228505353212e+16,1.6569260118696058e+16,1195625710215278.5,1333535279385890.5,32245070768.141262,62356507448.11906,913268813899.8428,19862753349554.7
17.97117603757412,1.4198267173263876e+16,1.6781409663017532e+16,1210894969461266.0,1350565772892944.8,33498254422.041668,64779954021.612595,948762437020.2794,20634706753986.082
18.430599558325603,1.4378576521511394e+16,1.6995085779744346e+16,1226272598299757.2,1367717135894184.2,34792616825.0666,67283033476.910904,985422357697.6621,21432026030981.984
18.899211549492115,1.4560177931416096e+16,1.721031451940541e+16,1241760420230250.8,1384991402220857.5,36129412324.01324,69868171518.6647,1023284102637.108,22255483851712.6
19.37719578048196,1.4743092728497346e+16,1.7427121890991358e+16,1257360253993298.8,1402390600396317.5,37509932854.34085,72537866542.23207,1062384263167.1562,23105876041798.715
19.864739696091597,1.4927342192778744e+16,1.7645533874829522e+16,1273073914449344.8,1419916754616273.5,38935509038.72282,75294691758.12506,1102760526354.2502,23984022258013.39
20.36203449001343,1.5112947568578454e+16,1.786557643487239e+16,1288903213413709.0,1437571885680066.2,40407511317.2439,78141297377.65395,1144451707013.536,24890766684474.883
20.869275179813698,1.5299930073820856e+16,1.808727553044152e+16,1304849960450726.5,1455358011876421.8,41927351110.10214,81080412861.43156,1187497780640.2869,25826978748862.043
21.38666068340997,1.548831090890187e+16,1.8310657127466124e+16,1320915963629821.2,1473277149826705.5,43496482013.696625,84114849232.44196,1231939917286.9355,26793553859192.664
21.91439389707817,1.5678111265136874e+16,1.8535747209252024e+16,1337103030245993.8,1491331315288540.8,45116401031.00606,87247501455.4253,1277820516411.339,27791414161723.242
22.452681775019734,1.5869352332820064e+16,1.876257178681363e+16,1353412967507141.2,1509522523922407.8,46788649837.186806,90481350884.36868,1325183242722.5098,28821509320539.844
23.00173541052013,1.6062055308919302e+16,1.8991156908799532e+16,1369847583190329.5,1527852792023599.2,48514816081.33726,93819467779.94571,1374073063050.8022,29884817319426.402
23.561770118730532,1.6256241404429898e+16,1.922152867104008e+16,1386408686268940.8,1546324137221722.0,50296534725.408775,97265013898.78752,1424536284270.0994,30982345286608.766
24.133005521105144,1.6451931851408844e+16,1.9453713225741144e+16,1403098087512614.0,1564938579149805.0,52135489421.257065,100821245156.51378,1476620592300.2766,32115130342989.65
24.715665631527248,1.6649147909708398e+16,1.968773679034971e+16,1419917600061487.5,1583698140084824.0,54033413926.85756,104491514366.50769,1530375092218.9507,33284240474503.145
25.309978944157795,1.6847910873426728e+16,1.9923625656110716e+16,1436869039976351.0,1602604845561284.2,55992093562.73209,108279274056.44896,1585850349512.029,34490775429231.56
25.91617852304095,1.704824207709141e+16,2.0161406196335376e+16,1453954226766014.2,1621660724959401.2,58013366709.656296,112188079364.68272,1643098432493.5242,35735867639944.05
26.53450209350177,1.7250162901590016e+16,2.0401104874398304e+16,1471174983893055.0,1640867812069248.2,60099126348.740456,116221591018.53508,1702172955925.4434,37020683172728.695
27.165192135371807,1.7453694779859484e+16,2.0642748251478856e+16,1488533139259115.2,1660228145631928.5,62251321645.00459,120383578396.73805,1763129125869.5173,38346422702404.53
27.808495978079243,1.7658859202345888e+16,2.0886362994058708e+16,1506030525670435.8,1679743769858917.2,64471959575.581985,124677922678.16684,1826023785802.9736,39714322515415.44
28.464665897640828,1.7865677722241602e+16,2.113197588118806e+16,1523668981284590.8,1699416734930237.5,66763106603.71746,129108620079.1348,1890915464031.2307,41125655540917.15
29.133959215593645,1.80741719605079e+16,2.137961381152766e+16,1541450350038776.5,1719249097472194.0,69126890399.73924,133679785181.53209,1957864422430.9893,42581732410785.77
29.816638399905518,1.8284363610685596e+16,2.1629303810172564e+16,1559376482060138.5,1739242921015020.0,71565501610.20229,138395654354.12573,2026932706557.684,44083902549282.29
30.51297116790363,1.8496274443496628e+16,2.188107303526057e+16,1577449234058176.0,1759400276430530.0,74081195676.42274,143260589269.372,2098184197151.6445,45633555293121.18
31.223230591261704,1.8709926311234564e+16,2.2134948784364548e+16,1595670469699194.0,1779723242349787.0,76676294703.62645,148279080518.11795,2171684663077.8213,47232121042696.86
31.947695203086937,1.89253411519396e+16,2.2390958500663824e+16,1614042059962384.0,1800213905560230.5,79353189381.95346,153455751324.58032,2247501815734.053,48881072445226.35
32.686649107148675,1.9142540993350308e+16,2.2649129778886588e+16,1632565883476832.5,1820874361381582.2,82114340960.55714,158795361364.01138,2325705364963.039,50581925610573.31
33.44038208929165,1.9361547956620284e+16,2.2909490371009108e+16,1651243826838489.8,1841706714019337.0,84962283276.0386,164302810685.4409,2406367076503.1743,52336241360511.82
34.20918973107749,1.95823842597817e+16,2.3172068191693308e+16,1670077784905561.8,1862713076894272.2,87899624836.45361,169983143741.88614,2489560831013.07,54145626512187.95
34.993373525699035,1.9805072220935364e+16,2.343689132343756e+16,1689069661070589.5,1883895572945878.8,90929050962.10243,175841553530.38715,2575362684704.3965,56011735196527.42
35.793240996213015,2.002963426113865e+16,2.3703988021408184e+16,1708221367506722.2,1905256334907041.5,94053325984.3022,181883385844.15884,2663850931616.5503,57936270212317.586
36.60910581613728,2.02560929069574e+16,2.397338671791297e+16,1727534825385359.8,1926797505546801.8,97275295503.29482,188114143639.12146,2755106167566.233,59920984416676.92
37.44128793246003,2.0484470792640524e+16,2.4245116026467996e+16,1747011965061623.5,1948521237877196.8,100597888706.40378,194539491516.9359,2849211355803.1,61967682152591.234
38.29011369110923,2.0714790661867924e+16,2.4519204745400508e+16,1766654726223421.0,1970429695319539.2,104024120747.48584,201165260326.5854,2946251894401.281,64078220714158.4
39.15591596493141,2.0947075369014324e+16,2.4795681860920796e+16,1786465057999232.5,1992525051824622.2,107557095188.65195,207997451886.37698,3046315685414.3794,66254511850138.73
40.03903428423004,2.1181347879861916e+16,2.5074576549583824e+16,1806444919018873.0,2014809491940503.0,111200006505.1328,215042243828.06552,3149493205818.5615,68498523306347.09
40.93981496991464,2.1417631271684656e+16,2.5355918180050764e+16,1826596277420712.8,2037285210820527.8,114956142654.05905,222305994564.57272,3255877580265.5977,70812280407354.98
41.85861126931294,2.1655948732617012e+16,2.563973631404775e+16,1846921110797801.8,2059954414163270.8,118828887707.77602,229795248382.52753,3365564655663.5938,73197867677885.92
42.7957834946992,2.18963235602084e+16,2.59260607064051e+16,1867421406074624.8,2082819318075054.8,122821724552.1763,237516740660.53085,3478653077598.6865,75657430504193.4
43.751699164593184,2.213877915905328e+16,2.6214921304047748e+16,1888099159304952.5,2105882148844492.0,126938237650.33017,245477403213.71347,3595244368606.0015,78193176835594.94
44.72673314788505,2.238333903737454e+16,2.6506348243792652e+16,1908956375380481.5,2129145142617507.2,131182115871.50143,253684369764.74207,3715443008292.1475,80807378926209.52
