t(s),Total solute volume 1,Total retention volume 1,Total 1 volume 1,Total 2 volume 1,Total 3 volume 1,Total 4 volume 1,Total 5 volume 1,Total 6 volume 1
0.1,1225891390677807.5,1918426285810987.5,281662698191601.44,410872196941578.9,0.0,0.0,0.0,0.0
0.202,1844637886150656.8,2886761361568105.0,423826853897675.8,618252543355735.1,16634142.983110655,48611239.551572874,1320548539.0787885,42692370116.82472
0.30604000000000003,2316458282022167.5,3625192086725079.5,532233038545604.06,776388820935211.6,42194932.48026815,123309863.76937321,3350149304.004318,108429567996.68396
0.41216080000000005,2715641476601690.0,4249970253220145.5,623949987095055.2,910179865442184.5,74942820.27297018,219012076.1467935,5950508506.824883,192679617813.00427
0.5204040160000001,3070176380995306.0,4804894307977820.0,705408475316198.2,1029006498424533.0,114104889.3124557,333459086.8910397,9060228386.688162,293445449419.54504
0.6308120963200001,3394025596687257.5,5311813551430990.0,779816572188503.8,1137548453929469.8,159266603.7819358,465439451.3135501,12646383923.391973,409657535781.04083
0.7434283382464002,3695308626453547.5,5783433754308442.0,849039827252195.2,1238527080998666.2,210191092.20205218,614260933.8975346,16690162017.442654,540704989989.41675
0.8582969050113283,3979228436530186.5,6227896805723300.0,914273682087798.4,1333686216331224.0,266744861.59825987,779533413.4917562,21180960220.645355,686243535601.8718
0.9754628431115548,4249351047580712.0,6650783077738588.0,976337471124075.6,1424221054621060.0,328861190.436726,961061902.2380726,26113479040.43169,846101010606.073
1.094972099973786,4508244536762407.0,7056111360789870.0,1035821239743907.1,1510992317793715.2,396519854.82947814,1158787297.2048995,31486111699.48129,1020225070996.4025
1.2168715419732616,4757829955335688.0,7446887990502786.0,1093166371658160.6,1594643869265906.8,469734946.586714,1372750779.7607753,37299976625.53388,1208651780680.6614
1.3412089728127268,4999588344489059.0,7825430790958376.0,1148713153182350.8,1675672097789329.5,548547101.8342569,1603071104.4351277,43558300251.07862,1411485579174.8027
1.4680331522689813,5234689894709294.0,8193571185433995.0,1202730449093564.2,1754469206766718.5,633018313.2567167,1849929438.1904168,50266005010.83172,1628885911663.287
1.597393815314361,5464078244865010.0,8552786108485990.0,1255435071318459.0,1831351468103241.0,723228343.7647426,2113558879.7079093,57429424525.0799,1861057987532.4414
1.729341691620648,5688527581026487.0,8904287354462729.0,1307004898046479.2,1906578359562314.0,819272179.1715506,2394237015.080346,65056101300.14222,2108246216942.5613
1.863928525453061,5908682532197009.0,9249084006361730.0,1357588040234850.5,1980365936299501.5,921258180.9743943,2692280519.4948683,73154640029.72217,2370729451641.43
2.001207095962122,6125086792416210.0,9588027223616400.0,1407309417867366.8,2052896423904455.2,1029306726.2201517,3008041182.372652,81734599579.04623,2648817480891.23
2.1412312378813647,6338204127482644.0,9921843113320262.0,1456275586491464.5,2124325259056442.0,1143549195.7235572,3341902950.535437,90806412633.89151,2942848424938.3086
2.284055862638992,6548434100849334.0,1.0251157338039452e+16,1504578350424319.5,2194786360247199.2,1264127217.5142574,3694279717.253662,100381325618.79922,3253186786034.4575
2.4297369798917723,6756124052804789.0,1.0576513860811464e+16,1552297515108025.0,2264396142747411.5,1391192101.3524528,4065613669.6738906,110471353789.03798,3580221991677.365
2.578331719489608,6961578367251120.0,1.0898389445828694e+16,1599503016258881.0,2333256624478753.5,1524904419.0947542,4456374062.479121,121089247905.2286,3924367313558.077
2.7298983538794,7165065739401813.0,1.1217205031015146e+16,1646256589704840.8,2401457861870110.0,1665433698.4024456,4867056322.781343,132248469908.98448,4286059078460.0337
2.884496320956988,7366824946368271.0,1.1533334757976934e+16,1692613097244462.0,2469079883939020.5,1812958206.0100315,5298181416.745038,143963175710.8892,4665756109839.033
3.0421862473761276,7567069480312540.0,1.184711322214666e+16,1738621591167194.2,2536194245148445.5,1967664802.884235,5750295426.303532,156248203687.55927,5063939354563.705
3.2030299723236504,7765991306115441.0,1.2158841353017438e+16,1784326177621060.8,2602865284834424.0,2129748857.964442,6223969297.073731,169119067830.85696,5481111660530.856
3.3670905717701234,7963763937169466.0,1.2468791227422718e+16,1829766723311566.2,2669151158094990.0,2299414210.3376193,6719798727.81593,182591954743.43094,5917797679018.12
3.5344323832055258,8160544974327767.0,1.2777210042804624e+16,1874979438854566.2,2735104686749453.5,2476873172.0288253,7238404178.588472,196683723859.65274,6374543871632.574
3.7051210308696363,8356478217992936.0,1.3084323422570426e+16,1919997364053038.2,2800774067230321.0,2662346565.3251467,7780430979.823258,211411910408.94464,6851918606189.49
3.879223451487029,8551695437695089.0,1.3390338185525092e+16,1964850774478083.8,2866203463678642.0,2856063789.8638988,8346549528.383857,226794730742.74588,7350512329236.39
4.0568079205167695,8746317864523825.0,1.3695444681660476e+16,2009567524372418.8,2931433508150530.5,3058262915.7188506,8937455559.600729,242851089726.04565,7870937805522.307
4.237944078927105,8940457457554416.0,1.3999818774323866e+16,2054173337626387.2,2996501725075108.5,3269190799.494104,9553870486.543724,259600589955.98297,8413830416709.766
4.422702960505647,9134217984636882.0,1.4303623531933384e+16,2098692056101753.5,3061442893493929.0,3489103221.040092,10196541799.56075,277063542618.0903,8979848513185.46
4.61115701971576,9327695949677590.0,1.4607010679515984e+16,2143145852685352.8,3126289357850586.5,3718265038.883382,10866243520.50583,295260979828.6228,9569673814054.354
4.803380160110075,9520981392183876.0,1.4910121850392034e+16,2187555414993687.5,3191071295967674.0,3956950362.8410077,11563776707.18695,314214668341.52844,10184011851378.914
4.9994477633122765,9714158579889920.0,1.5213089670583084e+16,2231940104511737.2,3255816951188646.0,4205442742.594435,12289970004.454485,333947124522.78876,10823592455508.215
5.199436718578522,9907306611395574.0,1.5516038702436388e+16,2276318095056192.0,3320552834359528.0,4464035371.24383,13045680239.068186,354481630514.3628,11489170278974.904
5.403425452950093,1.0100499942676486e+16,1.5819086269151548e+16,2320706493747191.5,3385303900295030.5,4733031303.064254,13831793056.067741,375842251525.91034,12181525356954.994
5.611493962009095,1.0293808848874618e+16,1.61223431780622e+16,2365121447110101.0,3450093702553274.0,5012743684.849764,14649223594.852514,398053854205.5309,12901463702709.285
5.823723841249277,1.0487299830816802e+16,1.6425914357455854e+16,2409578234477751.0,3514944529685265.0,5303496000.367661,15498917203.574886,421142126051.60516,13649817936775.887
6.040198318074262,1.0681035974123322e+16,1.6729899419235104e+16,2454091350499887.5,3579877525594548.0,5605622327.559389,16381850190.783735,445133595836.8318,14427447948976.97
6.261002284435747,1.0875077267484614e+16,1.7034393157712618e+16,2498674578270819.0,3644912796211411.0,5919467608.219533,17299030613.534462,470055655023.15424,15235241592548.572
6.486222330124463,1.1069480885633312e+16,1.7339485993190432e+16,2543341054345595.5,3710069504334401.0,6245387929.965717,18251499101.417828,495936580152.72876,16074115409911.303
6.715946776726952,1.1264301441679576e+16,1.7645264367626402e+16,2588103326716869.5,3775365954203444.5,6583750820.381442,19240329716.162735,522805556205.5178,16945015389776.908
6.950265712261491,1.1459591212764812e+16,1.7951811098579696e+16,2632973406661553.0,3840819667130579.5,6934935553.272942,20266630846.641502,550692700918.8765,17848917755440.09
7.18927102650672,1.1655400342403788e+16,1.8259205696706084e+16,2677962815231190.0,3906447449317196.0,7299333467.033107,21331546139.25656,579629090068.57,18786829784236.887
7.433056447036854,1.1851777022392156e+16,1.856752465130772e+16,2723082625047276.5,3972265452822545.0,7677348295.15073,22436255463.820396,609646783714.2024,19759790658266.9
7.681717575977592,1.2048767656748194e+16,1.8876841687800324e+16,2768343497968870.5,4038289230510866.0,8069396508.942508,23581975915.15613,640778853415.3257,20768872346580.92
7.935351927497144,1.224641700981393e+16,1.918722800042366e+16,2813755719120459.5,4104533785689189.0,8475907672.621464,24769962850.749153,673059410427.115,21815180519123.996
8.194058966047088,1.244476834035011e+16,1.9498752463066252e+16,2859329227701816.5,4171013617050874.5,8897324810.846586,26001510964.874493,706523634887.2107,22899855492807.434
8.45794014536803,1.2643863523214288e+16,1.981148182069319e+16,2905073644945032.0,4237742759457529.5,9334104788.92748,27277955399.707104,741207806007.4913,24024073210158.31
8.72709894827539,1.284374316000394e+16,2.012548086353817e+16,2950998299535933.0,4304734821022326.0,9786718705.884106,28600672893.99944,777149333286.6488,25189046251059.05
9.0016409272409,1.304444667986759e+16,2.0440812585944584e+16,2997112250776713.5,4372003016898104.0,10255652300.585669,29971082969.982807,814386788761.4023,26396024878156.06
9.281673745785717,1.324601243153665e+16,2.0757538331503164e+16,3043424309731212.0,4439560200122910.5,10741406371.215736,31390649159.211197,852959940315.909,27646298116571.113
9.567307220701432,1.3448477767499576e+16,2.107571792592871e+16,3089943058564982.0,4507418889832001.0,11244497208.330385,32860880268.13223,892909786070.6428,28941194868605.855
9.85865336511546,1.3651879121128196e+16,2.139540979894461e+16,3136676868265914.0,4575591297107722.0,11765457041.798197,34383331684.22373,934278589873.5786,30282085064177.84
10.155826432417769,1.3856252077470238e+16,2.1716671096293012e+16,3183633914909602.5,4644089348706260.0,12304834501.927574,35959606723.593185,977109917918.0275,31670380847779.445
10.458942961066125,1.4061631438336728e+16,2.203955778285597e+16,3230822194614030.5,4712924708872765.0,12863195095.106354,37591358020.98765,1021448676512.8649,33107537802792.785
10.768121820287448,1.4268051282243346e+16,2.23641247377619e+16,3278249537311654.5,4782108799431153.0,13441121694.296173,39280288963.21417,1067341151032.3889,34595056214043.977
11.083484256693197,1.4475545019697944e+16,2.269042584225078e+16,3325923619452477.0,4851652818314549.0,14039215044.740166,41028155167.02108,1114835046074.2537,36134482369518.914
11.405153941827061,1.4684145444275432e+16,2.3018514060987364e+16,3373851975738991.0,4921567756683580.0,14658094285.26008,42836766002.537735,1163979526855.3699,37727409902209.414
11.733257020663602,1.4893884779869952e+16,2.3348441517435052e+16,3422042009982980.5,4991864414763518.0,15298397485.5347,44707986163.41703,1214825261876.887,39375481173098.3
12.067922161076874,1.5104794724473968e+16,2.3680259563838344e+16,3470501005164251.5,5062553416517389.0,15960782199.768349,46643737284.87737,1267424466890.6482,41080388696334.48
12.409280604298411,1.531690649079659e+16,2.401401884630293e+16,3519236132763124.0,5133645223259643.0,16645926037.172377,48645999610.87872,1321830950200.8618,42843876607690.56
12.75746621638438,1.5530250843999954e+16,2.434976936541254e+16,3568254461430856.5,5205150146303977.0,17354527249.701122,50716813711.72243,1378100159335.8635,44667742177433.73
13.112615540712067,1.574485813680529e+16,2.4687560532776108e+16,3617562965055650.5,5277078358729636.0,18087305337.497097,52858282253.40679,1436289229126.2239,46553837368786.38
13.474867851526309,1.5960758342193736e+16,2.5027441223859016e+16,3667168530276021.0,5349439906341318.0,18845001672.518173,55072571820.114716,1496457031226.645,48504070443189.766
13.844365208556836,1.6177981083904816e+16,2.5369459827418004e+16,3717077963488204.0,5422244717891278.0,19628380140.8338,57361914791.26234,1558664225120.377,50520407613625.336
14.221252512727972,1.6396555664915918e+16,2.5713664291826964e+16,3767297997389618.0,5495502614624437.0,20438227804.094543,59728611274.57873,1622973310646.2378,52604874747294.516
14.605677562982532,1.6616511094067798e+16,2.6060102168554292e+16,3817835297096411.5,5569223319202308.0,21275355580.695023,62175031096.73877,1689448682089.402,54759559118991.28
14.997791114242183,1.6837876110985924e+16,2.6408820653026256e+16,3868696465869384.0,5643416464055692.0,22140598947.167225,64703615853.11488,1758156683878.7324,56986611216553.32
15.397746936527026,1.7060679209432842e+16,2.6759866623091224e+16,3919888050479520.0,5718091599211422.0,23034818660.356007,67316881018.26631,1829165667934.4463,59288246599812.96
15.805701875257567,1.7284948659214618e+16,2.7113286675277396e+16,3971416546241206.0,5793258199634709.0,23958901500.948887,70017418118.83101,1902546052711.468,61666747814516.63
16.221815912762718,1.7510712526753026e+16,2.74691271590207e+16,4023288401738923.0,5868925672123998.0,24913761038.945103,72807896970.53569,1978370383985.0364,64124466362723.64
16.64625223101797,1.773799869442469e+16,2.782743420902323e+16,4075510023270673.5,5945103361792814.0,25900338421.670033,75691067981.09113,2056713397426.627,66663824731241.86
17.079177275638333,1.7966834878759856e+16,2.8188253775888956e+16,4128087779029348.5,6021800558169318.0,26919603184.95657,78669764520.78995,2137652083019.5312,69287318479700.73
17.5207608211511,1.8197248647585284e+16,2.8551631655169324e+16,4181028003041464.0,6099026500941843.0,27972554088.13338,81746905362.6804,2221265751365.0107,71997518389910.38
17.97117603757412,1.842926743618754e+16,2.891761351494212e+16,4234336998880910.5,6176790385376364.0,29060219973.47877,84925497194.23653,2307636101931.215,74797072678202.52
18.430599558325603,1.8662918562567884e+16,2.9286244922034696e+16,4288021043173948.5,6255101367429208.0,30183660650.818146,88208637202.50777,2396847293298.778,77688709272496.61
18.899211549492115,1.889822924185218e+16,2.9657571366993884e+16,4342086388909997.5,6333968568576840.0,31343967807.959084,91599515734.77974,2488986015458.2,80675238155881.66
19.37719578048196,1.9135226599915668e+16,3.0031638287897788e+16,4396539268572121.0,6413401080382244.0,32542265947.682816,95101419036.8401,2584141564216.0547,83759553778559.92
19.864739696091597,1.9373937686275736e+16,3.0408491093094436e+16,4451385897099297.0,6493407968816197.0,33779713352.0246,98717732070.99452,2682405917768.21,86944637540043.28
20.36203449001343,1.9614389486302864e+16,3.0788175182948336e+16,4506632474692022.0,6573998278349890.0,35057503074.600266,102451941416.04794,2783873815500.3115,90233560343547.89
20.869275179813698,1.9856608932795336e+16,3.117073597066712e+16,4562285189471670.0,6655181035834236.0,36376863961.75494,106307638251.51265,2888642839076.8696,93629485224586.94
21.38666068340997,2.0100622916958824e+16,3.1556218902276892e+16,4618350220003299.0,6736965254179946.0,37739061703.33178,110288521428.3772,2996813495882.5923,97135670055813.42
21.91439389707817,2.0346458298830308e+16,3.194466947580766e+16,4674833737690547.0,6819359935851177.0,39145399913.877335,114398400628.83018,3108489304880.7407,100755470330223.39
22.452681775019734,2.059414191718136e+16,3.2336133259747844e+16,4731741909051114.0,6902374076184672.0,40597221245.128334,118641199617.39403,3223776884955.472,104492342024879.31
23.00173541052013,2.0843700598933196e+16,3.273065591081997e+16,4789080897879948.0,6986016666545486.0,42095908530.639,123020959585.98824,3342786045806.4946,108349844547384.66
23.561770118730532,2.1095161168114588e+16,3.3128283191128516e+16,4846856867307380.0,7070296697329148.0,43642885963.43772,127541842595.52226,3465629881466.692,112331643767380.36
24.133005521105144,2.134855045438922e+16,3.3529060984724836e+16,4905075981758459.0,7155223160819801.0,45239620307.62186,132208135116.66403,3592424866514.623,116441515135416.55
24.715665631527248,2.1603895301179184e+16,3.393303531363202e+16,4963744408819413.0,7240805053912960.0,46887622144.82383,137024251672.51855,3723290955056.3413,120683346891591.78
25.309978944157795,2.186122257340817e+16,3.4340252353370172e+16,5022868321016657.0,7327051380710582.0,48588447156.50485,141994738586.01428,3858351682552.286,125061143366434.66
25.91617852304095,2.212055916488588e+16,3.4750758448017984e+16,5082453897513526.0,7413971154996168.0,50343697443.06344,147124277834.8673,3997734270567.5137,129579028376552.12
26.53450209350177,2.238193200535442e+16,3.5164600124846064e+16,5142507325729252.0,7501573402596370.0,52155022880.76075,152417691017.07272,4141569734525.1714,134241248717641.67
27.165192135371807,2.2645368067215436e+16,3.558182410855371e+16,5203034802884581.0,7589867163635733.0,54024122517.50037,157879943429.93835,4289992994545.373,139052177757529.56
27.808495978079243,2.2910894371955348e+16,3.600247733513914e+16,5264042537478038.0,7678861494690095.0,55952746008.52285,163516148265.76712,4443142989453.68,144016319131966.62
28.464665897640828,2.3178537996284548e+16,3.642660696543156e+16,5325536750696517.0,7768565470844348.0,57942695093.10084,169331570927.36072,4601162794045.517,149138310545978.3
29.133959215593645,2.3448326078006204e+16,3.6854260398311096e+16,5387523677763664.0,7858988187659352.0,59995825113.349495,175331633466.60214,4764199739695.114,154422927683642.0
29.816638399905518,2.372028582162773e+16,3.728548528364295e+16,5450009569229210.0,7950138763052616.0,62114046576.29812,181521919149.46237,4932405538399.576,159875088229233.97
30.51297116790363,2.3994444503728228e+16,3.77203295349449e+16,5513000692202172.0,8042026339097433.0,64299326760.38979,187908177150.8499,5105936410351.37,165499856002762.38
31.223230591261704,2.427082947809399e+16,3.8158841341815624e+16,5576503331530825.0,8134660083743974.0,66553691367.6147,194496327382.81436,5284953215134.3955,171302445212979.0
31.947695203086937,2.4549468180632336e+16,3.8601069182139704e+16,5640523790931705.0,8228049192466311.0,68879226222.50415,201292465459.70093,5469621586641.38,177288224831037.16
32.686649107148675,2.4830388134074932e+16,3.904706183409046e+16,5705068394070215.0,8322202889838674.0,71278079019.24747,208302867803.93747,5660112071812.766,183462723088042.06
33.44038208929165,2.5113616952479668e+16,3.949686838795026e+16,5770143485595039.0,8417130431044406.0,73752461118.22408,215533996896.2355,5856600273299.752,189831632099825.72
34.20918973107749,2.5399182345539516e+16,3.995053825776241e+16,5835755432128162.0,8512841103320147.0,76304649393.2727,222992506674.0647,6059266996156.408,196400812622341.38
34.993373525699035,2.568711212270765e+16,4.04081211928344e+16,5901910623212502.0,8609344227338239.0,78936988131.05484,230685248082.36798,6268298398668.599,203176298941182.7
35.793240996213015,2.5977434197144476e+16,4.086966728910537e+16,5968615472219050.0,8706649158529895.0,81651890983.89752,238619274780.56894,6483886147429.913,210164303898787.16
36.60910581613728,2.6270176589496052e+16,4.1335227000394056e+16,6035876417214827.0,8804765288351392.0,84451842977.54204,246801849010.03073,6706227576777.532,217371224063000.38
37.44128793246003,2.6565367431508172e+16,4.180485114954042e+16,6103699921793247.0,8903702045495384.0,87339402575.24495,255240447626.20883,6935525852703.399,224803645040724.12
38.29011369110923,2.6863034969483224e+16,4.227859093945525e+16,6172092475868467.0,9003468897049580.0,90317203799.7311,263942768299.86404,7171990141359.246,232468346940508.6
39.15591596493141,2.716320756758511e+16,4.275649796408883e+16,6241060596434707.0,9104075349604394.0,93387958414.51457,272916735891.77637,7415835782276.201,240372309987997.47
40.03903428423004,2.7465913710997316e+16,4.32386242193324e+16,6310610828291806.0,9205530950311396.0,96554458166.15123,282170509005.529,7667284466423.14,248522720298243.5
40.93981496991464,2.777118200893891e+16,4.372502211386341e+16,6380749744738208.0,9307845287894172.0,99819577089.02055,291712486723.024,7926564419230.409,256926975809012.28
41.85861126931294,2.8079041197542476e+16,4.421574447994497e+16,6451483948232227.0,9411027993612948.0,103186273874.26347,301551315527.492,8193910588708.5625,265592692379267.78
42.7957834946992,2.838952014259847e+16,4.471084458419201e+16,6522820071022546.0,9515088742184274.0,106657594304.55481,311695896418.90216,8469564838794.672,274527710057141.88
