t(s),Total solute volume 1,Total retention volume 1,Total 1 volume 1,Total 2 volume 1,Total 3 volume 1,Total 4 volume 1,Total 5 volume 1,Total 6 volume 1
0.1,1390364305082634.2,4522349373840332.0,1040967157064613.5,2091017911693084.5,0.0,0.0,0.0,-7.577716622845604e-138
0.202,2075270609857430.0,6753065071064070.0,1553757405608390.8,3121075380020441.0,497374718.88013417,2374994738.222044,123279083285.2143,2835524125063.3467
0.30604000000000003,2601013799997420.0,8468001301341391.0,1947381940092370.5,3911760126877999.0,1259223142.933095,6013385082.215512,314053321964.9383,7524108443410.67
0.41216080000000005,3046119314051475.0,9922153600751232.0,2280632944664912.0,4581170759738493.0,2234251729.8524504,10669976562.852278,558656489678.3817,13659021578386.8
0.5204040160000001,3441314780138476.5,1.1215280594467182e+16,2576516236896224.5,5175519791895641.0,3399350521.233096,16234368410.326235,851155853068.662,21058995964846.43
0.6308120963200001,3802071214030921.5,1.2397606635220072e+16,2846614985697573.5,5718074679457385.0,4742020032.328328,22646853557.678585,1188368906358.4995,29629998254253.78
0.7434283382464002,4137418493684303.0,1.3498447582611554e+16,3097689871544514.0,6222415797227304.0,6255030720.516767,29872899208.41998,1568459420970.0613,39318832804529.836
0.8582969050113283,4453153935952822.0,1.4536628387119054e+16,3334081352377792.0,6697261947151765.0,7934218890.344504,37892617032.73949,1990370212829.702,50094954587926.336
0.9754628431115548,4753255070226610.0,1.5525069567550598e+16,3558767409064754.5,7148595083855955.0,9777398329.643627,46695564119.18878,2453545235154.122,61941986205675.74
1.094972099973786,5040587827049292.0,1.6473086013179726e+16,3773893767099724.5,7580725386689383.0,11783756585.417036,56277859159.68444,2957776016253.7593,74853194709328.88
1.2168715419732616,5317296387122239.0,1.7387652275738196e+16,3981065777026325.0,7996877568437513.0,13953491629.024261,66640446954.27974,3503109451627.208,88828839761897.86
1.3412089728127268,5585033550114190.0,1.8274150151244724e+16,4181520891839639.0,8399537335651595.0,16287579647.55228,77787989270.59254,4089788960254.116,103874509110104.75
1.4680331522689813,5845104643341620.0,1.9136835623421076e+16,4376236411584506.5,8790667818305777.0,18787619680.940388,89728122765.43918,4718215154536.421,120000019292179.28
1.597393815314361,6098561538034686.0,1.9979143881912356e+16,4565999873443489.0,9171850964369600.0,21455725899.96333,102470944464.18428,5388918590819.387,137218660803401.7
1.729341691620648,6346266379048103.0,2.080389605785196e+16,4751456766245185.0,9544383385292960.0,24294450791.60657,116028644868.03659,6102540349180.71,155546663820870.4
1.863928525453061,6588936141678260.0,2.1613443749358372e+16,4933143890204564.0,9909343366658886.0,27306729162.85134,130415240498.64621,6859817882632.9795,175002810964368.4
2.001207095962122,6827174614332343.0,2.2409772752994076e+16,5111513302384038.0,1.02676389681061e+16,30495836618.01948,145646375573.83035,7661574527483.911,195608151431902.4
2.1412312378813647,7061495881801527.0,2.319457922435762e+16,5286949898646967.0,1.062004334069338e+16,33865358375.316452,161739173066.84424,8508711627723.566,217385787056582.25
2.284055862638992,7292341911404870.0,2.396932671170586e+16,5459784580423652.0,1.0967221175352334e+16,37419165645.72699,178712121885.8426,9402202570579.162,240360710666896.16
2.4297369798917723,7520095953113083.0,2.4735289614297692e+16,5630304287399267.0,1.1309748855828938e+16,41161397659.759735,196584991029.13132,10343088248902.115,264559683318800.62
2.578331719489608,7745092907923416.0,2.5493586810119496e+16,5798759760327931.0,1.1648130052065654e+16,45096447991.62004,215378764266.1232,11332473608904.057,290011140981326.06
2.7298983538794,7967627460918770.0,2.6245208036505932e+16,5965371630263269.0,1.1982807951809398e+16,49228954208.96491,235115590702.1431,12371525037581.75,316745123932011.2
2.884496320956988,8187960539702591.0,2.6991034842280172e+16,6130335253995941.0,1.2314174973690086e+16,53563790136.30003,255818747826.6329,13461468409926.713,344793223943650.3
3.0421862473761276,8406324500115169.0,2.773185741488383e+16,6293824596605353.0,1.2642580566210796e+16,58106060202.15021,277512614513.954,14603587662061.59,374188545615761.94
3.2030299723236504,8622927332035253.0,2.846838823203526e+16,6455995380348026.0,1.2968337533007814e+16,62861095470.00823,300222652066.2921,15799223789280.47,404965679107357.0
3.3670905717701234,8837956101748296.0,2.9201273239880612e+16,6616987661962628.0,1.3291727209955272e+16,67834451047.230156,323975391837.9389,17049774191769.432,437160682179782.5
3.5344323832055258,9051579793092146.0,2.9931101083577764e+16,6776927959838937.0,1.3613003738068778e+16,73031904635.33356,348798428311.1626,18356692308291.15,470811069936649.7
3.7051210308696363,9263951670424110.0,3.065841078922409e+16,6935931023173978.0,1.3932397617258716e+16,78459456036.8281,374720416740.6639,19721487491172.188,505955811003362.75
3.879223451487029,9475211257797912.0,3.1383698203113696e+16,7094101313784027.0,1.4250118682887394e+16,84123327472.7194,401771074669.9858,21145725085783.855,542635329156429.75
4.0568079205167695,9685486007511348.0,3.2107421425472004e+16,7251534255348127.0,1.45663586151593e+16,90029964594.6174,429981186765.49133,22631026685231.25,580891509616615.8
4.237944078927105,9894892715276436.0,3.2830005424235828e+16,7408317292947560.0,1.4881293067447544e+16,96186038098.36038,459382612523.30273,24179070536766.633,620767709376912.8
4.422702960505647,1.0103538727214012e+16,3.355184597537748e+16,7564530796744116.0,1.519508348153773e+16,102598445863.96745,490008296490.0965,25791592080963.945,662308771058303.1
4.61115701971576,1.0311522974656462e+16,3.4273313046386536e+16,7720248836737982.0,1.5507878643905564e+16,109274315560.8003,521892280705.83325,27470384608240.05,705561039881998.1
4.803380160110075,1.0518936865624388e+16,3.4994753716452868e+16,7875539850217389.0,1.5819816026441652e+16,116221007667.96184,555069719129.7477,29217300020124.3,750572383422518.1
4.9994477633122765,1.07258650563011e+16,3.5716494708927812e+16,8030467219362404.0,1.6131022946700316e+16,123446118868.85399,589576893853.4172,31034249684921.527,797392213866367.1
5.199436718578522,1.093238612147676e+16,3.643884459753671e+16,8185089773207239.0,1.6441617576205274e+16,130957485785.98141,625451232938.9,32923205379220.74,846071512549516.8
5.403425452950093,1.1138573139493028e+16,3.716209573666427e+16,8339462225588942.0,1.6751709820169314e+16,138763189027.86627,662731329747.6239,34886200308162.36,896662856586103.8
5.611493962009095,1.1344494204476562e+16,3.788652595714744e+16,8493635558657219.0,1.7061402087861272e+16,146871557524.66815,701456963648.1735,36925330198567.49,949220447432662.9
5.823723841249277,1.1550212876451908e+16,3.8612400061886936e+16,8647657359874412.0,1.7370789969547166e+16,155291173132.9549,741669122009.6388,39042754460006.37,1003800141258296.1
6.040198318074262,1.1755788578149156e+16,3.9339971149840456e+16,8801572119105903.0,1.76799628332641e+16,164030875493.25638,783410023402.3075,41240697409686.52,1060459481012700.9
6.261002284435747,1.1961276945882494e+16,4.0069481792293384e+16,8955421491323252.0,1.798900435251917e+16,173099767126.65964,826723141940.1079,43521449557703.67,1119257730101702.2
6.486222330124463,1.2166730140698978e+16,4.080116508149445e+16,9109244529561624.0,1.8297992974237812e+16,182507218758.89017,871653232709.5837,45887368949751.016,1180255907594755.8
6.715946776726952,1.2372197125033028e+16,4.15352455686179e+16,9263077892051354.0,1.860700233483439e+16,192262874862.14706,918246358238.9452,48340882564841.32,1243516824901205.5
6.950265712261491,1.2577723909305244e+16,4.227194010543717e+16,9416956026846686.0,1.8916101631081496e+16,202376659406.488,966549915967.9962,50884487765983.56,1309105123862376.0
7.18927102650672,1.2783353772245406e+16,4.301145860195503e+16,9570911336781948.0,1.9225355951461736e+16,212858781813.83673,1016612666685.8722,53520753802076.73,1377087316215346.0
7.433056447036854,1.2989127458170062e+16,4.375400471046211e+16,9724974327173434.0,1.953482657286058e+16,223719743108.77133,1068484763908.6729,56252323359558.414,1447531824391511.2
7.681717575977592,1.3195083353985666e+16,4.449977644500402e+16,9879173738341844.0,1.9844571226768284e+16,234970342261.1596,1122217784173.4395,59081914162574.75,1520509023619298.5
7.935351927497144,1.3401257648303412e+16,4.524896674399057e+16,1.0033536664741852e+16,2.0154644338578104e+16,246621682716.47296,1177864758228.5752,62012320620632.766,1596091285305644.8
8.194058966047088,1.3607684474726512e+16,4.6001763982629784e+16,1.0188088662241294e+16,2.046509724308167e+16,258685179110.27765,1235480203103.973,65046415522862.164,1674353021675317.2
8.45794014536803,1.381439604109543e+16,4.675835244097651e+16,1.0342853844887302e+16,2.0775978378845404e+16,271172564163.93088,1295120155046.6665,68187151778151.22,1755370731650997.2
8.72709894827539,1.4021422746244276e+16,4.751891273263116e+16,1.0497854972322022e+16,2.1087333463804964e+16,284095895758.9985,1356842203310.1597,71437564200541.25,1839223047960256.2
9.0016409272409,1.4228793285621358e+16,4.828362219848038e+16,1.0653113528860664e+16,2.139920565411176e+16,297467564188.2894,1420705524787.367,74800771339364.05,1925990785458306.8
9.281673745785717,1.4436534746957746e+16,4.905265526931956e+16,1.0808649795118798e+16,2.171163568801236e+16,311300299581.74493,1486770919478.7388,78279977353688.81,2015756990657872.8
9.567307220701432,1.464467269702158e+16,4.982618380072499e+16,1.0964482912965388e+16,2.2024662016321736e+16,325607179505.6932,1555100846788.53,81878473930720.61,2108606992459354.8
9.85865336511546,1.4853231260370652e+16,5.060437738314109e+16,1.1120630944484914e+16,2.2338320920861984e+16,340401636734.2144,1625759462643.1257,85599642247845.16,2204628454076321.8
10.155826432417769,1.506223319090737e+16,5.138740362978977e+16,1.1277110925550618e+16,2.2652646622076332e+16,355697467191.56116,1698812657426.4724,89446954978071.48,2303911426152721.0
10.458942961066125,1.5271699936946858e+16,5.217542844471696e+16,1.143393891454115e+16,2.2967671376888064e+16,371508838064.7239,1774328094728.2178,93423978338657.0,2406548401069439.5
10.768121820287448,1.5481651700428076e+16,5.296861627301785e+16,1.1591130036671894e+16,2.3283425567749412e+16,387850296085.3751,1852375250900.9407,97534374182738.89,2512634368438782.5
11.083484256693197,1.5692107490826418e+16,5.3767130335061016e+16,1.174869852435953e+16,2.359993778372349e+16,404736775980.51056,1933025455423.1877,101781902133817.69,2622266871786425.0
11.405153941827061,1.5903085174266246e+16,5.457113284632979e+16,1.1906657753992522e+16,2.391723489434599e+16,422183609091.19446,2016351932065.5186,106170421762958.42,2735546066420941.5
11.733257020663602,1.611460151827645e+16,5.538078522432422e+16,1.2065020279439674e+16,2.4235342116934936e+16,440206532158.8714,2102429840856.964,110703894808594.8,2852574778491566.5
12.067922161076874,1.632667223258644e+16,5.619624828381718e+16,1.2223797862594226e+16,2.455428307794521e+16,458821696278.72974,2191336320849.4946,115386387438823.88,2973458565235340.0
12.409280604298411,1.653931200631822e+16,5.701768242162161e+16,1.2383001501219486e+16,2.4874079868902972e+16,478045676019.64197,2283150533678.1924,120222072556091.45,3098305776415118.0
12.75746621638438,1.675253454189346e+16,5.7845247791909464e+16,1.2542641454335176e+16,2.5194753097400108e+16,497895478710.2078,2377953707914.843,125215232144166.69,3227227616949968.5
13.112615540712067,1.6966352585943828e+16,5.86791044730201e+16,1.2702727265359962e+16,2.551632193358094e+16,518388553890.3945,2475829184212.671,130370259657304.75,3360338210739895.0
13.474867851526309,1.7180777957483114e+16,5.951941262660104e+16,1.2863267783204004e+16,2.5838804152511644e+16,539542802928.2905,2576862461239.7236,135691662451488.23,3497754665686610.0
13.844365208556836,1.7395821573575698e+16,6.0366332649848024e+16,1.3024271181487042e+16,2.6162216172784196e+16,561376588801.415,2681141242398.392,141184064257638.75,3639597139912237.5
14.221252512727972,1.7611493472714156e+16,6.122002532153309e+16,1.3185744976041046e+16,2.6486573091674148e+16,583908746042.0125,2788755483328.304,146852207696668.97,3785988909177714.0
14.605677562982532,1.7827802836097794e+16,6.208065194245219e+16,1.334769604084166e+16,2.681188871714299e+16,607158590845.7006,2899797440189.5913,152700956836245.9,3937056435502472.0
14.997791114242183,1.804475800698823e+16,6.294837447086099e+16,1.3510130622499588e+16,2.7138175596947148e+16,631145931342.7834,3014361718723.142,158735299789107.7,4092929436986817.0
15.397746936527026,1.8262366508301376e+16,6.382335565342196e+16,1.3673054353431904e+16,2.7465445045095496e+16,655891078031.4603,3132545324084.4077,164960351352778.22,4253740958838270.0
15.805701875257567,1.8480635058582148e+16,6.470575915213756e+16,1.3836472263822206e+16,2.7793707165874212e+16,681414854372.1179,3254447711446.682,171381355690487.12,4419627445602708.0
16.221815912762718,1.8699569586495484e+16,6.5595749667705016e+16,1.4000388792470074e+16,2.8122970875640476e+16,707738607541.7996,3380170837369.543,178003689053096.16,4590728814600943.0
16.64625223101797,1.891917524395652e+16,6.649349305969186e+16,1.416480779662181e+16,2.8453243922569416e+16,734884219347.844,3509819211927.801,184832862541811.72,4767188530571053.0
17.079177275638333,1.913945641801303e+16,6.739915646390033e+16,1.4329732560866562e+16,2.8784532904524336e+16,762874117299.6268,3643499951595.717,191874524911432.25,4949153681516096.0
17.5207608211511,1.9360416741584064e+16,6.831290840725751e+16,1.44951658051765e+16,2.9116843285207212e+16,791731285837.2183,3781322832880.948,199134465413868.88,5136775055757069.0
17.97117603757412,1.958205910315122e+16,6.923491892054315e+16,1.4661109692162716e+16,2.9450179408733516e+16,821479277715.7152,3923400346702.1665,206618616681642.7,5330207220189679.0
18.430599558325603,1.9804385655491496e+16,7.016535964924524e+16,1.482756583361352e+16,2.9784544512766308e+16,852142225543.8408,4069847753503.739,214333057651048.7,5529608599743877.0
18.899211549492115,2.0027397823535404e+16,7.110440396280798e+16,1.499453529637765e+16,3.011994074033372e+16,883744853475.3732,4220783139100.6274,222284016524640.78,5735141558043969.0
19.37719578048196,2.0251096311426412e+16,7.2052227062523064e+16,1.5162018607650036e+16,3.0456369150446576e+16,916312489051.8123,4376327471245.8267,230477873772672.66,5946972479266994.0
19.864739696091597,2.0475481108854892e+16,7.300900608829386e+16,1.533001575971353e+16,3.0793829727623616e+16,949871075194.6083,4536604656912.399,238921165173104.12,6165271851196648.0
20.36203449001343,2.070055149673292e+16,7.397492022448883e+16,1.5498526214188126e+16,3.1132321390426636e+16,984447182345.1881,4701741600281.644,247620584889754.1,6390214349468838.0
20.869275179813698,2.0926306052274384e+16,7.49501508050847e+16,1.566754890583415e+16,3.1471841999100268e+16,1020068020750.8558,4871868261428.396,256582988588153.38,6621978923005605.0
21.38666068340997,2.115274265353906e+16,7.593488141828931e+16,1.5837082245954588e+16,3.1812388362406132e+16,1056761452894.6163,5047117715693.792,265815396588631.94,6860748880632304.0
21.91439389707817,2.1379858483497612e+16,7.69292980108211e+16,1.600712412543823e+16,3.215395624373592e+16,1094556006066.7896,5227626213735.759,275324997056141.9,7106711978873522.0
22.452681775019734,2.1607650033669296e+16,7.793358899201195e+16,1.6177671917483802e+16,3.2496540366583416e+16,1133480885076.2585,5413533242246.624,285119149226296.06,7360060510921838.0
23.00173541052013,2.1836113107385104e+16,7.894794533788946e+16,1.6348722480042496e+16,3.2840134419450576e+16,1173565985099.021,5604981585326.793,295205386667076.9,7620991396773843.0
23.561770118730532,2.2065242822721736e+16,7.99725606953911e+16,1.6520272158014948e+16,3.318473106026117e+16,1214841904661.696,5802117386503.35,305591420575649.75,7889706274526462.0
24.133005521105144,2.229503361515377e+16,8.100763148684626e+16,1.6692316785236938e+16,3.3530321920349016e+16,1257339958757.46,6005090211381.564,316285143109681.1,8166411592826785.0
24.715665631527248,2.2525479239967116e+16,8.205335701486422e+16,1.686485168628612e+16,3.3876897608087576e+16,1301092192091.907,6214053110917.216,327294630752562.56,8451318704467850.0
25.309978944157795,2.2756572774475244e+16,8.310993956775214e+16,1.7037871678141584e+16,3.422444771222326e+16,1346131392456.1538,6429162685296.93,338628147711890.75,8744643961122447.0
25.91617852304095,2.2988306620078852e+16,8.417758452558733e+16,1.7211371071725786e+16,3.4572960804972924e+16,1392491104224.468,6650579148413.901,350294149350566.06,9046608809206552.0
26.53450209350177,2.3220672504207324e+16,8.525650046705738e+16,1.7385343673358076e+16,3.4922424444943704e+16,1440205641973.6833,6878466392925.312,362301285649829.7,9357439886863562.0
27.165192135371807,2.345366148217899e+16,8.634689927718118e+16,1.7559782786147634e+16,3.5272825179930772e+16,1489310104221.5278,7112992055878.323,374658404703569.75,9677369122060154.0
27.808495978079243,2.3687263939016404e+16,8.74489962560158e+16,1.7734681211352428e+16,3.562414854964727e+16,1539840387280.9814,7354327584890.66,387374556243184.1,1.0006633831784386e+16
28.464665897640828,2.3921469591251344e+16,8.856301022845368e+16,1.791003124973063e+16,3.5976379088439e+16,1591833199227.7659,7602648304871.752,400458995192307.9,1.0345476822336192e+16
29.133959215593645,2.415626748875303e+16,8.968916365520686e+16,1.808582470290958e+16,3.632950032803421e+16,1645326073978.0186,7858133485270.678,413921185250687.3,1.0694146490700148e+16
29.816638399905518,2.43916460166127e+16,9.082768274507646e+16,1.826205287479657e+16,3.668349480037711e+16,1700357385473.1465,8120966407836.495,427770802506475.7,1.1052896926990268e+16
30.51297116790363,2.4627592897116124e+16,9.197879756859667e+16,1.843870657305553e+16,3.70383440405952e+16,1756966361968.9595,8391334434876.919,442017739076247.44,1.1421988017956754e+16
31.223230591261704,2.4864095191834216e+16,9.314274217314427e+16,1.8615776110672804e+16,3.739402859014314e+16,1815193100426.0774,8669429078001.282,456672106771997.7,1.1801685551543702e+16
31.947695203086937,2.51011393038639e+16,9.431975469960173e+16,1.879325130763443e+16,3.7750528000172824e+16,1875078580998.733,8955446067333.861,471744240794426.8,1.2192261322487756e+16
32.686649107148675,2.5338710980246604e+16,9.551007750065512e+16,1.897112149273691e+16,3.810782083517022e+16,1936664681619.0889,9249585421183.734,487244703451798.25,1.2593993238946902e+16
33.44038208929165,2.5576795314593772e+16,9.671395726081342e+16,1.9149375505553076e+16,3.846588467690501e+16,1999994192674.195,9552051516157.879,503184287903694.3,1.3007165430149192e+16
34.20918973107749,2.581537674994796e+16,9.793164511822414e+16,1.932800169857409e+16,3.882469612873219e+16,2065110831772.9617,9863053157704.355,519574021928992.6,1.3432068355051478e+16
34.993373525699035,2.6054439081905876e+16,9.916339678836869e+16,1.9506987939547844e+16,3.918423082029012e+16,2132059258600.4236,10182803651073.123,536425171717410.7,1.3868998911997938e+16
35.793240996213015,2.629396546203079e+16,1.0040947268971162e+17,1.9686321614033624e+16,3.9544463412631704e+16,2200885089856.796,10511520872682.184,553749245684023.75,1.4318260549368974e+16
36.60910581613728,2.653393840158007e+16,1.0167013807137789e+17,1.9865989628192996e+16,3.990536760383059e+16,2271634914279.0044,10849427341878.365,571557998306134.6,1.4780163377211792e+16
37.44128793246003,2.677433977557307e+16,1.0294566314293429e+17,2.004597841183535e+16,4.026691613509922e+16,2344356307742.431,11196750293081.291,589863433981987.9,1.5255024279843748e+16
38.29011369110923,2.7015150827224164e+16,1.0423632320634563e+17,2.0226273921737108e+16,4.0629080797455656e+16,2419097848440.859,11553721748302.084,608677810910800.2,1.5743167029421136e+16
39.15591596493141,2.72563521727657e+16,1.0554239879017653e+17,2.040686164525264e+16,4.099183243897669e+16,2495909132142.8745,11920578590026.79,628013644993661.8,1.6244922400465688e+16
