t(s),Total solute volume 1,Total retention volume 1,Total 1 volume 1,Total 2 volume 1,Total 3 volume 1,Total 4 volume 1,Total 5 volume 1,Total 6 volume 1
0.1,1389665646485961.5,7115728075414663.0,1732020487244934.5,3994041941683769.0,0.0,0.0,0.0,0.004426733051481951
0.202,2043335848918094.5,1.0505053738072086e+16,2546728405709196.5,5872775013764745.0,13879088953.488884,81621346178.07178,4165414282505.8086,37953554962406.96
0.30604000000000003,2545967791112994.0,1.3151917917780748e+16,3173187980472583.5,7317397465097998.0,34932649012.7019,205513871731.53638,10761807380749.232,104362427195680.6
0.41216080000000005,2968148888157570.0,1.5411877730695732e+16,3699376924673363.5,8530794192125782.0,61701020534.25677,363051667575.5499,19228926883037.094,193904046167871.78
0.5204040160000001,3339216427571101.5,1.7432012273249964e+16,4161860044299454.5,9597284467467406.0,93484462704.71503,550111745278.9364,29318595892658.734,303689141811352.75
0.6308120963200001,3674260787556810.5,1.9287687943973344e+16,4579445367002363.0,1.0560239909126242e+16,129878667904.90393,764312652420.3444,40892350184847.81,431955338782761.8
0.7434283382464002,3982183276177761.0,2.102321413858386e+16,4963227115541330.0,1.1445243944780642e+16,170626745897.5878,1004141415300.0366,53863243149437.55,577521790773493.9
0.8582969050113283,4268739067033226.0,2.266716243229555e+16,5320378299948310.0,1.2268837622626678e+16,215557417695.64175,1268589294938.0254,68173436610048.07,739549859364640.2
0.9754628431115548,4537898091854419.0,2.4239205275190692e+16,5655846878474114.0,1.3042430990702612e+16,264554264697.76862,1556970630679.3186,83783509041371.97,917424280222788.9
1.094972099973786,4792533100030774.0,2.5753567094756356e+16,5973213326702183.0,1.377428066489647e+16,317538533027.2865,1868821558808.3223,100666601413289.88,1110687041621811.8
1.2168715419732616,5034800649713935.0,2.7220931334233732e+16,6275165489142720.0,1.4470584843389356e+16,374458687038.153,2203838490303.68,118804901323349.55,1318997153487017.5
1.3412089728127268,5266367283012838.0,2.8649570043632028e+16,6563780474642338.0,1.5136133361089952e+16,435283657467.7421,2561838350096.387,138187385695868.08,1542104417183484.8
1.4680331522689813,5488551384727364.0,3.0046050638340596e+16,6840701463233611.0,1.5774715408356296e+16,499998262693.2435,2942731614590.2007,158808296037304.34,1779831356108713.0
1.597393815314361,5702416210756867.0,3.14156981341964e+16,7107253652885484.0,1.6389386905531166e+16,568599982513.3895,3346503314187.8433,180666066571303.94,2032060195154891.2
1.729341691620648,5908833184830723.0,3.2762908725212284e+16,7364523149921301.0,1.6982652425118546e+16,641096613209.3187,3773199225428.2285,203762546202408.1,2298723123300675.5
1.863928525453061,6108526321907408.0,3.409136915385297e+16,7613412336498597.0,1.7556592869788888e+16,717504519015.2913,4222915575122.5513,228102418830527.28,2579794786733405.0
2.001207095962122,6302104240833805.0,3.5404214250591492e+16,7854679769857818.0,1.811295748046874e+16,797847300247.3014,4695791197973.123,253692762067039.78,2875286358865854.0
2.1412312378813647,6490083764985155.0,3.670414265727377e+16,8088969597179205.0,1.8653231667308336e+16,882154760440.9128,5192001454893.903,280542705244039.56,3185240766341714.5
2.284055862638992,6672907669242342.0,3.799350352672683e+16,8316833674677724.0,1.91786880165436e+16,970462093025.7131,5711753444062.723,308663160347051.75,3509728790379050.0
2.4297369798917723,6850958258575110.0,3.927436261547591e+16,8538748491384801.0,1.969042531691165e+16,1062809232359.0902,6255282179799.132,338066607573495.9,3848845849618699.5
2.578331719489608,7024567917293526.0,4.054855345006415e+16,8755128317296811.0,2.018939887941628e+16,1159240329886.7837,6822847508250.287,368766922500987.7,4202709325718387.5
2.7298983538794,7194027416673257.0,4.181771748783947e+16,8966335557653912.0,2.0676444414401548e+16,1259803326954.6526,7414731592207.218,400779235407364.4,4571456328784247.0
2.884496320956988,7359592536962810.0,4.3083336033232856e+16,9172689006334604.0,2.115229706396406e+16,1364549603234.7405,8031236841174.452,434119815744232.6,4955241823782792.0
3.0421862473761276,7521489403536840.0,4.434675588901113e+16,9374470496615366.0,2.161760673867313e+16,1473533684986.8022,8672684193777.211,468805976506554.0,5354237055800486.0
3.2030299723236504,7679918829438407.0,4.560921018481714e+16,9571930313534806.0,2.2072950598538024e+16,1586813001165.4539,9339411681901.514,504855994497699.3,5768628224125122.0
3.3670905717701234,7835059881179780.0,4.687183544943769e+16,9765291638159544.0,2.2518843301530396e+16,1704447678159.1292,10031773222309.475,542289043412602.8,6198615364254937.0
3.5344323832055258,7987072830932745.0,4.81356857259199e+16,9954754227071484.0,2.2955745488519492e+16,1826500366009.9368,10750137593619.494,581125137349477.6,6644411404087073.0
3.7051210308696363,8136101619329768.0,4.940174433570397e+16,1.0140497481900818e+16,2.338407086164671e+16,1953036090515.2058,11494887565679.346,621385082879046.0,7106241366291407.0
3.879223451487029,8282275924524487.0,5.067093375676212e+16,1.0322683028116906e+16,2.3804192131043384e+16,2084122126790.8882,12266419155304.627,663090438194954.4,7584341693600323.0
4.0568079205167695,8425712911907161.0,5.194412397614028e+16,1.0501456895800982e+16,2.4216446043714796e+16,2219827890781.692,13065140987683.266,706263478172066.6,8078959677666842.0
4.237944078927105,8566518722877565.0,5.322213959891095e+16,1.0676951375190684e+16,2.4621137662444524e+16,2360224845902.796,13891473746868.797,750927164393726.1,8590352975411676.0
4.422702960505647,8704789748913369.0,5.450576593617493e+16,1.0849286604625916e+16,2.501854402761353e+16,2505386422543.8706,14745849701999.275,797105119391762.6,9118789199505766.0
4.61115701971576,8840613727830676.0,5.579575424932607e+16,1.101857193688238e+16,2.5408917307978972e+16,2655387948595.179,15628712298405.945,844821604486346.6,9664545571900692.0
4.803380160110075,8974070691895016.0,5.709282629272811e+16,1.1184907120857724e+16,2.5792487525654084e+16,2810306589495.375,16540515804776.389,894101500726199.4,1.022790863120079e+16
4.9994477633122765,9105233791786400.0,5.839767826964291e+16,1.1348383328527282e+16,2.6169464924278284e+16,2970221296571.871,17481725009134.191,944970292519872.4,1.0809173986225334e+16
5.199436718578522,9234170015970598.0,5.971098429481647e+16,1.1509084051538444e+16,2.6540042036572744e+16,3135212762662.6255,18452814957681.355,997454053621319.4,1.1408646109393048e+16
5.403425452950093,9360940821499152.0,6.10333994401719e+16,1.1667085887413668e+16,2.6904395497331972e+16,3305363384184.944,19454270731589.395,1051579435191488.9,1.2026638164619852e+16
5.611493962009095,9485602689443696.0,6.2365562426555416e+16,1.1822459231820574e+16,2.7262687639805468e+16,3480757228960.8193,20486587257673.477,1107373655705361.8,1.266347186529365e+16
5.823723841249277,9608207615906168.0,6.370809801365257e+16,1.1975268890546702e+16,2.7615067906917536e+16,3661480009226.6577,21550269149579.87,1164864492512956.8,1.331947735861041e+16
6.040198318074262,9728803547717976.0,6.5061619131454056e+16,1.212557462253682e+16,2.796167410351622e+16,3847619059352.834,22645830576692.53,1224080274895038.0,1.3994993133151906e+16
6.261002284435747,9847434770453732.0,6.6426728789557416e+16,1.2273431623497082e+16,2.8302633511569416e+16,4039263317879.814,23773795158442.258,1285049878481101.5,1.4690365947079772e+16
6.486222330124463,9964142255170078.0,6.7804021794804536e+16,1.2418890958055814e+16,2.8638063886731496e+16,4236503313545.1787,24934695882100.6,1347802720919500.2,1.5405950774732048e+16
6.715946776726952,1.0078963969281328e+16,6.919408630300061e+16,1.2561999947226076e+16,2.896807435183559e+16,4439431155032.92,26129075042476.598,1412368758708399.8,1.6142110769751654e+16
6.950265712261491,1.019193515615942e+16,7.059750522654544e+16,1.270280251688726e+16,2.9292766200495716e+16,4648140524224.216,27357484202215.312,1478778485112075.8,1.6899217243164498e+16
7.18927102650672,1.0303088587361378e+16,7.201485751656158e+16,1.284133951215101e+16,2.961223362203703e+16,4862726672769.479,28620484171637.188,1547062929100426.2,1.767764965506727e+16
7.433056447036854,1.0412454790817464e+16,7.344671933539771e+16,1.297764898176533e+16,2.9926564357334828e+16,5083286421835.8545,29918645007258.785,1617253655261032.8,1.8477795618789904e+16
7.681717575977592,1.0520062257835986e+16,7.48936651331305e+16,1.311176643611687e+16,3.0235840293769604e+16,5309918164913.561,31252546028308.043,1689382764642779.0,1.930005091657204e+16
7.935351927497144,1.0625937631379736e+16,7.635626863978843e+16,1.3243725081890712e+16,3.0540138006355196e+16,5542721873589.415,32622775850694.008,1763482896498356.2,2.014481952594016e+16
8.194058966047088,1.073010587773056e+16,7.783510378342323e+16,1.3373556036026036e+16,3.083952925112212e+16,5781799106217.016,34029932438015.4,1839587230900103.8,2.101251365610024e+16
8.45794014536803,1.083259044337202e+16,7.933074554280277e+16,1.3501288521248028e+16,3.113408141601611e+16,6027253019431.161,35474623169298.98,1917729492209707.0,2.190355379376818e+16
8.72709894827539,1.0933413398676318e+16,8.084377074234954e+16,1.3626950045153424e+16,3.1423857933870892e+16,6279188382469.488,36957464923249.66,1997943953387538.8,2.2818368757955616e+16
9.0016409272409,1.1032595569774356e+16,8.237475879597254e+16,1.375056656456768e+16,3.1708918661417376e+16,6537711594277.019,38479084178868.4,2080265441131797.2,2.3757395763308204e+16
9.281673745785717,1.1130156659809396e+16,8.392429240560378e+16,1.3872162636670614e+16,3.1989320227780684e+16,6802930703380.582,40040117132362.46,2164729341841566.0,2.472108049166579e+16
9.567307220701432,1.122611536062283e+16,8.549295821953206e+16,1.3991761558196864e+16,3.2265116355477744e+16,7074955430528.956,41641209830321.1,2251371608400955.8,2.57098771715729e+16
9.85865336511546,1.1320489455789106e+16,8.708134745501517e+16,1.410938549385425e+16,3.253635815655109e+16,7353897194101.966,43283018319178.04,2340228767784353.5,2.672424866552316e+16
10.155826432417769,1.1413295915803154e+16,8.869005648911443e+16,1.4225055594961546e+16,3.280309440614867e+16,7639869138298.193,44966208811016.25,2431337929485019.0,2.7764666564766736e+16
10.458942961066125,1.1504550986126478e+16,9.031968742124194e+16,1.4338792109185362e+16,3.3065371795578324e+16,7932986164115.31,46691457865797.64,2524736794771088.5,2.8831611291550756e+16
10.768121820287448,1.1594270268712336e+16,9.197084861050862e+16,1.4450614482149748e+16,3.332323516662015e+16,8233364963140.853,48459452590123.79,2620463666774648.5,2.992557220869841e+16
11.083484256693197,1.1682468797556886e+16,9.364415519061752e+16,1.4560541451600082e+16,3.3576727728669588e+16,8541124054173.843,50270890852646.36,2718557461420537.0,3.1047047736463616e+16
11.405153941827061,1.1769161108759082e+16,9.534022956474522e+16,1.4668591134722648e+16,3.3825891260097036e+16,8856383822699.06,52126481516257.5,2819057719202563.0,3.2196545476624932e+16
11.733257020663602,1.1854361305515636e+16,9.705970188259114e+16,1.4774781109151846e+16,3.407076629505142e+16,9179266563236.512,54026944687193.08,2922004617815274.0,3.3374582343806532e+16
12.067922161076874,1.1938083118428894e+16,9.880321050154614e+16,1.4879128488135242e+16,3.4311392296791436e+16,9509896524588.598,55973011981180.64,3027438985649762.0,3.4581684704034988e+16
12.409280604298411,1.2020339961462222e+16,1.0057140243372854e+17,1.4981649990274154e+16,3.4547807818508268e+16,9848399958006.61,57965426806760.83,3135402316162154.0,3.5818388520557016e+16
12.75746621638438,1.2101144983840606e+16,1.0236493378046262e+17,1.5082362004210376e+16,3.4780050652493596e+16,10194905168296.326,60004944665899.75,3245936783123146.5,3.70852395069608e+16
13.112615540712067,1.2180511118160826e+16,1.0418447015561538e+17,1.5181280648588652e+16,3.5008157968414116e+16,10549542567880.572,62092333471997.9,3359085256756746.5,3.838279328765523e+16
13.474867851526309,1.2258451124947544e+16,1.0603068709907538e+17,1.5278421827589632e+16,3.523216644137074e+16,10912444733834.086,64228373885385.28,3474891320775767.5,3.9711615565772536e+16
13.844365208556836,1.233497763386596e+16,1.0790427048153541e+17,1.5373801282295544e+16,3.545211237034877e+16,11283746467901.78,66413859666372.055,3593399290320966.5,4.1072282298569944e+16
14.221252512727972,1.241010318178018e+16,1.0980591690163402e+17,1.546743463812456e+16,3.566803178760222e+16,11663584859509.006,68649598045903.04,3714654230809839.5,4.246537988041182e+16
14.605677562982532,1.2483840247827096e+16,1.1173633407642056e+17,1.5559337448545544e+16,3.5879960559460364e+16,12052099351767.15,70936410113839.16,3838701977700051.0,4.389150533342192e+16
14.997791114242183,1.255620128565899e+16,1.1369624122602342e+17,1.5649525235263796e+16,3.608793447899672e+16,12449431810473.92,73275131224861.97,3965589157171467.0,4.535126650589706e+16
15.397746936527026,1.2627198752993398e+16,1.1568636945333058e+17,1.573801352505074e+16,3.629198935095922e+16,12855726596102.64,75666611421969.56,4095363207729314.0,4.684528227857979e+16
15.805701875257567,1.2696845138596224e+16,1.1770746211942597e+17,1.5824817883374774e+16,3.649216106932296e+16,13271130638769.758,78111715877500.81,4228072402729800.5,4.837418277888591e+16
16.221815912762718,1.2765152986813548e+16,1.1976027521546981e+17,1.5909953944976538e+16,3.668848568779757e+16,13695793516164.324,80611325351595.02,4363765873828033.5,4.993860960318637e+16
16.64625223101797,1.2832134919757574e+16,1.2184557773166142e+17,1.5993437441520584e+16,3.688099948359287e+16,14129867534417.725,83166336667959.55,4502493635346558.5,5.153921604724147e+16
17.079177275638333,1.2897803657244828e+16,1.2396415202387701e+17,1.6075284226445602e+16,3.7069739014723304e+16,14573507811886.58,85777663206786.8,4644306609561242.0,5.3176667344883336e+16
17.5207608211511,1.2962172034577522e+16,1.2611679417854018e+17,1.6155510297126392e+16,3.725474117111446e+16,15026872365815.457,88446235414627.72,4789256652899696.0,5.485164091504166e+16
17.97117603757412,1.3025253018253572e+16,1.2830431437624534e+17,1.6234131814454136e+16,3.743604321975562e+16,15490122201841.105,91173001330995.67,4937396583045695.0,5.6564826617203416e+16
18.430599558325603,1.3087059719685892e+16,1.3052753725462608e+17,1.6311165119935624e+16,3.761368284413096e+16,15963421406293.742,93958927131441.92,5088780206941516.0,5.831692701539433e+16
18.899211549492115,1.3147605407007672e+16,1.3278730227093571e+17,1.6386626750406868e+16,3.778769817814981e+16,16446937241245.754,96804997686812.36,5243462349678274.0,6.010865765076512e+16
19.37719578048196,1.3206903515037472e+16,1.3508446406478187e+17,1.6460533450453202e+16,3.795812783478753e+16,16940840242252.988,99712217138360.97,5401498884263104.0,6.194074732285983e+16
19.864739696091597,1.3264967653475156e+16,1.374198928214391e+17,1.6532902182624406e+16,3.812501092964266e+16,17445304318728.115,102681609488371.56,5562946762249891.0,6.381393837963995e+16
20.36203449001343,1.3321811613398258e+16,1.3979447463614845e+17,1.6603750135531526e+16,3.8288387099608e+16,17960506856881.676,105714219205904.48,5727864045219313.0,6.572898701632859e+16
20.869275179813698,1.3377449372126592e+16,1.4220911187979149e+17,1.6673094729909894e+16,3.844829651685281e+16,18486628825161.344,108811111847263.06,5896309937092092.0,6.768666358313765e+16
21.38666068340997,1.3431895096522342e+16,1.4466472356632323e+17,1.6740953622732264e+16,3.8604779898308136e+16,19023854882116.043,111973374690750.48,6068344817258164.0,6.9687752901929416e+16
21.91439389707817,1.3485163144791964e+16,1.4716224572232848e+17,1.6807344709454786e+16,3.875787851084622e+16,19572373486608.05,115202117385265.45,6244030274503212.0,7.1733054591860424e+16
22.452681775019734,1.3537268066856622e+16,1.4970263175906422e+17,1.6872286124478516e+16,3.890763417234519e+16,20132377010293.082,118498472612265.69,6423429141712768.0,7.382338340404843e+16
23.00173541052013,1.3588224603356962e+16,1.5228685284733747e+17,1.693579623990925e+16,3.905408924883005e+16,20704061852285.812,121863596760616.83,6606605531333200.0,7.595956956529502e+16
23.561770118730532,1.363804768335939e+16,1.549158982955671e+17,1.6997893662698514e+16,3.919728664787975e+16,21287628555925.96,125298670613827.69,6793624871567975.0,7.81424591308917e+16
24.133005521105144,1.3686752420830112e+16,1.5759077593136618e+17,1.705859723024923e+16,3.933726980849432e+16,21883281927559.113,128804900049168.16,6984553943286782.0,8.037291434652918e+16
24.715665631527248,1.3734354109945032e+16,1.603125124869856e+17,1.7117926004570054e+16,3.947408268761541e+16,22491231157245.5,132383516748158.72,7179460917624758.0,8.265181401932493e+16
25.309978944157795,1.3780868219303038e+16,1.6308215398894608e+17,1.7175899265063068e+16,3.960776974349471e+16,23111689941309.527,136035778917922.66,7378415394248499.0,8.49800538979775e+16
25.91617852304095,1.3826310385111172e+16,1.6590076615219437e+17,1.7232536500030184e+16,3.973837591610835e+16,23744876606643.74,139762972022890.08,7581488440265435.0,8.735854706204981e+16
26.53450209350177,1.3870696403411008e+16,1.687694347791064e+17,1.7287857396984438e+16,3.9865946604814776e+16,24391014236682.168,143566409526357.25,7788752629753138.0,8.97882243203799e+16
27.165192135371807,1.391404222141563e+16,1.716892661636654e+17,1.7341881831852644e+16,3.9990527643456824e+16,25050330798959.42,147447433641408.0,8000282083885356.0,9.227003461861462e+16
27.808495978079243,1.3956363928026972e+16,1.746613875011412e+17,1.7394629857156806e+16,4.011216527310777e+16,25723059274175.164,151407416090725.6,8216152511631949.0,9.48049454558527e+16
28.464665897640828,1.3997677743603916e+16,1.7768694730359005e+17,1.74461216892615e+16,4.0230906112664616e+16,26409437786686.312,155447758874838.22,8436441251010354.0,9.739394331038798e+16
29.133959215593645,1.4038000009051706e+16,1.807671158215038e+17,1.7496377694775236e+16,4.034679712748963e+16,27109709736353.36,159569895048367.53,8661227310867306.0,1.0003803407453518e+17
29.816638399905518,1.4077347174302384e+16,1.839030854719259e+17,1.754541837619324e+16,4.04598855963027e+16,27824123931672.266,163775289503873.66,8890591413170249.0,1.0273824349852178e+17
30.51297116790363,1.4115735786257198e+16,1.8709607127335744e+17,1.759326435686914e+16,4.057021907652667e+16,28552934724127.977,168065439762922.34,9124616035789130.0,1.054956176434284e+17
31.223230591261704,1.4153182476260002e+16,1.903473112877768e+17,1.763993636540256e+16,4.0677845368284856e+16,29296402143711.336,172441876774036.34,9363385455750718.0,1.0831122334316102e+17
31.947695203086937,1.4189703947171354e+16,1.9365806707008966e+17,1.7685455219528728e+16,4.078281247725104e+16,30054792035548.797,176906165717223.1,9606985792948908.0,1.1118614867543675e+17
32.686649107148675,1.4225316960111226e+16,1.9702962412533338e+17,1.7729841809595184e+16,4.0885168576546936e+16,30828376197599.004,181459906814819.5,9855505054296578.0,1.1412150344177099e+17
33.44038208929165,1.42600383209379e+16,2.0046329237395357e+17,1.7773117081709668e+16,4.098496196788095e+16,31617432519379.812,186104736148433.12,1.010903317830583e+16,1.1711841965645144e+17
34.20918973107749,1.4293884866528794e+16,2.0396040662547235e+17,1.7815302020641074e+16,4.108224104211851e+16,32422245121695.71,190842326481803.3,1.0367662080086088e+16,1.2017805204449454e+17
34.993373525699035,1.4326873450927794e+16,2.0752232706086416e+17,1.7856417632554264e+16,4.117705423946807e+16,33243104497344.09,195674388089457.94,1.0631485696751088e+16,1.233015785485762e+17
35.793240996213015,1.4359020931421968e+16,2.1115043972395965e+17,1.7896484927656424e+16,4.126945000946419e+16,34080307652787.12,200602669591087.75,1.0900600033228568e+16,1.2649020084494448e+17
36.60910581613728,1.4390344154608164e+16,2.1484615702219005e+17,1.7935524902831254e+16,4.13594767709218e+16,34934158250785.254,205628958791608.38,1.1175103208468274e+16,1.2974514486831819e+17
37.44128793246003,1.442085994250836e+16,2.1861091823698912e+17,1.7973558524333648e+16,4.144718287203006e+16,35804966753995.555,210755083526937.84,1.1455095502046698e+16,1.330676613457894e+17
