t(s),Total solute volume 1,Total retention volume 1,Total 1 volume 1,Total 2 volume 1,Total 3 volume 1,Total 4 volume 1,Total 5 volume 1,Total 6 volume 1
0.1,803801399340899.0,888695292650996.4,42833262785020.44,42060630525076.21,0.0,0.0,0.0,0.0
0.202,1167630373776447.5,1374899697799191.0,62221114233148.13,61098761396700.84,254128710900.58896,404140411005.1835,4411905862522.835,78879273408466.89
0.30604000000000003,1416297052457143.8,1771527598297592.8,75472155129451.78,74110778259838.27,622477700044.8848,990112201217.8331,10808972948418.102,193226049601475.94
0.41216080000000005,1605940446469052.0,2128758582821138.8,85577941650378.56,84034275261870.9,1069037253614.8064,1700736925035.2468,18567059898792.785,331869085362391.75
0.5204040160000001,1758423153442577.8,2464867363558427.0,93703495893798.44,92013259680730.08,1575940359143.176,2507664446506.0728,27376722531624.9,489267127204048.6
0.6308120963200001,1885002846301040.2,2788734280913482.5,100448720850664.62,98636813377535.34,2132377757553.7654,3393757637774.2817,37050918646073.8,662068846342838.9
0.7434283382464002,1992393538164010.5,3105408382317593.0,106171395306805.28,104256261476482.11,2731150778954.8794,4347615408024.304,47465220739643.24,848043200443673.2
0.8582969050113283,2084979004347933.5,3418065364504856.0,111105123483991.05,109100994415015.97,3367189667949.6353,5361218958428.803,58532122586651.21,1045619711044884.4
0.9754628431115548,2165802600890109.5,3728851123278711.0,115412080851374.72,113330262319368.62,4036793969375.0317,6428725267310.56,70187869104593.75,1253652790876581.5
1.094972099973786,2237072746703638.2,4039296934680381.0,119209950443384.36,117059625441565.45,4737197320128.731,7545775940569.501,82384911951327.66,1471286726879771.5
1.2168715419732616,2300446529384387.5,4350544170909846.5,122587035749652.45,120375794441019.64,5466298340379.732,8709069907242.129,95087245235288.0,1697872197851876.8
1.3412089728127268,2357200390845464.5,4663474947510098.0,125611356273510.27,123345561876122.48,6222484739465.159,9916084171308.541,108267357385813.06,1932911712218425.5
1.4680331522689813,2408338583409936.0,4978792451624833.0,128336426979905.6,126021477401700.86,7004513402281.246,11164883472821.227,121904153539421.1,2176022413418757.8
1.597393815314361,2454665126087082.0,5297072607928659.0,130805092727758.25,128445613035364.36,7811425890023.455,12453986191617.184,135981491856205.12,2426909872140601.5
1.729341691620648,2496833252381840.5,5618798566104095.0,133052163262906.88,130652150620094.39,8642487285248.197,13782267323414.645,150487124508159.97,2685349120722432.0
1.863928525453061,2535380395033476.5,5944384450210881.0,135106277497654.4,132669212475662.67,9497140946199.395,15148886720446.756,165411914447942.3,2951170623089487.5
2.001207095962122,2570753552809872.5,6274192153855962.0,136991255265774.16,134520188770498.38,10374974406114.135,16553235030837.006,180749245372142.66,3224249702200725.0
2.1412312378813647,2603328072764273.0,6608543493491940.0,138727098198274.12,136224720343521.33,11275693262955.73,17994892327539.043,196494570200665.0,3504498446394705.0
2.284055862638992,2633421810963737.0,6947729181312882.0,140330744325472.11,137799439694601.12,12199100912379.486,19473596017479.418,212645060857000.53,3791859428542205.5
2.4297369798917723,2661305978727742.0,7292015568820370.0,141816646055323.75,139258538537235.53,13145082627507.822,20989215654994.848,229199333415056.47,4086300773802509.0
2.578331719489608,2687213566487023.5,7641649796014546.0,143197219067091.56,140614208595014.19,14113592921121.844,22541732969711.81,246157230166950.6,4387812245807631.0
2.7298983538794,2711345967552398.0,7996863779802095.0,144483195281158.28,141876988204515.88,15104645419551.918,24131225885341.855,263519645256460.94,4696402112202657.0
2.884496320956988,2733878244297992.0,8357877343719796.0,145683903485327.62,143056037879632.75,16118304681345.43,25757855629464.008,281288384055040.97,5012094613690998.0
3.0421862473761276,2754963356852796.5,8724900703281638.0,146807494674882.7,144159361586915.44,17154679537816.428,27421856263051.52,299466048953607.5,5334927905412574.0
3.2030299723236504,2774735589425310.5,9098136461466558.0,147861124635826.34,145193986035353.0,18213917636035.31,29123526122759.336,318055946036247.6,5664952371575026.0
3.3670905717701234,2793313349375574.5,9477781227406256.0,148851103102857.3,146166107143816.22,19296200940212.934,30863220788696.457,337062008408691.1,6002229237646407.0
3.5344323832055258,2810801471098170.0,9864026942113162.0,149783016529527.12,147081210596669.28,20401742003104.684,32641347278800.445,356488732919256.0,6346829421687638.0
3.7051210308696363,2827293125453635.5,1.0257061974187532e+16,150661829838721.16,147944171758865.9,21530780860661.1,34458359236978.688,376341127730916.4,6698832579307758.0
3.879223451487029,2842871412395689.5,1.065707203328689e+16,151491971291160.1,148759339013575.88,22683582434573.496,36314752932073.99,396624668747736.9,7058326306472074.0
4.0568079205167695,2857610697218551.0,1.1064240938012676e+16,152277403691835.3,149530603684193.16,23860434351333.42,38211063922767.42,417345263314351.3,7425405471829661.0
4.237944078927105,2871577737862648.0,1.1478751266603814e+16,153021684462288.75,150261459023022.16,25061645104880.84,40147864272840.9,438509219927060.56,7800171655951096.0
4.422702960505647,2884832640826054.0,1.1900784912620768e+16,153728016579567.0,150955050231390.06,26287542504241.95,42125760223965.2,460123222943400.75,8182732679312172.0
4.61115701971576,2897429675626030.5,1.233052356309997e+16,154399291977553.44,151614217078096.94,27538472358768.11,44145390250986.914,482194311471426.8,8573202204337115.0
4.803380160110075,2909417971860672.5,1.2768149113056974e+16,155038128692236.2,152241530374655.4,28814797362423.086,46207423438717.96,504729861773079.4,8971699399555194.0
4.9994477633122765,2920842118312597.5,1.3213844027438452e+16,155646902786968.22,152839323324676.94,30116896145577.375,48312558130367.15,527737572637594.1,9378348656100698.0
5.199436718578522,2931742679909740.0,1.3667791659460226e+16,156227775900464.97,153409718574953.9,31445162468364.14,50461520806646.766,551225453277985.56,9793279348522086.0
5.403425452950093,2942156645481172.5,1.413017653257344e+16,156782719106975.2,153954651645242.4,32800004534151.555,52655065161736.23,575201813381673.8,1.0216625633262486e+16
5.611493962009095,2952117816950225.0,1.4601184591962318e+16,157313533655751.25,154475891293624.2,34181844405316.703,54893971348054.414,599675255009304.6,1.0648526279300032e+16
5.823723841249277,2961657148763523.0,1.5081003430412586e+16,157821869058664.47,154975057277861.03,35591117506456.586,57179045366486.17,624654666087084.1,1.108912452635251e+16
6.040198318074262,2970803044865304.0,1.5569822492538302e+16,158309238915482.53,155453635895210.5,37028272202579.31,59511118582535.41,650149215279694.6,1.1538567966797496e+16
6.261002284435747,2979581619316913.0,1.6067833260669916e+16,158777034801856.5,155912993619901.2,38493769441790.375,61891047352018.67,676168348065183.6,1.1997008448072292e+16
6.486222330124463,2988016925674381.5,1.6575229425152006e+16,159226538492476.97,156354389105805.28,39988082453617.016,64319712742503.64,702721783861498.2,1.246460199282172e+16
6.715946776726952,2996131159426583.0,1.7092207041346546e+16,159658932748672.62,156778983779447.75,41511696495453.93,66798020338835.72,729819514077669.4,1.2941508734479886e+16
6.950265712261491,3003944837129482.5,1.7618964675271218e+16,160075310864179.47,157187851213592.7,43065108640732.01,69326900122876.04,757471800982167.0,1.3427892866318188e+16
7.18927102650672,3011476955319099.5,1.8155703539495604e+16,160476685133357.28,157581985442699.88,44648827603339.6,71907306419065.67,785689177297104.2,1.3923922602280868e+16
7.433056447036854,3018745131826609.0,1.870262762066954e+16,160863994381636.16,157962308357546.53,46263373593605.04,74540217898665.4,814482446440606.6,1.4429770148170912e+16
7.681717575977592,3025765731735756.0,1.92599437998507e+16,161238110677584.06,158329676296214.34,47909278201797.97,77226637636574.28,843862683351057.1,1.4945611681951728e+16
7.935351927497144,3032553979901471.0,1.982786196662198e+16,161599845328837.72,158684885931868.25,49587084305662.12,79967593215504.23,873841235836574.1,1.547162734210211e+16
8.194058966047088,3039124061678538.0,2.040659512784894e+16,161949954249772.12,159028679543601.2,51297345998946.71,82764136873042.45,904429726401250.4,1.6008001223103844e+16
8.45794014536803,3045489213281523.0,2.0996359511801696e+16,162289142776629.25,159361749744708.7,53040628538306.35,85617345687761.33,935640054506562.5,1.6554921377266214e+16
8.72709894827539,3051661803003969.5,2.1597374668265652e+16,162618069995558.0,159684743732659.22,54817508306261.22,88528321801076.44,967484399232377.0,1.7112579822193736e+16
9.0016409272409,3057653404361306.5,2.220986356517729e+16,162937352640282.75,159998267116454.34,56628572788202.16,91498192672016.1,999975222306874.2,1.768117255329217e+16
9.281673745785717,3063474862082335.0,2.2834052682248056e+16,163247568608677.4,160302887369770.84,58474420561661.27,94528111362459.62,1033125271479170.4,1.8260899560783944e+16
9.567307220701432,3069136351754685.5,2.3470172101975364e+16,163549260141176.75,160599136952041.38,60355661296274.71,97619256850742.34,1066947584212085.5,1.885196485076835e+16
9.85865336511546,3074647433827815.5,2.411845559838725e+16,163842936698507.84,160887516134274.62,62272915763044.57,100772834371817.5,1101455491675716.6,1.945457646991609e+16
10.155826432417769,3080017102589069.0,2.4779140723819972e+16,164129077571546.12,161168495561834.84,64226815851653.59,103990075782418.02,1136662623025276.0,2.006894653343817e+16
10.458942961066125,3085253830652956.5,2.545246889398714e+16,164408134252069.78,161442518582433.84,66218004594719.984,107272239949881.94,1172582909949036.5,2.0695291256006056e+16
10.768121820287448,3090365609438147.5,2.6138685471566748e+16,164680532589721.03,161710003364183.3,68247136197988.68,110620613163494.66,1209230591474378.0,2.13338309853389e+16
11.083484256693197,3095359986050646.0,2.68380398484999e+16,164946674757444.94,161971344825580.1,70314876075552.49,114036509567368.88,1246620219021681.8,2.1984790238201652e+16
11.405153941827061,3100244096942141.5,2.7550785527170004e+16,165206941045088.88,162226916396754.6,72421900889279.03,117521271614027.11,1284766661697563.0,2.264839773858523e+16
11.733257020663602,3105024698670034.5,2.82771802006089e+16,165461691498553.75,162477071629054.9,74568898591688.62,121076270537978.83,1323685111820119.8,2.332488645786146e+16
12.067922161076874,3109708196048519.5,2.9017485831854424e+16,165711267419923.4,162722145668111.62,76756568471593.78,124702906848700.2,1363391090670404.2,2.4014493656727132e+16
12.409280604298411,3114300667947575.0,2.977196873256851e+16,165955992742241.56,162962456603823.75,78985621201856.03,128402610842515.77,1403900454465160.2,2.4717460928765308e+16
12.75746621638438,3118807890968109.0,3.0540899641006652e+16,166196175291131.62,163198306709217.1,81256778888671.06,132176843132976.5,1445229400547022.0,2.5434034245469536e+16
13.112615540712067,3123235361197015.5,3.1324553799418148e+16,166432107944082.75,163429983578818.06,83570775121818.44,136027095199401.22,1487394473789133.0,2.616446400258782e+16
13.474867851526309,3127588314223528.0,3.212321103094121e+16,166664069697088.12,163657761176054.34,85928355025360.86,139954889953317.1,1530412573212012.2,2.6909005067653876e+16
13.844365208556836,3131871743579188.5,3.2937155816048976e+16,166892326647282.12,163881900798166.88,88330275308289.14,143961782322599.97,1574300958811029.8,2.7667916828582436e+16
14.221252512727972,3136090417746808.5,3.376667736858863e+16,167117132899322.62,164102651966239.88,90777304314649.06,148049359853165.66,1619077258593766.0,2.8441463243214656e+16
14.605677562982532,3140248895868665.5,3.461206971145062e+16,167338731402449.44,164320253247164.03,93270222072691.44,152219243328114.4,1664759475826680.5,2.9229912889704856e+16
14.997791114242183,3144351542270856.0,3.547363175189297e+16,167557354724468.66,164534933013656.88,95809820342617.61,156473087404277.5,1711365996491485.8,3.00335390176456e+16
15.397746936527026,3148402539909045.5,3.635166735653993e+16,167773225768250.62,164746910147839.72,98396902662489.78,160812581266149.3,1758915596951658.0,3.085261959983452e+16
15.805701875257567,3152405902830318.0,3.7246485426067624e+16,167986558435805.78,164956394693329.5,101032284391907.77,165239449297228.16,1807427451830333.8,3.168743738458868e+16
16.221815912762718,3156365487736597.5,3.815839996958007e+16,168197558244475.7,165163588460319.47,103716792753038.11,169755451768821.34,1856921142100848.0,3.2538279948515984e+16
16.64625223101797,3160285004726615.5,3.908773017867623e+16,168406422899358.5,165368685587679.1,106451266868612.11,174362385546403.34,1907416663391865.8,3.3405439749655668e+16
17.079177275638333,3164168027286378.0,4.003480050120029e+16,168613342825684.28,165571873065722.7,109236557796497.19,179062084813632.72,1958934434509223.0,3.428921418090317e+16
17.5207608211511,3168018001591090.5,4.099994071466314e+16,168818501664497.28,165773331222953.78,112073528560456.02,183856421814170.03,2011495306176802.2,3.5189905623633196e+16
17.97117603757412,3171838255175865.0,4.198348599931814e+16,169022076734705.62,165973234179779.72,114963054176714.8,188747307611453.7,2065120569999390.8,3.610782150144025e+16
18.430599558325603,3175632005027070.0,4.298577701086697e+16,169224239464255.56,166171750271906.53,117906021675948.16,193736692866626.75,2119831967650300.2,3.704327433391098e+16
18.899211549492115,3179402365141588.0,4.400715995277169e+16,169425155792951.56,166369042445895.97,120903330120308.81,198826568634795.12,2175651700287188.2,3.799658179034885e+16
19.37719578048196,3183152353596870.0,4.504798664813657e+16,169624986549209.56,166565268629119.9,123955890615108.55,204018967179860.34,2232602438199495.8,3.896806674336683e+16
19.864739696091597,3186884899170938.5,4.610861461112872e+16,169823887802822.22,166760582076163.56,127064626314766.95,209315962808146.2,2290707330691195.5,3.995805732226464e+16
20.36203449001343,3190602847547815.0,4.71894071178925e+16,170022011195642.28,166955131693544.75,130230472422640.2,214719672721082.7,2349990016202905.5,4.0966886966108936e+16
20.869275179813698,3194308967141203.5,4.829073327691514e+16,170219504251910.78,167149062344443.34,133454376184329.34,220232257887206.25,2410474632677411.5,4.1994894476428664e+16
21.38666068340997,3198005954565907.0,4.941296809879341e+16,170416510669822.88,167342515135008.6,136737296874083.03,225855923933763.97,2472185828173008.5,4.30424240694418e+16
21.91439389707817,3201696439784261.5,5.0556492565349496e+16,170613170595775.38,167535627683656.47,140080205773875.58,231592922058215.94,2535148771729173.5,4.41098254277246e+16
22.452681775019734,3205382990952564.5,5.172169369803685e+16,170809620882618.66,167728534374669.84,143484086144766.22,237445549959934.75,2599389164489280.5,4.519745375123296e+16
23.00173541052013,3209068118990207.0,5.290896462557543e+16,171005995333143.6,167921366597286.6,146949933190120.84,243416152792428.97,2664933251085353.5,4.630566980758686e+16
23.561770118730532,3212754281892529.5,5.411870465075138e+16,171202424929905.62,168114252971381.75,150478754010272.22,249507124136415.62,2731807831289776.0,4.743483998152099e+16
24.133005521105144,3216443888806637.5,5.535131931630986e+16,171399038052415.9,168307319560741.16,154071567548200.38,255720906994079.4,2800040271939367.0,4.858533632340847e+16
24.715665631527248,3220139303887816.0,5.660722046986907e+16,171595960682647.34,168500690074857.3,157729404525795.25,262059994804870.0,2869658519137034.5,4.9757536596756056e+16
25.309978944157795,3223842849952967.0,5.788682632777565e+16,171793316599714.12,168694486060101.44,161453307370260.1,268526932483190.28,2940691110736834.5,5.095182432457265e+16
25.91617852304095,3227556811945734.5,5.9190561537820584e+16,171991227564530.4,168888827081048.75,165244330130220.62,275124317478349.78,3013167189117839.0,5.216858883450289e+16
26.53450209350177,3231283440227629.0,6.051885724072921e+16,172189813495183.6,169083830892687.9,169103538381069.22,281854800857146.94,3087116514252957.0,5.340822530262253e+16
27.165192135371807,3235024953707441.0,6.187215113033455e+16,172389192633696.12,169279613604177.34,173032009119099.16,288721088409469.0,3162569477078534.0,5.4671134795782024e+16
27.808495978079243,3238783542821086.0,6.325088751233863e+16,172589481704817.66,169476289834768.28,177030830643949.94,295725941777293.94,3239557113171028.5,5.595772431238564e+16
28.464665897640828,3242561372372447.0,6.465551736156435e+16,172790796067410.06,169673972862466.97,181101102428902.6,302872179607489.3,3318111116736898.0,5.7268406821488744e+16
29.133959215593645,3246360584245696.0,6.608649837759184e+16,172993249858980.0,169872774765951.53,185243934978529.0,310162678728807.1,3398263854922353.0,5.860360130009146e+16
29.816638399905518,3250183299998057.0,6.7544295038674136e+16,173196956133844.84,170072806560250.97,189460449673221.34,317600375353482.75,3480048382449286.0,5.9963732768506056e+16
30.51297116790363,3254031623341924.0,6.902937865381817e+16,173402026995399.66,170274178326624.78,193751778600097.56,325188266303839.06,3563498456584290.0,6.134923232366609e+16
31.223230591261704,3257907642524243.0,7.054222741291413e+16,173608573722911.25,170476999337069.4,198119064369791.03,332929410264321.94,3648648552447420.5,6.276053717024831e+16
31.947695203086937,3261813432610668.0,7.208332643479192e+16,173816706893237.06,170681378173844.06,202563459918615.84,340826929059371.44,3735533878667776.0,6.419809064946843e+16
32.686649107148675,3265751057681473.0,7.365316781308018e+16,174026536497841.66,170887422844370.6,207086128295595.03,348884008957551.1,3824190393392828.5,6.566234226541062e+16
33.44038208929165,3269722572945552.0,7.52522506597343e+16,174238172055448.6,171095240891860.25,211688242433846.0,357103902002361.94,3914654820658688.5,6.7153747708746536e+16
34.20918973107749,3273730026778683.5,7.688108114609885e+16,174451722720654.28,171304939501965.0,216370984905791.8,365489927370156.25,4006964667128702.0,6.867276887769281e+16
34.993373525699035,3277775462691482.0,7.85401725413665e+16,174667297388801.16,171516625605758.12,221135547661685.47,374045472755574.5,4101158239207493.0,7.021987389605566e+16
35.793240996213015,3281860921232477.5,8.023004524828341e+16,174885004797384.1,171730405979313.5,225983131750918.28,382773995784927.9,4197274660538177.5,7.179553712820013e+16
36.60910581613728,3285988441830947.5,8.195122683595589e+16,175104953624256.53,171946387340139.38,230914947025585.7,391679025457949.5,4295353889890050.5,7.340023919078725e+16
37.44128793246003,3290160064584319.0,8.370425206960149e+16,175327252582876.1,172164676440705.94,235932211825784.4,400764163618320.06,4395436739444507.5,7.503446696110512e+16
38.29011369110923,3294377831994211.0,8.548966293708056e+16,175552010514816.34,172385380159287.3,241036152646109.34,410033086453401.94,4497564893486873.5,7.669871358182574e+16
39.15591596493141,3298643790655210.0,8.730800867205131e+16,175779336479757.88,172608605588331.12,246228003782825.7,419489546023568.2,4601780927511802.0,7.839347846200987e+16
40.03903428423004,3302959992900111.5,8.915984577357272e+16,176009339843160.1,172834460120549.2,251509006961189.1,429137371821540.94,4708128327750190.0,8.011926727417592e+16
40.93981496991464,3307328498405054.0,9.104573802198029e+16,176242130361799.34,173063051532909.84,256880410942395.97,438980472362144.56,4816651511125082.0,8.18765919472509e+16
41.85861126931294,3311751375757948.0,9.296625649085678e+16,176477818267344.84,173294488068707.97,262343471109639.88,449022836802836.1,4927395845645033.0,8.366597065520514e+16
42.7957834946992,3316230703993233.0,9.492197955491174e+16,176716514348142.88,173528878517877.0,267899449032766.47,459268536595409.56,5040407671242189.0,8.54879278011822e+16
43.751699164593184,3320768574095812.0,9.69134928935807e+16,176958330029361.47,173766332295681.84,273549612011024.38,469721727169242.9,5155734321063249.0,8.734299399691645e+16
