t(s),Total solute volume 1,Total retention volume 1,Total 1 volume 1,Total 2 volume 1,Total 3 volume 1,Total 4 volume 1,Total 5 volume 1,Total 6 volume 1
0.1,1117071271046687.6,1512117690109863.2,171218609237430.47,223827809825744.56,0.0,0.0,0.0,0.0
0.202,1682005149244548.0,2276951749070659.5,257808603373976.53,337023741310568.8,76233437.62056707,188209490.72873157,3974880722.9818425,110015817912.8948
0.30604000000000003,2112475414512121.8,2859831255616728.5,323788745157015.6,423277164078533.0,193399321.56347787,477475793.21563846,10084304050.60288,279176689895.7588
0.41216080000000005,2476601202121762.0,3352953318609780.5,379599966042554.75,496237128669686.4,343510298.7504446,848079054.3015194,17911656735.33054,495918529690.49963
0.5204040160000001,2799960162979181.0,3790935668363689.5,429162669359696.44,561028635041928.6,523018997.8648108,1291261279.448799,27271947595.28439,755114755009.4692
0.6308120963200001,3095302887610038.5,4191035219707040.0,474431196311979.75,620206521926410.2,730022124.9879191,1802323491.112071,38065925302.76413,1054015587691.3065
0.7434283382464002,3370041822109795.0,4563284158668055.0,516541686338567.8,675256022813772.5,963431186.044165,2378578344.8841686,50236828562.59481,1391048567829.6633
0.8582969050113283,3628926020353515.5,4914110095401538.0,556222048597472.7,727128706689162.9,1222631701.0254006,3018508773.6702867,63752614335.492096,1765326006580.1013
0.9754628431115548,3875210003300267.5,5247918032538329.0,593971118366392.1,776476682640799.5,1507315285.8738916,3721353420.084839,78597201284.82301,2176402360878.3694
1.094972099973786,4111237291957696.5,5567880122023180.0,630148097803360.1,823769522492769.1,1817386657.6773005,4486877044.710386,94765620384.81038,2624139885271.1196
1.2168715419732616,4338760804194010.0,5876369284760684.0,665021664628273.2,869358458786479.9,2152907754.9831233,5315232566.670149,112261100995.69476,3108627910608.158
1.3412089728127268,4559131841761127.0,6175214978434602.0,698798939026318.5,913514252152848.8,2514062086.9177113,6206873046.418887,131093211810.11241,3630131347364.6533
1.4680331522689813,4773417990602108.0,6465862756940930.0,731643554766095.6,956450815023216.4,2901130931.356201,7162492922.250818,151276619686.46625,4189056305965.4146
1.597393815314361,4982480066157516.0,6749478402314318.0,763687452957834.1,998340629177543.1,3314476877.1951904,8182987378.408589,172830231449.52127,4785926325719.504
1.729341691620648,5187024228414853.0,7027018452453817.0,795038869964804.9,1039325188048418.6,3754532131.23156,9269423476.361868,195776584146.10883,5421365485977.612
1.863928525453061,5387638393836157.0,7299279477214997.0,825787918425616.4,1079522292587083.9,4221790035.2950835,10423019211.76866,220141402702.12018,6096086154183.791
2.001207095962122,5584818357159629.0,7566933428676715.0,856010591061945.0,1119031285294631.1,4716798816.637492,11645128085.044333,245953274034.15692,6810879959563.3125
2.1412312378813647,5778986962471684.0,7830553584984152.0,885771699116196.0,1157936891533913.0,5240156935.296141,12937227614.645123,273243404436.3043,7566611073376.046
2.284055862638992,5970508454513503.0,8090633971696488.0,915127072041783.2,1196312095104070.8,5792509601.317745,14300910738.577358,302045437969.8054,8364211178809.809
2.4297369798917723,6159699410490142.0,8347604155662495.0,944125233071349.6,1234220328649478.8,6374546167.559855,15737879377.589655,332395320510.0622,9204675705460.01
2.578331719489608,6346837196419471.0,8601840689005042.0,972808695359979.0,1271717168060297.2,6986998190.656645,17249939647.97248,364331198635.2759,10089061028818.482
2.7298983538794,6532166599066316.0,8853676084274221.0,1001214978491986.5,1308851661314573.8,7630638011.026548,18838998355.801853,397893345580.66187,11018482419390.736
2.884496320956988,6715905091593461.0,9103405940753280.0,1029377415571283.5,1345667383557870.8,8306277742.8145275,20507060503.256523,433124108568.7859,11994112583855.621
3.0421862473761276,6898247061188625.0,9351294666142190.0,1057325801209052.8,1382203284193853.0,9014768592.69161,22256227606.83935,470067873288.22253,13017180681169.773
3.2030299723236504,7079367237730787.0,9597580117133588.0,1085086917051069.5,1418494373886884.5,9757000446.431295,24088696676.70405,508771042335.4626,14088971725398.139
3.3670905717701234,7259423500186153.0,9842477397987804.0,1112684961926828.2,1454572286880227.0,10533901676.681746,26006759742.084885,549282025191.1132,15210826307996.652
3.5344323832055258,7438559193090065.0,1.008618199621592e+16,1140141906907297.2,1490465745150035.2,11346439136.027412,28012803834.18115,591651237858.0173,16384140587687.361
3.7051210308696363,7616905053484582.0,1.032887239119416e+16,1167477790655407.0,1526200944506231.0,12195618307.395926,30109311357.50685,635931110704.1519,17610366507569.53
3.879223451487029,7794580825286861.0,1.0570712239874006e+16,1194710966867689.5,1561801878063903.2,13082483589.88487,32298860795.574253,682176103367.0227,18891012207799.875
4.0568079205167695,7971696620738498.0,1.0811852220306532e+16,1221858312949819.5,1597290609037172.0,14008118702.680944,34584127708.13146,730442725815.9573,20227642608817.684
4.237944078927105,8148354075603958.0,1.1052431596132912e+16,1248935407079137.2,1632687502206562.8,14973647193.29794,36967885985.951996,780789564854.1406,21621880145222.87
4.422702960505647,8324647334956294.0,1.1292579551890244e+16,1275956679300548.5,1668011421441120.2,15980233039.13242,39453009336.0104,833277315486.6847,23075405634418.285
4.61115701971576,8500663898870353.0,1.1532416338808518e+16,1302935541149749.0,1703279899150142.8,17029081333.520111,42042472975.28396,887968816695.0166,24589959267283.457
4.803380160110075,8676485351539147.0,1.1772054262920218e+16,1329884497408244.5,1738509282376360.2,18121439049.21287,44739355515.6924,944929091248.3408,26167341710654.133
4.9994477633122765,8852187992810846.0,1.2011598541189472e+16,1356815242901895.2,1773714859337177.8,19258595873.586502,47546841026.13415,1004225389255.5227,27809415313390.145
5.199436718578522,9027843387596924.0,1.225114804656884e+16,1383738746711198.5,1808910969509677.2,20441885111.013916,50468221260.34714,1065927235219.3536,29518105409440.125
5.403425452950093,9203518845796606.0,1.2490795959095066e+16,1410665325731528.2,1844111099793223.2,21672684648.756744,53506898041.585724,1130106478402.9275,31295401712632.117
5.611493962009095,9379277843149454.0,1.2730630337113452e+16,1437604709179095.5,1879327968835735.5,22952417983.47474,56666385796.95905,1196837346356.998,33143359799005.95
5.823723841249277,9555180391635624.0,1.2970734620294906e+16,1464566095363918.5,1914573601250919.2,24282555306.07852,59950314235.8117,1266196501489.6516,35064102673399.594
6.040198318074262,9731283366598580.0,1.3211188074155976e+16,1491558201829392.0,1949859393163890.2,25664614643.166286,63362431167.80258,1338263100586.5461,37059822417747.95
6.261002284435747,9907640796591954.0,1.3452066184203218e+16,1518589309778452.2,1985196170287867.5,27100163053.718147,66906605457.41085,1413118857212.5881,39132781919182.555
6.486222330124463,1.008430412099456e+16,1.3693441006527922e+16,1545667303559376.0,2020594239542505.5,28590817880.09105,70586830112.50282,1490848106945.1528,41285316676544.91
6.715946776726952,1.0261322419650876e+16,1.3935381480615176e+16,1572799705863867.2,2056063435067089.0,30138248052.66687,74407225505.36261,1571537875405.0105,43519836684382.734
6.950265712261491,1.0438742618148456e+16,1.4177953709252372e+16,1599993709190841.0,2091613159351940.5,31744175447.775837,78372042725.25604,1655277949065.3977,45838828393881.17
7.18927102650672,1.0616609671804262e+16,1.4421221209697626e+16,1627256204046834.2,2127252420103839.5,33410376298.746403,82485667062.15565,1742160948831.3015,48244856750514.62
7.433056447036854,1.0794966730986204e+16,1.4665245139662534e+16,1654593804285627.2,2162989863371526.5,35138682660.13681,86752621621.76846,1832282406392.0344,50740567308499.055
7.681717575977592,1.0973855290022274e+16,1.4910084501157884e+16,1682012869932188.8,2198833803382663.5,36930983925.377914,91177571072.42816,1925740843358.8445,53328688422376.664
7.935351927497144,1.1153315321635318e+16,1.5155796324827392e+16,1709519527788137.0,2234792249480543.8,38789228398.21342,95765325524.8114,2022637853207.9248,56012033516289.01
8.194058966047088,1.1333385398577096e+16,1.5402435837035422e+16,1737119690075135.2,2270872930495960.5,40715424918.46303,100520844545.76888,2123078186056.0947,58793503431700.86
8.45794014536803,1.1514102803912146e+16,1.5650056611672194e+16,1764819071338581.2,2307083316844777.5,42711644542.759995,105449241307.88492,2227169836303.1304,61676088854511.25
8.72709894827539,1.1695503631210364e+16,1.589871070838358e+16,1792623203804629.5,2343430640603571.0,44780022281.025894,110555786876.64685,2335024133180.5537,64662872822656.89
9.0016409272409,1.18776228757473e+16,1.6148448798712792e+16,1820537451358828.8,2379921913783419.5,46922758889.54896,115845914637.36374,2446755834252.1313,67757033315459.305
9.281673745785717,1.2060494517670718e+16,1.6399320281453836e+16,1848567022293474.0,2416563944994043.0,49142122721.630745,121325224864.2141,2562483221916.2026,70961845926104.16
9.567307220701432,1.2244151597974578e+16,1.6651373388356528e+16,1876716980952461.2,2453363354666702.0,51440451636.8482,126999489434.01405,2682328202964.635,74280686618772.7
9.85865336511546,1.2428626288019012e+16,1.6904655281184848e+16,1904992258386953.8,2490326588983929.0,53820154970.067085,132874656687.5024,2806416411257.5576,77717034572059.66
10.155826432417769,1.2613949953246366e+16,1.715921214101016e+16,1933397662121412.0,2527459932646358.0,56283715561.415474,138956856441.1322,2934877313576.873,81274475110423.98
10.458942961066125,1.280015321166798e+16,1.7415089250519034e+16,1961937885118124.2,2564769520591655.0,58833691848.502014,145252405152.544,3067844318725.6436,84956702725533.28
10.768121820287448,1.2987265987628796e+16,1.7672331070024874e+16,1990617514017981.5,2602261348767433.0,61472720022.23482,151767811243.05295,3205454889943.922,88767524189450.67
11.083484256693197,1.3175317561301266e+16,1.7930981307795512e+16,2019441036726619.8,2639941284048344.5,64203516247.65998,158509780580.67712,3347850660715.1284,92710861761725.05
11.405153941827061,1.336433661430826e+16,1.8191082985240612e+16,2048412849407233.5,2677815073377480.0,67028878951.31114,165485222127.36682,3495177554040.784,96790756492526.06
11.733257020663602,1.3554351271830832e+16,1.8452678497443308e+16,2077537262934665.8,2715888352203604.5,69951691176.61678,172701253754.2708,3647585905264.073,101011371624070.25
12.067922161076874,1.374538914151993e+16,1.8715809669469716e+16,2106818508859533.0,2754166652277834.0,72974923008.98161,180165208229.01498,3805230588526.7256,105376996092661.61
12.409280604298411,1.3937477349494952e+16,1.8980517808841748e+16,2136260744925923.2,2792655408866717.0,76101634072.21295,187884639379.13086,3968271146946.1987,109892048133767.12
12.75746621638438,1.41306425736843e+16,1.924684375452237e+16,2165868060181652.8,2831359967432665.0,79334976098.0252,195867328435.90955,4136871926603.7285,114561078992627.66
13.112615540712067,1.4324911074735864e+16,1.951482792272302e+16,2195644479716057.0,2870285589827526.5,82678195570.41608,204121290563.10867,4311202214436.5513,119388776742995.95
13.474867851526309,1.452030872470275e+16,1.978451034981455e+16,2225593969056740.2,2909437460040273.5,86134636446.76569,212654781575.07547,4491436380130.927,124379970216670.67
13.844365208556836,1.4716861033687912e+16,2.0055930732593916e+16,2255720438253596.0,2948820689535908.5,89707742957.562,221476304849.009,4677754022115.416,129539633046586.05
14.221252512727972,1.4914593174615288e+16,2.0329128466134616e+16,2286027745675542.5,2988440322218766.5,93401062486.72946,230594618436.20834,4870340117757.073,134872887826296.81
14.605677562982532,1.5113530006276296e+16,2.060414267942719e+16,2316519701542946.5,3028301339050391.0,97218248534.57547,240018742377.30957,5069385177866.089,140385010388783.92
14.997791114242183,1.531369609478817e+16,2.088101226899715e+16,2347200071216684.5,3068408662349128.0,101163063765.44283,249757966226.6577,5275085405617.478,146081434207587.16
15.397746936527026,1.5515115733586432e+16,2.1159775930668264e+16,2378072578262501.0,3108767159796049.5,105239383142.20995,259821856791.09424,5487642860001.505,151967754923359.38
15.805701875257567,1.5717812962063616e+16,2.1440472189627044e+16,2409140907307743.0,3149381648169550.0,109451197149.83363,270220266088.59058,5707265623917.519,158049734999018.0
16.221815912762718,1.592181158295404e+16,2.172313942892739e+16,2440408706706113.5,3190256896828788.5,113802615110.19865,280963339532.30707,5934167977029.024,164333308506748.44
16.64625223101797,1.6127135178557726e+16,2.200781591656324e+16,2471879591024355.0,3231397630964455.5,118297868590.58269,292061524345.7951,6168570573500.553,170824586050223.53
17.079177275638333,1.6333807125886214e+16,2.229453983122673e+16,2503557143363681.5,3272808534633519.0,122941314908.12196,303525578215.2039,6410700624740.664,177529859825447.7
17.5207608211511,1.6541850610806298e+16,2.258334928685718e+16,2535444917527690.5,3314494253593263.5,127737440732.70663,315366578184.52094,6660792087277.716,184455608823761.75
17.97117603757412,1.6751288641251656e+16,2.28742823560796e+16,2567546440047361.5,3356459397948472.0,132690865790.80806,327595929799.99585,6919085855898.878,191608504180607.56
18.430599558325603,1.6962144059565148e+16,2.3167377092621516e+16,2599865212072814.5,3398708544624435.0,137806346672.7877,340225376510.068,7185829962185.606,198995414673745.8
18.899211549492115,1.7174439554029546e+16,2.346267155279098e+16,2632404711140676.0,3441246239677408.0,143088780746.31732,353267009327.26166,7461279778582.217,206623412374714.25
19.37719578048196,1.7388197669639908e+16,2.376020381609067e+16,2665168392825193.0,3484077000453083.5,148543210178.58063,366733276758.6787,7745698228137.268,214499778457388.34
19.864739696091597,1.7603440818166096e+16,2.4060012005038196e+16,2698159692280615.0,3527205317602727.0,154174826070.00467,380636995011.83655,8039356000061.059,222632009167617.16
20.36203449001343,1.7820191287548748e+16,2.4362134304256464e+16,2731382025681291.5,3570635656965984.5,159988972702.32748,394991358482.8097,8342531771244.977,231027821957984.5
20.869275179813698,1.8038471250670916e+16,2.4666608978893668e+16,2764838791566186.5,3614372461328347.5,165991151903.87234,409809950533.743,8655512433893.402,239695161791834.84
21.38666068340997,1.825830277354131e+16,2.49734743924277e+16,2798533372093140.0,3658420152060893.5,172187027534.9601,425106754566.9809,8978593329420.045,248642207620810.22
21.91439389707817,1.847970782292375e+16,2.528276902390546e+16,2832469134208274.0,3702783130648965.0,178582430096.45746,440896165403.2298,9312078488765.92,257877379040225.88
22.452681775019734,1.870270827344467e+16,2.559453148466477e+16,2866649430735394.5,3747465780116317.0,185183361464.5363,457193000971.3143,9656280879298.49,267409343126711.34
23.00173541052013,1.892732591420664e+16,2.5908800534581828e+16,2901077601389688.5,3792472466350311.0,191995999754.7587,474012514317.24585,10011522658455.117,277247021462639.03
23.561770118730532,1.9153582454935836e+16,2.62256150978859e+16,2935756973719937.5,3837807539333579.0,199026704318.69727,491370405940.51666,10378135434298.023,287399597351957.7
24.133005521105144,1.938149953168589e+16,2.6545014278578388e+16,2970690863982807.0,3883475334287019.0,206282020876.3491,509282836465.6631,10756460533150.059,297876523232145.7
24.715665631527248,1.96110987121227e+16,2.6867037375492204e+16,3005882577952855.0,3929480172728630.0,213768686787.67444,527766439657.33185,11146849274486.186,308687528287090.2
25.309978944157795,1.9842401500409156e+16,2.7191723897024096e+16,3041335411671274.0,3975826363452357.5,221493636466.66428,546838335787.23413,11549663253256.89,319842626265819.6
25.91617852304095,2.007542934171018e+16,2.7519113575571348e+16,3077052652136343.5,4022518203430648.0,229464006941.3939,566516145361.5609,11965274629825.283,331352123512063.1
26.53450209350177,2.0310203626334444e+16,2.7849246381701356e+16,3113037577938256.0,4069559978644412.0,237687143563.61145,586818003217.584,12394066427701.172,343226627209789.9
27.165192135371807,2.0546745693529604e+16,2.818216253808202e+16,3149293459840899.0,4116955964843478.5,246170605871.46274,607762572998.338,12836432839261.621,355477053849894.6
27.808495978079243,2.0785076834946092e+16,2.8517902533198028e+16,3185823561312674.0,4164710428240584.0,254922173609.01572,629369062014.4736,13292779539648.025,368114637923354.9
28.464665897640828,2.1025218297782256e+16,2.885650713487718e+16,3222631139008624.0,4212827626141598.5,263949852906.3478,651657236502.5131,13763524009036.402,381150940846272.4
29.133959215593645,2.126719128762436e+16,2.919801740365032e+16,3259719443205719.5,4261311807514573.0,273261882623.9959,674647437288.925,14249095863478.729,394597860122283.7
29.816638399905518,2.1511016970992908e+16,2.9542474705965268e+16,3297091718193163.5,4310167213499951.5,282866740865.65533,698360595869.6207,14749937194518.184,408467638747972.4
30.51297116790363,2.1756716477605476e+16,2.9889920727275972e+16,3334751202619176.0,4359398077863974.5,292773151663.08606,722818250914.6149,15266502917785.064,422772874866966.75
31.223230591261704,2.2004310902366628e+16,3.0240397485026396e+16,3372701129796031.5,4409008627397358.0,302990091837.2463,748042565207.8004,15799261130781.914,437526531678546.4
31.947695203086937,2.2253821307093136e+16,3.0593947341546444e+16,3410944727964489.5,4459003082261052.5,313526798039.7431,774056343031.9371,16348693480072.781,452741947606655.7
32.686649107148675,2.2505268721983776e+16,3.0950613016878904e+16,3449485220519092.5,4509385656280674.0,324392773978.7688,800883048009.1346,16915295538092.172,468432846735322.7
33.44038208929165,2.275867414684043e+16,3.1310437601552696e+16,3488325826195321.0,4560160557191262.0,335597797833.7477,828546821407.263,17499577189795.8,484613349516606.25
34.20918973107749,2.301405855204881e+16,3.167346456931968e+16,3527469759219848.5,4611331986833637.0,347151929863.0039,857072500922.9401,18102063029376.008,501297983757242.75
34.993373525699035,2.3271442879323096e+16,3.203973778986935e+16,3566920229424782.5,4662904141303769.0,359065520208.80414,886485639951.8605,18723292767270.918,518501695890314.2
35.793240996213015,2.3530848042222884e+16,3.2409301541536348e+16,3606680442326854.0,4714881211056309.0,371349216904.2264,916812527357.4143,19363821647697.305,536239862538304.94
36.60910581613728,2.3792294926446584e+16,3.2782200524015044e+16,3646753599172338.0,4767267380963288.0,384013974086.3515,948080207748.7454,20024220876943.37,554528302374044.0
37.44128793246003,2.405580438990556e+16,3.315847987109462e+16,3687142896948505.5,4820066830329092.0,397071060420.34045,980316502279.487,20705078062658.38,573383288286096.6
38.29011369110923,2.4321397262585244e+16,3.353818516342752e+16,3727851528362274.5,4873283732862567.0,410532067739.0491,1013550029978.6807,21406997664381.445,592821559855275.2
39.15591596493141,2.4589094346195964e+16,3.392136244134385e+16,3768882681786706.0,4926922256607060.0,424408919902.8521,1047810229625.3997,22130601455554.184,612860336149004.8
40.03903428423004,2.4858916413617536e+16,3.430805821772429e+16,3810239541175887.0,4980986563829145.0,438713881884.4763,1083127382178.9142,22876528997265.367,633517328840372.8
40.93981496991464,2.513088420814145e+16,3.469831949094262e+16,3851925285948743.0,5035480810866784.0,453459569083.61206,1119532633776.2412,23645438123978.793,654810755658800.8
41.85861126931294,2.5405018442512776e+16,3.5092193757889308e+16,3893943090842247.5,5090409147937359.0,468658956876.2347,1157058019309.1492,24438005441498.285,676759354179265.6
42.7957834946992,2.568133979777536e+16,3.5489729027087536e+16,3936296125734359.5,5145775718906224.0,484325390403.5384,1195736486592.84,25254926837427.98,699382395957198.5
43.751699164593184,2.5959868921921816e+16,3.5890973831911516e+16,3978987555437126.0,5201584661016302.0,500472594605.4853,1235601921138.5693,26096918004386.914,722699701016112.4
