t(s),Total solute volume 1,Total retention volume 1,Total 1 volume 1,Total 2 volume 1,Total 3 volume 1,Total 4 volume 1,Total 5 volume 1,Total 6 volume 1
0.1,988500314890707.8,1201179625827040.0,98333854761724.14,114345456174609.27,0.0,0.0,0.0,0.0
0.202,1487878706622329.5,1810499640286374.5,148010928139006.62,172111398225670.72,3096024853.5818925,6383789752.420399,102934220452.89421,2386193264307.5015
0.30604000000000003,1867349603122123.0,2275451036420588.0,185759865215308.66,216006956813095.3,7848838460.515286,16183778798.594276,260953932511.86453,6049624720289.361
0.41216080000000005,2187543361692687.5,2669443878833039.0,217612041886506.56,253045591356187.38,13930110082.121418,28722976013.514416,463142311369.4767,10737088500195.438
0.5204040160000001,2471187729574623.5,3019976972790235.0,245828364890862.47,285856349821160.5,21192550545.523987,43697686392.59255,704602332848.8063,16335035933801.676
0.6308120963200001,2729610553907288.0,3340750545883446.0,271535703756678.8,315749588780660.9,29555824106.049343,60942268278.79337,982663078620.3369,22781538267808.855
0.7434283382464002,2969396396254992.0,3639727742931000.5,295389076306852.8,343486981954479.06,38972717899.99737,80359377174.02016,1295754906652.6729,30040201412950.156
0.8582969050113283,3194762837831129.0,3922010970406283.5,317808038321216.94,369556400969257.56,49415229123.403694,101891278533.2734,1642946873607.2146,38089439903407.945
0.9754628431115548,3408598870047654.0,4191098160333004.0,339079980363902.94,394292031905987.06,60867701877.42454,125505696467.88646,2023718548532.5676,46917186068585.21
1.094972099973786,3612983342132111.0,4449509690788481.5,359411701821577.75,417934347087533.6,73323020211.19711,151187964105.37146,2437833439738.6025,56517955323197.06
1.2168715419732616,3809469665627699.0,4699132494991844.0,378957732686150.75,440663038468915.9,86780315457.58037,178936296309.60193,2885262768980.2065,66891078828325.29
1.3412089728127268,3999253778587649.0,4941422979282987.0,397837042266480.06,462616447011805.56,101243499000.02611,208758764378.79486,3366136689545.977,78039572464131.44
1.4680331522689813,4183278950947825.5,5177533583691381.0,416143464998239.4,483903686118569.75,116720278516.44829,240671267637.1977,3880711578942.8594,89969378501650.14
1.597393815314361,4362304197136321.0,5408395361523103.0,433952505981100.5,504612555308222.1,133221473801.62357,274696122735.65118,4429347291928.397,102688838209000.62
1.729341691620648,4536950620942322.0,5634773900039234.0,451325951265198.6,524814901191216.25,150760526828.88678,310861053459.5116,5012490871583.337,116208314188620.48
1.863928525453061,4707733802006737.0,5857308385087487.0,468315089588573.44,544570363799149.1,169353142548.31387,349198450106.0097,5630664607093.848,130539913493283.19
2.001207095962122,4875087033931332.0,6076539622337505.0,484963024053585.2,563929064669120.9,189017020486.19226,389744816087.80927,6284457110487.043,145697280736404.16
2.1412312378813647,5039378381797569.0,6292930600435423.0,501306368971676.25,582933579984026.8,209771651121.76703,432540348103.26514,6974516547079.61,161695441135849.2
2.284055862638992,5200923453192989.0,6506881883587007.0,517376520297217.4,601620417869860.9,231638159559.19785,477628613826.8317,7701545438402.184,178550680015153.4
2.4297369798917723,5359995127544557.0,6718743336459976.0,533200623480371.44,620021143843098.4,254639184438.32434,525056302260.277,8466296636751.983,196280449468491.8
2.578331719489608,5516831083106706.0,6928823194474998.0,548802322235440.5,638163251500223.1,278798783576.63434,574873029202.7664,9269570188516.621,214903295631328.5
2.7298983538794,5671639700535807.0,7137395178031800.0,564202345815577.5,656070845417804.4,304142360216.4442,627131185208.5686,10112210882595.453,234438801834585.03
2.884496320956988,5824604750499866.0,7344704142158087.0,579418975325978.8,673765183394988.5,330696605386.3304,681885816772.4255,10995106334605.137,254907544180492.3
3.0421862473761276,5975889157311482.0,7550970613691389.0,594468418121878.9,691265111814341.0,358489453031.1484,739194533844.1984,11919185495635.635,276331056961180.94
3.2030299723236504,6125638051264510.0,7756394472391978.0,609365111448336.2,708587418723000.9,387550045381.9658,799117438458.8801,12885417501484.92,298731805970795.75
3.3670905717701234,6273981266890339.0,7961157965465472.0,624121970961327.8,725747122820199.4,417908706629.5058,861717070489.3895,13894810797993.338,322133168218514.44
3.5344323832055258,6421035404919933.0,8165428197412501.0,638750595847231.1,742757711976168.2,449596923400.52515,927058367428.1135,14948412492587.633,346559416885758.6
3.7051210308696363,6566905547287318.0,8369359202812294.0,653261439427631.5,759631341616316.8,482647330861.53204,995208635773.3201,16047307892951.127,372035710621435.6
3.879223451487029,6711686693698692.0,8573093684557833.0,667663952066077.0,776379000897390.8,517093703519.609,1066237532102.4552,17192620201892.627,398588086458163.94
4.0568079205167695,6855464972876571.0,8776764481478348.0,681966701660020.2,793010652818960.8,552970949977.4287,1140217052300.5173,18385510343715.547,426243455776810.5
4.237944078927105,6998318670038225.0,8980495815367068.0,696177475852111.9,809535353077696.1,590315111044.0312,1217221527709.7937,19627176902193.1,455029602858102.94
4.422702960505647,7140319103418911.0,9184404356892260.0,710303369224832.5,825961351459816.1,629163360715.523,1297327627199.1807,20918856153996.688,484975185646782.1
4.61115701971576,7281531375959517.0,9388600141809638.0,724350858076739.6,842296178793060.4,669554009628.2615,1380614364333.7312,22261822184366.805,516109738421989.2
4.803380160110075,7422015023111777.0,9593187362673800.0,738325864864707.0,858546721882006.8,711526510657.1548,1467163108969.5469,23657387074142.58,548463676121530.7
4.9994477633122765,7561824573691295.0,9798265056401904.0,752233813996374.9,874719288385139.9,755121466387.6724,1557057602714.4573,25106901149129.086,582068300110851.5
5.199436718578522,7701010037551602.0,1.0003927704243802e+16,766079680342886.6,890819663226877.0,800380638235.1234,1650383977787.6926,26611753284274.977,616955805222149.6
5.403425452950093,7839617331353483.0,1.0210265757705194e+16,779868031593511.8,906853157848745.1,847346957021.1714,1747230778886.8809,28173371256344.42,653159287917204.6
5.611493962009095,7977688651715768.0,1.0417366101578086e+16,793603065375842.5,922824653373831.6,896064534847.2363,1847688987731.7112,29793222139753.95,690712755450302.0
5.823723841249277,8115262803436823.0,1.0625312463313078e+16,807288641906590.5,938738638574057.4,946578678128.7268,1951852050004.066,31472812741052.76,729651135926419.9
6.040198318074262,8252375489190049.0,1.0834185776420298e+16,820928312809826.9,954599243380884.0,998935901674.0922,2059815904445.2656,33213690068191.19,770010289165236.0
6.261002284435747,8389059566050431.0,1.1044064504328638e+16,834525346635707.8,970410268559218.1,1053183943709.2659,2171679013905.8142,35017441831274.64,811827018294386.9
6.486222330124463,8525345273356873.0,1.1255024930107956e+16,848082751527711.4,986175212065524.4,1109371781761.9226,2287542398171.09,36885696971958.64,855139082005964.5
6.715946776726952,8661260435714528.0,1.146714141661772e+16,861603295416869.8,1001897292530277.6,1167549649331.516,2407509668410.621,38820126219026.62,899985207419259.6
6.950265712261491,8796830644364016.0,1.1680486640950544e+16,875089524063982.9,1017579470237964.0,1227769053280.7815,2531687063118.419,40822442668016.04,946405103500175.5
7.18927102650672,8932079419665732.0,1.1895131806465986e+16,888543777223205.0,1033224465922570.6,1290082791892.6958,2660183485428.8994,42894402383028.445,994439474994120.2
7.433056447036854,9067028357049176.0,1.2111146835229178e+16,901968203160759.6,1048834777650363.2,1354544973543.6401,2793110541707.3604,45037805019095.6,1044130036834530.1
7.681717575977592,9201697258443682.0,1.2328600543271036e+16,915364771729394.0,1064412696023247.9,1421211035949.7795,2930582581326.039,47254494463668.68,1095519528993793.2
7.935351927497144,9336104250927548.0,1.254756080074915e+16,928735286171319.9,1079960317903569.8,1490137765948.426,3072716737547.49,49546359495965.67,1148651731747235.2
8.194058966047088,9470265894096392.0,1.2768094678805932e+16,942081393798994.6,1095479558834029.1,1561383319780.8018,3219632969445.9653,51915334463062.9,1203571481324193.0
8.45794014536803,9604197277452118.0,1.2990268584682122e+16,955404595683156.8,1110972164303233.6,1635007243846.219,3371454104805.2886,54363399971735.805,1260324685923206.5
8.72709894827539,9737912108944502.0,1.3214148386438788e+16,968706255460756.9,1126439719987776.2,1711070495901.0771,3528305883938.462,56892583595169.17,1318958342070749.8
9.0016409272409,9871422795652528.0,1.3439799528468706e+16,981987607360954.0,1141883661085126.5,1789635466678.9353,3690317004380.288,59504960593749.164,1379520551305282.2
9.281673745785717,1.000474051746969e+16,1.3667287138829906e+16,995249763535177.4,1157305280837233.2,1870766001910.4153,3857619166409.4204,62202654649235.7,1442060537170270.5
9.567307220701432,1.0137875294550988e+16,1.3896676129307374e+16,1008493720766592.8,1172705738332486.5,1954527424723.9182,4030347119360.743,64987838611685.2,1506628662501493.5
9.85865336511546,1.0270836049188474e+16,1.4128031288998338e+16,1021720366625350.8,1188086065663205.5,2040986558410.159,4208638708693.4336,67862735258563.65,1573276446995662.0
10.155826432417769,1.0403630662702918e+16,1.4361417372125002e+16,1034930485128068.4,1203447174506665.8,2130211749535.2422,4392634923783.1436,70829618065543.89,1642056585048484.2
10.458942961066125,1.0536266027872712e+16,1.459689918069394e+16,1048124761953300.5,1218789862189782.0,2222272891388.6206,4582479946410.686,73890811988538.77,1713022963851795.5
10.768121820287448,1.0668748097359058e+16,1.4834541642553232e+16,1061303789258810.9,1234114817290808.8,2317241447753.741,4778321199922.155,77048694256570.05,1786230681740312.0
11.083484256693197,1.080108192853839e+16,1.5074409885335852e+16,1074468070141382.8,1249422624825276.0,2415190476990.533,4980309399038.101,80305695175110.39,1861736066779662.0
11.405153941827061,1.0933271725105372e+16,1.5316569306723892e+16,1087618022775394.2,1264713771058500.0,2516194656419.9976,5188598600292.663,83664298939587.55,1939596695588319.2
11.733257020663602,1.1065320875771902e+16,1.5561085641422302e+16,1100753984262525.0,1279988647982111.8,2620330307002.46,5403346253084.751,87127044458769.9,2019871412386896.5
12.067922161076874,1.1197231990352864e+16,1.5808025025189118e+16,1113876214221464.5,1295247557488263.2,2727675418302.0854,5624713251326.61,90696526187790.31,2102620348269094.8
12.409280604298411,1.132900693349851e+16,1.6057454056233168e+16,1126984898143566.5,1310490715271702.5,2838309673731.099,5852863985676.711,94375394970602.5,2187904940689391.5
12.75746621638438,1.1460646856307602e+16,1.6309439854259302e+16,1140080150537624.5,1325718254486595.2,2952314476068.469,6087966396346.062,98166358891689.14,2275787953163408.5
13.112615540712067,1.1592152226030574e+16,1.6564050117411736e+16,1153162017884708.0,1340930229182492.2,3069772973248.279,6330192026468.963,102072184136884.44,2366333495177349.5
13.474867851526309,1.172352285405259e+16,1.682135317734322e+16,1166230481421815.5,1356126617541252.0,3190770084414.5654,6579716076031.067,106095695863190.17,2459607042303941.5
13.844365208556836,1.185475792232573e+16,1.7081418052614568e+16,1179285459771341.2,1371307324934656.5,3315392526239.5205,6836717456349.515,110239779077504.64,2555675456522746.5
14.221252512727972,1.1985856008405732e+16,1.734431450061024e+16,1192326811431636.2,1386472186820494.5,3443728839503.4834,7101378845101.764,114507379524210.8,2654607006743554.0
14.605677562982532,1.2116815109231066e+16,1.7610113068138378e+16,1205354337142515.5,1401620971493272.8,3575869415935.7095,7373886741901.596,118901504581594.2,2756471389532084.0
14.997791114242183,1.2247632663771224e+16,1.78788851408684e+16,1218367782138255.2,1416753382704034.5,3711906525315.8784,7654431524422.277,123425224167098.7,2861339750038062.5
15.397746936527026,1.237830557465801e+16,1.8150702991745628e+16,1231366838299421.8,1431869062162592.0,3851934342836.976,7943207505069.068,128081671651449.75,2969284703126253.5
15.805701875257567,1.250883022890347e+16,1.842563982850995e+16,1244351146213868.8,1446967591934093.8,3996048976731.413,8240412988204.838,132874044781708.94,3080380354711897.0
16.221815912762718,1.263920251779842e+16,1.870376984043517e+16,1257320297156173.5,1462048496740778.0,4144348496162.713,8546250327934.425,137805606613350.47,3194702323302381.5
16.64625223101797,1.2769417856077014e+16,1.898516824439537e+16,1270273834994092.8,1477111246178870.0,4296932959386.474,8860925986455.322,142879686451481.38,3312327761748053.0
17.079177275638333,1.2899471200424838e+16,1.9269911330356e+16,1283211258029713.2,1492155256859504.2,4453904442184.538,9184650592983.941,148099680801358.78,3433335379205408.0
17.5207608211511,1.3029357067400986e+16,1.955807650638025e+16,1296132020782300.0,1507179894481884.8,4615367066578.108,9517639003268.883,153469054328380.97,3557805463316825.5
17.97117603757412,1.3159069550838134e+16,1.984974234323242e+16,1309035535719222.0,1522184475846041.5,4781427029825.447,9860110359704.18,158991340827775.94,3685819902611725.0
18.430599558325603,1.328860233877903e+16,2.0144988618656224e+16,1321921174940730.8,1537168270811956.8,4952192633711.793,10212288152058.26,164670144204220.9,3817462209134520.5
18.899211549492115,1.3417948730001654e+16,2.0443896361397276e+16,1334788271823890.0,1552130504211171.5,5127774314139.104,10574400278834.697,170509139461678.6,3952817541305896.5
19.37719578048196,1.3547101650181538e+16,2.074654789503643e+16,1347636122630334.8,1567070357716316.8,5308284671025.057,10946679109285.404,176512073703757.22,4091972727024208.5
19.864739696091597,1.3676053667734198e+16,2.1053026881694788e+16,1360463988082251.2,1581986971673735.0,5493838498521.069,11329361546096.11,182682767144937.3,4235016287015064.5
20.36203449001343,1.3804797009377104e+16,2.136341836566588e+16,1373271094910461.0,1596879446903602.8,5684552815560.431,11722689088768.383,189025114133041.3,4382038458437366.0
20.869275179813698,1.3933323575446452e+16,2.1677808817029584e+16,1386056637378074.2,1611746846471727.2,5880546896748.727,12126907897723.281,195543084183358.62,4533131218755486.0
21.38666068340997,1.4061624955000676e+16,2.1996286175295364e+16,1398819778782971.8,1626588197436629.5,6081942303609.462,12542268859154.201,202240723024871.94,4688388309887433.0
21.91439389707817,1.418969244073927e+16,2.2318939893122736e+16,1411559652941896.8,1641402492575310.5,6288862916199.059,12969027650658.727,209122153659061.88,4847905262640306.0
22.452681775019734,1.431751704376213e+16,2.264586098016038e+16,1424275365658676.5,1656188692090546.2,6501434965106.368,13407444807681.598,216191577431807.34,5011779421444455.0
23.00173541052013,1.4445089508192788e+16,2.297714204704686e+16,1436965996178911.5,1670945725302427.5,6719787063853.033,13857785790802.467,223453275118939.3,5180109969399153.0
23.561770118730532,1.457240032568463e+16,2.3312877349608984e+16,1449630598633017.0,1685672492326388.5,6944050241711.757,14320321053905.383,230911608026020.9,5352997953643229.0
24.133005521105144,1.4699439749828306e+16,2.365316283329553e+16,1462268203469464.0,1700367865739802.0,7174357976961.025,14795326113268.145,238571019102988.9,5530546311064723.0
24.715665631527248,1.4826197810475408e+16,2.3998096177881136e+16,1474877818879628.8,1715030692238848.2,7410846230595.642,15283081617612.762,246436034074316.7,5712859894364727.0
25.309978944157795,1.4952664327991188e+16,2.434777684247053e+16,1487458432215655.5,1729659794287238.8,7653653480513.575,15783873419159.57,254511262585381.56,5900045498491436.0
25.91617852304095,1.5078828927447648e+16,2.4702306110836572e+16,1500009011402341.0,1744253971758006.2,7902920756200.643,16297992645730.787,262801399365782.4,6092211887460855.0
26.53450209350177,1.5204681052765998e+16,2.5061787137119636e+16,1512528506343983.5,1758812003569434.5,8158791673935.575,16825735773950.967,271311225410365.56,6289469821581955.0
27.165192135371807,1.5330209980815534e+16,2.5426324991917812e+16,1525015850326935.5,1773332649315953.2,8421412472539.476,17367404703593.713,280045609178764.0,6491932085104507.0
27.808495978079243,1.5455404835474734e+16,2.579602670879382e+16,1537469961418354.8,1787814650894689.5,8690932049694.096,17923306833127.156,289009507814293.9,6699713514308923.0
28.464665897640828,1.55802546016587e+16,2.6171001331224656e+16,1549889743861620.5,1802256734128061.8,8967501998854.527,18493755136511.797,298207968383071.1,6912931026057826.0
29.133959215593645,1.5704748139314888e+16,2.6551359960018948e+16,1562274089468600.2,1816657610382786.8,9251276646783.67,19079068241307.277,307646129134266.7,7131703646830354.0
29.816638399905518,1.582887419738856e+16,2.693721580122571e+16,1574621879008910.5,1831015978185314.8,9542413091735.613,19679570508145.875,317329220782430.75,7356152542260565.0
30.51297116790363,1.5952621427757812e+16,2.7328684214556936e+16,1586931983596132.5,1845330524833785.0,9841071242317.053,20295592111634.098,327262567812872.25,7586401047202390.0
31.223230591261704,1.607597839913594e+16,2.772588276234766e+16,1599203266070807.0,1859599928006186.2,10147413857056.207,20927469122743.582,337451589811087.8,7822574696343845.0
31.947695203086937,1.619893361093933e+16,2.8128931259073252e+16,1611434582379948.2,1873822857364540.0,10461606584709.941,21575543592755.746,347901802817289.25,8064801255394681.0
32.686649107148675,1.632147550711603e+16,2.8537951821445824e+16,1623624782952714.0,1887997976154532.2,10783818005340.518,22240163638827.273,358618820707081.25,8313210752871309.0
33.44038208929165,1.6443592489931e+16,2.8953068919110336e+16,1635772714071724.5,1902123942800119.0,11114219672194.182,22921683531242.94,369608356599403.8,8567935512504638.0
34.20918973107749,1.6565272933701552e+16,2.937440942595902e+16,1647877219239411.0,1916199412492385.2,11452986154414.88,23620463782426.41,380876224292850.2,8829110186295971.0
34.993373525699035,1.6686505198476424e+16,2.9802102672084604e+16,1659937140538818.5,1930223038771913.0,11800295080626.549,24336871237779.285,392428339731505.5,9096871788247570.0
35.793240996213015,1.6807277643650952e+16,3.023628049639045e+16,1671951319987961.0,1944193475103665.2,12156327183419.125,25071279168422.426,404270722501495.6,9371359728794592.0
36.60910581613728,1.6927578641509712e+16,3.067707729987605e+16,1683918600887090.0,1958109376443603.5,12521266344772.854,25824067365911.047,416409497359423.25,9652715849965512.0
37.44128793246003,1.704739659068787e+16,3.1124630099616084e+16,1695837829157714.5,1971969400795784.0,12895299642457.062,26595622239002.582,428850895793924.94,9941084461299346.0
38.29011369110923,1.716671992954078e+16,3.157907858345088e+16,1707707854672644.0,1985772210758950.5,13278617397439.47,27386336912550.01,441601257621562.7,1.0236612376546996e+16
39.15591596493141,1.7285537149412466e+16,3.2040565165405056e+16,1719527532575883.5,1999516475061323.5,13671413222342.996,28196611328600.883,454667032618326.25,1.0539448951186096e+16
40.03903428423004,1.7403836807791204e+16,3.2509235041851724e+16,1731295724591305.8,2013200870082402.0,14073884070986.91,29026852349778.832,468054782187987.6,1.0849746120778036e+16
40.93981496991464,1.7521607541340988e+16,3.298523624843883e+16,1743011300319033.5,2026824081360410.5,14486230289050.416,29877473865027.61,481771181068602.3,1.1167658440195656e+16
41.85861126931294,1.7638838078797624e+16,3.3468719717794136e+16,1754673138518278.5,2040384805084013.5,14908655665895.527,30748896897796.59,495823019078434.4,1.1493343123752056e+16
42.7957834946992,1.7755517253716432e+16,3.3959839338024636e+16,1766280128375472.8,2053881749566961.2,15341367487587.945,31641549716748.195,510217202902607.25,1.1826960086258828e+16
43.751699164593184,1.787163401705979e+16,3.4458752012026576e+16,1777831170756438.8,2067313636704139.0,15784576591153.463,32555867949067.938,524960757921766.8,1.21686719850442e+16
