t(s),Total solute volume 1,Total retention volume 1,Total 1 volume 1,Total 2 volume 1,Total 3 volume 1,Total 4 volume 1,Total 5 volume 1,Total 6 volume 1
0.1,1405356901042544.8,1.6627283363228424e+16,3932847546865173.5,1.1289078915320706e+16,0.0,0.0,0.0,0.355950925957304
0.202,1948594501021565.0,2.3100719307176732e+16,5453096862446872.0,1.5653270483862936e+16,83590421460.68524,656563754582.566,10005531875739.932,35011773793586.477
0.30604000000000003,2390954832063752.5,2.8415823828491176e+16,6691034682735385.0,1.9206868934700664e+16,207218569842.94736,1635250451216.851,27345336837446.324,97777573132869.17
0.41216080000000005,2771881129470864.5,3.3034322983294936e+16,7757049790550081.0,2.2266934806504372e+16,363986667713.239,2877687666336.635,50698059566399.17,184517522869173.84
0.5204040160000001,3111291058352184.5,3.718917504397605e+16,8706881875119727.0,2.4993483910005028e+16,550241804111.7678,4354500774425.866,79352837808617.56,293260620111968.94
0.6308120963200001,3420661514976660.5,4.1014567530504504e+16,9572648957967292.0,2.7478716522646748e+16,763844285874.0244,6048563071396.19,112879043547926.52,422849084008608.3
0.7434283382464002,3707148498502355.5,4.459410618684986e+16,1.0374377020980944e+16,2.9780119781429436e+16,1003457295276.0686,7949182339209.126,150987939135676.2,572520307166933.2
0.8582969050113283,3975512028706993.0,4.798338473252053e+16,1.1125386912367876e+16,3.1935932576248e+16,1268218496578.734,10049457053403.61,193475725220800.88,741759814426885.9
0.9754628431115548,4229088569029673.5,5.122136524388343e+16,1.1835015672870996e+16,3.3972957737775364e+16,1557571734031.1296,12344928300233.08,240194849324374.7,930205914848755.0
1.094972099973786,4470317368270988.0,5.433652906152218e+16,1.25100894998247e+16,3.591079043624411e+16,1871172569009.434,14832824916543.432,291036454317992.0,1137591305378838.0
1.2168715419732616,4701042810658506.0,5.735041855902749e+16,1.3155769870808098e+16,3.7764247098128824e+16,2208830825083.4434,17511604822103.205,345919989318913.7,1363718354465959.8
1.3412089728127268,4922698516538230.0,6.027979095568077e+16,1.3776068747171778e+16,3.954484435992109e+16,2570473730875.8447,20380661058017.168,404786898528676.25,1608441298732098.0
1.4680331522689813,5136424951041255.0,6.313798940746424e+16,1.4374177700273706e+16,4.126174386044107e+16,2956121324206.3667,23440125815135.645,467596279696142.4,1871650368872710.8
1.597393815314361,5343147099490660.0,6.593585049542698e+16,1.495268528494304e+16,4.29223762325391e+16,3365869238671.3086,26690733341533.8,534321807415041.25,2153263468458917.2
1.729341691620648,5543627460038003.0,6.8682325506485624e+16,1.5513725338532006e+16,4.453286680880707e+16,3799876215151.404,30133720508055.996,604949648202288.9,2453222654183030.0
1.863928525453061,5738503472671395.0,7.138491832785358e+16,1.6059081725379418e+16,4.609833629943775e+16,4258354929816.446,33770753836625.465,679477018951786.2,2771490702646781.5
2.001207095962122,5928314597706269.0,7.405000182467218e+16,1.659026411550781e+16,4.7623118321061656e+16,4741565124769.123,37603874878291.4,757911095032851.5,3108048255360540.0
2.1412312378813647,6113522178853013.0,7.668305134783277e+16,1.7108563571068458e+16,4.911091896179556e+16,5249808257421.983,41635457649929.98,840268152709126.4,3462893217499308.5
2.284055862638992,6294524287361518.0,7.928882035588226e+16,1.7615094087410956e+16,5.056493602780874e+16,5783423231845.625,45868174660578.49,926572915226184.4,3836041440182392.5
2.4297369798917723,6471667087065990.0,8.187147474724978e+16,1.811082439795262e+16,5.1987950341379624e+16,6342782998025.511,50304969849180.234,1016858039468393.2,4227527128535984.0
2.578331719489608,6645253665740733.0,8.443469716576341e+16,1.8596602688563304e+16,5.338239668517476e+16,6928291806699.844,54949036734026.19,1111163656307853.4,4637403141436053.0
2.7298983538794,6815550926934616.0,8.698176907865763e+16,1.9073175884232268e+16,5.4750419165816376e+16,7540382897259.984,59803799978365.75,1209536923359943.8,5065741995438743.0
2.884496320956988,6982795026938116.0,8.951563614120933e+16,1.9541204864313756e+16,5.609391489012204e+16,8179516500689.539,64872899436414.27,1312031602679920.5,5512637341218322.0
3.0421862473761276,7147195765227599.0,9.203896082256782e+16,2.000127674909924e+16,5.741456923441701e+16,8846178142735.236,70160176586290.04,1418707673068806.0,5978205046026135.0
3.2030299723236504,7308940192299460.0,9.455416520256362e+16,2.0453914996270916e+16,5.8713884827000376e+16,9540877219566.29,75669663136852.1,1529630950964891.5,6462583695671578.0
3.3670905717701234,7468195572826850.0,9.706346609673149e+16,2.089958769323783e+16,5.999320535177364e+16,10264145757908.838,81405571092746.27,1644872690605323.2,6965935071437150.0
3.5344323832055258,7625111816663197.0,9.956890412839315e+16,2.133871436025044e+16,6.1253735076949656e+16,11016537288051.244,87372283699553.03,1764509173646576.0,7488444879895682.0
3.7051210308696363,7779823515874573.0,1.0207236797829842e+17,2.1771671650995356e+16,6.249655521892577e+16,11798625841074.754,93574347376127.45,1888621327430790.5,8030323291854733.0
3.879223451487029,7932451707923189.0,1.0457561475866374e+17,2.219879828683073e+16,6.3722638106319784e+16,12611005116451.928,100016465023088.66,2017294390814243.5,8591804796636265.0
4.0568079205167695,8083105414741078.0,1.0708028724762218e+17,2.2620399363856364e+16,6.493285954371932e+16,13454287807762.508,106703490608782.84,2150617605409316.2,9173147541479484.0
4.237944078927105,8231882957753777.0,1.0958792856097176e+17,2.3036750032983604e+16,6.612800937558263e+16,14329105009313.191,113640424397699.4,2288683904674364.5,9774632760570354.0
4.422702960505647,8378873066197377.0,1.1209999471703755e+17,2.344809860153998e+16,6.730880038960196e+16,15236105650810.932,120832408391228.12,2431589613217572.5,1.0396564532438586e+16
4.61115701971576,8524155840990124.0,1.1461786545793595e+17,2.385466923064661e+16,6.847587605971709e+16,16175955995994.807,128284722284461.73,2579434203177571.5,1.1039269445124128e+16
4.803380160110075,8667803639274080.0,1.171428536192865e+17,2.4256664410593584e+16,6.9629817651895e+16,17149339279761.617,136002780557470.14,2732320135196119.5,1.1703095662490418e+16
4.9994477633122765,8809881892848178.0,1.1967621328482466e+17,2.46542672512131e+16,7.077115079887625e+16,18156955489242.035,143992130744089.88,2890352753878194.0,1.2388411501775654e+16
5.199436718578522,8950449823838455.0,1.2221914691845317e+17,2.5047643484671776e+16,7.190035124938831e+16,19199521193770.617,152258452091329.12,3053640177231266.0,1.3095604210038302e+16
5.403425452950093,9089561029591748.0,1.2477281163136408e+17,2.5436943102286028e+16,7.301784956675763e+16,20277769321006.453,160807553763940.72,3222293156977068.5,1.3825079452666666e+16
5.611493962009095,9227263966111840.0,1.2733832471412163e+17,2.5822301707409224e+16,7.412403501246616e+16,21392448886236.734,169645372659036.8,3396424956752822.5,1.457726124983637e+16
5.823723841249277,9363602400040362.0,1.299167685414578e+17,2.6203841780292856e+16,7.521925917704496e+16,22544324795622.934,178777971832369.12,3576151319622547.0,1.535259156782908e+16
6.040198318074262,9498615874082386.0,1.3250919493967022e+17,2.658167398057453e+16,7.630383971902318e+16,23734177828185.113,188211540399179.9,3761590537348439.5,1.61515291104143e+16
6.261002284435747,9632340160555476.0,1.3511662909189237e+17,2.6955898416529904e+16,7.737806400848518e+16,24962804751595.05,197952394531781.34,3952863542030224.5,1.6974547765008228e+16
6.486222330124463,9764807632974446.0,1.3774007304446018e+17,2.7326605684947864e+16,7.84421921121467e+16,26231018388626.62,208006978037910.22,4150093911633921.5,1.7822135706330658e+16
6.715946776726952,9896047515341790.0,1.4038050886773125e+17,2.7693877568764016e+16,7.949645879593867e+16,27539647479960.527,218381861250608.1,4353407759597049.5,1.8694795719359136e+16
6.950265712261491,1.0026086049826136e+16,1.4303890151667654e+17,2.8057787506303916e+16,8.054107487194744e+16,28889536387316.758,229083738603107.1,4562933604839245.0,1.959304620876937e+16
7.18927102650672,1.0154946679509442e+16,1.4571620142996896e+17,2.8418401102696572e+16,8.15762286664452e+16,30281544874729.24,240119426858964.53,4778802372030504.0,2.0517421637553484e+16
7.433056447036854,1.028265031554472e+16,1.484133469007515e+17,2.8775776877513204e+16,8.260208816609515e+16,31716548196491.625,251495865880031.28,5001147583654614.0,2.1468471543867264e+16
7.681717575977592,1.0409215663400972e+16,1.5113126624752144e+17,2.91299671777618e+16,8.361880363886974e+16,33195437477139.12,263220121798324.56,5230105632656136.0,2.244675857555732e+16
7.935351927497144,1.053465950111893e+16,1.5387087980950422e+17,2.948101895658377e+16,8.46265098694225e+16,34719120082614.766,275299390097011.7,5465815916613836.0,2.345285705558556e+16
8.194058966047088,1.0658996809636744e+16,1.566331017875285e+17,2.982897413796682e+16,8.562532720599182e+16,36288519616841.734,287740995582886.25,5708420687671459.0,2.4487353431061916e+16
8.45794014536803,1.0782240755309816e+16,1.594188419486898e+17,3.0173869567821852e+16,8.661536141984438e+16,37904575439122.43,300552388403355.7,5958064698207465.0,2.555084854366372e+16
8.72709894827539,1.0904402641322364e+16,1.6222900721086186e+17,3.051573687800423e+16,8.759670331482082e+16,39568242012865.95,313741138690341.2,6214894929196657.0,2.6643960066814564e+16
9.0016409272409,1.1025491979998246e+16,1.6506450312115904e+17,3.0854602688673796e+16,8.856942930820768e+16,41280488627254.7,327314934307877.3,6479060689807445.0,2.776732303153669e+16
9.281673745785717,1.1145516752608194e+16,1.6792623524063203e+17,3.119048933536551e+16,8.953360351796686e+16,43042299844315.43,341281584597555.0,6750714128815426.0,2.8921587621434304e+16
9.567307220701432,1.1264483772341532e+16,1.708151104458019e+17,3.1523415884767012e+16,9.048928067877712e+16,44854676493811.16,355649028627670.75,7030010859011003.0,3.0107415545783692e+16
9.85865336511546,1.1382398962354992e+16,1.7373203815621312e+17,3.185339891283762e+16,9.143650837578821e+16,46718636541882.75,370425342361353.94,7317110226869529.0,3.1325477699459424e+16
10.155826432417769,1.149926739056885e+16,1.766779314961378e+17,3.218045260218195e+16,9.237532732407083e+16,48635215104894.06,385618738735159.4,7612174931884410.0,3.2576455293591636e+16
10.458942961066125,1.1615093058427596e+16,1.7965370839781734e+17,3.250458815089093e+16,9.330576967142877e+16,50605463391974.82,401237558893329.0,7915370143944273.0,3.3861044350840404e+16
10.768121820287448,1.1729878619808462e+16,1.826602926530329e+17,3.28258129859023e+16,9.422785674004886e+16,52630447144332.0,417290259306738.56,8226862691816693.0,3.5179960909005476e+16
11.083484256693197,1.1843625280121292e+16,1.8569861491910867e+17,3.3144130480629424e+16,9.51415982158415e+16,54711245650256.5,433785403701265.2,8546820975643640.0,3.653394331752125e+16
11.405153941827061,1.1956333030122382e+16,1.8876961368460634e+17,3.345954060929136e+16,9.604699402689117e+16,56848952224846.305,450731667113398.94,8875415867959442.0,3.792374953100367e+16
11.733257020663602,1.2068001153547938e+16,1.9187423619906816e+17,3.37720413675295e+16,9.69440384217587e+16,59044676171424.836,468137852160509.7,9212822208687724.0,3.935015051921235e+16
12.067922161076874,1.217862874860233e+16,1.9501343937047165e+17,3.4081630231795348e+16,9.783272415905829e+16,61299545195066.96,486012908973275.7,9559219991646066.0,4.081392378520135e+16
12.409280604298411,1.2288214956279068e+16,1.9818819063372995e+17,3.4388304798305816e+16,9.871304434169258e+16,63614706718148.66,504365945977292.2,9914794363327064.0,4.231585152143007e+16
12.75746621638438,1.2396758738439156e+16,2.013994687936103e+17,3.4692062161989028e+16,9.958499063382597e+16,65991326989937.46,523206222414677.7,1.0279734181589782e+16,4.385672552836169e+16
13.112615540712067,1.2504258316247346e+16,2.0464826484556096e+17,3.499289734493928e+16,1.0044854874919997e+17,68430588139004.734,542543123910165.0,1.0654229791528698e+16,4.543735693159645e+16
13.474867851526309,1.2610710605851954e+16,2.079355827778179e+17,3.529080171716033e+16,1.01303693917355e+17,70933684689824.8,562386133712947.4,1.1038471317485494e+16,4.705858540156233e+16
13.844365208556836,1.271611102908258e+16,2.112624403576079e+17,3.5585762466801604e+16,1.0215038936279742e+17,73501821690905.62,582744817362007.2,1.1432648689809048e+16,4.872128217006431e+16
14.221252512727972,1.282045389231274e+16,2.1462986990340387e+17,3.5877763660410816e+16,1.0298858934882349e+17,76136215980869.19,603628833323813.2,1.1836953763892828e+16,5.0426344188659256e+16
14.605677562982532,1.2923733209670526e+16,2.1803891904438384e+17,3.6166788546698024e+16,1.0381824579120942e+17,78838100463746.1,625047968434559.0,1.225158366716557e+16,5.217468176074189e+16
14.997791114242183,1.3025943574369472e+16,2.2149065146792627e+17,3.64528219949624e+16,1.0463931525843738e+17,81608729442841.4,647012181940407.2,1.2676743619694372e+16,5.396720610907945e+16
15.397746936527026,1.3127080613747452e+16,2.2498614765630803e+17,3.673585176851878e+16,1.0545176262736627e+17,84449382132105.03,669531634310790.1,1.3112647488891068e+16,5.580482414134157e+16
15.805701875257567,1.322714075004695e+16,2.2852650561454486e+17,3.70158678552339e+16,1.0625555916119662e+17,87361362066899.61,692616682072438.9,1.3559515362949972e+16,5.768844444097803e+16
16.221815912762718,1.3326120341631836e+16,2.321128415920023e+17,3.7292860064207736e+16,1.0705067560988456e+17,90345992104363.47,716277836238708.1,1.4017569000960232e+16,5.961899274697487e+16
16.64625223101797,1.3424014617369966e+16,2.3574629080045152e+17,3.756681504363043e+16,1.078370736489194e+17,93404607099481.9,740525701703398.5,1.4487027329550992e+16,6.159742985217785e+16
17.079177275638333,1.3520816960741762e+16,2.3942800813043427e+17,3.783771427735441e+16,1.0861470012788957e+17,96538547910021.33,765370927842020.0,1.4968104457829382e+16,6.362476283086715e+16
17.5207608211511,1.3616518964448152e+16,2.4315916886640112e+17,3.810553423771865e+16,1.0938348750929832e+17,99749160190023.28,790824198849767.6,1.5461011694179244e+16,6.570204310171705e+16
17.97117603757412,1.3711111316800972e+16,2.46940969399787e+17,3.837024886612488e+16,1.101433609899235e+17,103037799395944.22,816896275425826.2,1.5965963152691602e+16,6.7830350999424264e+16
18.430599558325603,1.3804585170987646e+16,2.5077462793872074e+17,3.863183340494048e+16,1.1089424950152563e+17,106405840436548.39,843598074651772.0,1.6483182634469218e+16,7.0010773311709544e+16
18.899211549492115,1.3896933390384996e+16,2.5466138521381315e+17,3.889026788251949e+16,1.116360957156333e+17,109854687895624.62,870940754297312.0,1.7012908538084056e+16,7.224438424499838e+16
19.37719578048196,1.3988151086558064e+16,2.5860250518113917e+17,3.914553861879171e+16,1.1236886036566552e+17,113385782027836.08,898935761893633.6,1.755539414049341e+16,7.45322394257091e+16
19.864739696091597,1.4078235164369954e+16,2.6259927572533587e+17,3.939763695224037e+16,1.1309251859214173e+17,117000597241323.81,927594821560741.5,1.811090251910803e+16,7.687538707867368e+16
20.36203449001343,1.4167183026795418e+16,2.6665300936661078e+17,3.964655561530358e+16,1.138070495369854e+17,120700632965740.83,956929857982593.6,1.867969783588403e+16,7.927489286069403e+16
20.869275179813698,1.4254990975928926e+16,2.7076504397478963e+17,3.989228425957592e+16,1.145124234971496e+17,124487400308693.64,986952885871592.8,1.9262036578496696e+16,8.17318683774582e+16
21.38666068340997,1.4341653006170694e+16,2.7493674349135725e+17,4.013480607852927e+16,1.1520859222912685e+17,128362410164967.0,1017675911839999.0,1.985816275499584e+16,8.42474911005297e+16
21.91439389707817,1.4427160545836342e+16,2.7916949865768995e+17,4.03740970844105e+16,1.1589548687319205e+17,132327168352248.66,1049110894675931.9,2.04683096688045e+16,8.682300642241824e+16
22.452681775019734,1.4511503318620292e+16,2.8346472774560902e+17,4.061012851906224e+16,1.1657302487458082e+17,136383180773640.33,1081269788596907.0,2.1092708239827404e+16,8.94597098241476e+16
23.00173541052013,1.4594671030040164e+16,2.8782387728618134e+17,4.084287157345977e+16,1.1724112353251158e+17,140531967541354.73,1114164660378226.5,2.1731598989111644e+16,9.215891553313861e+16
23.561770118730532,1.4676655236830476e+16,2.922484227946729e+17,4.10723026192287e+16,1.1789971501890314e+17,144775081153961.47,1147807839547219.5,2.2385243020803428e+16,9.492192397820595e+16
24.133005521105144,1.4757450673602818e+16,2.9673986949309274e+17,4.12984069213125e+16,1.1854875703663438e+17,149114121851948.62,1182212044724275.8,2.3053927426236068e+16,9.775000126873086e+16
24.715665631527248,1.4837055516529994e+16,3.012997530353295e+17,4.152117937588645e+16,1.1918823493774982e+17,153550744016272.53,1217390435504924.8,2.3737962499301476e+16,1.0064437952634032e+17
25.309978944157795,1.491547046575998e+16,3.0592964024179226e+17,4.174062194247393e+16,1.1981815435131118e+17,158086650636410.7,1253356565577975.8,2.443767122060581e+16,1.036062790454269e+17
25.91617852304095,1.4992696967882884e+16,3.106311298496274e+17,4.195673866949432e+16,1.204385269024937e+17,162723577270457.44,1290124249182118.2,2.515337447314455e+16,1.0663694501015925e+17
26.53450209350177,1.506873521721308e+16,3.1540585328094816e+17,4.2169530100827704e+16,1.2104935415481026e+17,167463270954598.56,1327707386300832.2,2.5885377279096944e+16,1.0973768587174488e+17
27.165192135371807,1.5143582659953768e+16,3.2025547542642125e+17,4.237898908970675e+16,1.2165061559264491e+17,172307471716734.8,1366119809995798.0,2.663396129062706e+16,1.1290989951177616e+17
27.808495978079243,1.5217233549636304e+16,3.2518169543696506e+17,4.2585099554616504e+16,1.2224226504985048e+17,177257903823730.03,1405375214718735.8,2.7399386762046876e+16,1.1615507740227253e+17
28.464665897640828,1.5289679729231702e+16,3.3018624751433894e+17,4.278783866805095e+16,1.2282423699348358e+17,182316280712330.0,1445487197964761.5,2.8181903927460456e+16,1.194747847174353e+17
29.133959215593645,1.5360912383620012e+16,3.352709016931064e+17,4.2987181760824376e+16,1.2339646060335642e+17,187484322824697.7,1486469408439028.5,2.8981770305616536e+16,1.2287062290842546e+17
29.816638399905518,1.5430924176799606e+16,3.4043746461160986e+17,4.318310830307734e+16,1.239588769424754e+17,192763783051120.5,1528335756590956.5,2.9799268244216884e+16,1.2634418740539858e+17
30.51297116790363,1.5499711076271258e+16,3.456877802764227e+17,4.337560700983236e+16,1.2451145361409144e+17,198156471837723.72,1571100621661448.0,3.063471682061111e+16,1.298970346621176e+17
31.223230591261704,1.556727329502419e+16,3.5102373083071654e+17,4.3564678477144344e+16,1.2505419232942318e+17,203664274101441.84,1614778990305313.5,3.1488474039545044e+16,1.3353066942517312e+17
31.947695203086937,1.563361508270113e+16,3.564472373396447e+17,4.375033459766338e+16,1.2558712722959846e+17,209289152705797.34,1659386483649900.0,3.2360928378388652e+16,1.3724655641493728e+17
32.686649107148675,1.5698743458281242e+16,3.6196026060386566e+17,4.393259501402434e+16,1.2611031470374446e+17,215033137394926.3,1704939264048237.2,3.3252482051297984e+16,1.4104615297507419e+17
33.44038208929165,1.576266628532912e+16,3.675648020059948e+17,4.411148173240366e+16,1.2662381792532898e+17,220898302457072.53,1751453848973809.5,3.416353089920015e+16,1.4493095301230176e+17
34.20918973107749,1.5825390267164122e+16,3.732629043860706e+17,4.428701351197693e+16,1.271276907452711e+17,226886739768839.25,1798946887361431.2,3.5094446884690284e+16,1.489025293498377e+17
34.993373525699035,1.5886919443924898e+16,3.79056652933989e+17,4.4459201658941496e+16,1.27621965617432e+17,233000535334778.94,1847434965618111.8,3.604556850285189e+16,1.529625622098857e+17
35.793240996213015,1.59472546111097e+16,3.849481760822568e+17,4.462804839930295e+16,1.2810664892736986e+17,239241756534140.16,1896934502843753.8,3.7017202172492504e+16,1.5711284571260394e+17
36.60910581613728,1.6006393799748418e+16,3.9093964638322656e+17,4.479354822265189e+16,1.2858172485031656e+17,245612454223286.2,1947461769276805.8,3.800963446806603e+16,1.6135527081894368e+17
