t(s),Total solute volume 1,Total retention volume 1,Total 1 volume 1,Total 2 volume 1,Total 3 volume 1,Total 4 volume 1,Total 5 volume 1,Total 6 volume 1
0.1,839524706393360.9,941664656952722.2,50673114377222.37,51466836182138.266,0.0,0.0,0.0,0.0
0.202,1264866511895880.2,1419023166153519.2,76346443430605.17,77542301398860.06,678928119.4563655,1136814894.4813375,13414977985.088133,252678707174.3223
0.30604000000000003,1588670041660346.0,1782633730556248.8,95890994297682.95,97392989759940.66,1722475636.5871456,2884159270.124759,34034543687.87396,641063659682.6237
0.41216080000000005,1862462520332425.8,2090264430765527.5,112416913669022.1,114177764061289.03,3059302582.4527507,5122580186.158301,60449075168.76461,1138601744850.8198
0.5204040160000001,2105525599392317.5,2363530292166426.5,127088028324321.72,129078680776277.77,4657709165.008817,7798999234.321009,92032217809.46545,1733494747302.1526
0.6308120963200001,2327464608009630.5,2613198542454574.5,140484109104609.1,142684592030322.1,6500654867.819893,10884883865.668682,128447272336.21095,2419400498953.248
0.7434283382464002,2533861816501375.0,2845526754588832.5,152942097878002.94,155337717405412.1,8578360940.945127,14363860825.07154,169501025880.16873,3192679556396.8945
0.8582969050113283,2728293007428068.0,3064523562654879.5,164677826337898.5,167257269290463.94,10885271082.61174,18226627047.564137,215083697674.02536,4051264002643.5376
0.9754628431115548,2913208256090928.5,3272936010673965.5,175839179287736.03,178593448893290.06,13418553827.836657,22468442025.635136,265139347603.81125,4994100058558.95
1.094972099973786,3090371524688210.5,3472742302213536.5,186532628231801.6,189454395442296.88,16177273039.533405,27087738862.998035,319649485889.0033,6020839353440.963
1.2168715419732616,3261101987777276.5,3665422289730610.0,196837797608571.1,199920980579105.06,19161889335.82908,32085289455.635075,378623221769.9181,7131653365098.804
1.3412089728127268,3426416363604646.5,3852116996931968.5,206816055808609.53,210055533942492.8,22373941876.680603,37463671670.623184,442090975933.6411,8327114986739.014
1.4680331522689813,3587117701583234.0,4033728124607891.5,216515874323584.56,219907286260829.1,25815835789.222576,43226913408.909645,510100280266.3544,9608119410789.037
1.597393815314361,3743853324663157.0,4210982984455087.0,225976325106577.7,229515921493543.8,29490695062.37958,49380246291.374565,582712871219.5417,10975829379231.824
1.729341691620648,3897154072168080.0,4384478475063051.0,235229449241782.1,238913982602659.16,33402257909.7003,55929930454.72365,660002622310.4244,12431636239851.715
1.863928525453061,4047461717278383.0,4554711805116577.0,244301911844303.66,248128552374226.72,37554800739.984085,62883127249.0092,742054041887.3018,13977131649782.357
2.001207095962122,4195148635735917.5,4722102532923077.0,253216189249193.25,257182459202986.97,41953082023.16925,70247805248.33223,828961164008.2996,15614086683708.33
2.1412312378813647,4340532240571081.5,4887008740787313.0,261991440281311.66,266095162009431.5,46602300376.87306,78032670073.04439,920826720308.6039,17344436234735.5
2.284055862638992,4483885785099164.5,5049739142837089.0,270644158318404.72,274883412520939.16,51508063048.31208,86247111729.48012,1017761541568.2826,19170270182247.082
2.4297369798917723,4625446603460708.0,5210562307106367.0,279188668676577.28,283561760430135.75,56676362259.762665,94901164561.87778,1119883993366.536,21093813018753.445
2.578331719489608,4765422462172614.0,5369713790309957.0,287637511997095.75,292142942814220.44,62113557334.50373,104005477991.54152,1227319768195.5068,23117434522519.05
2.7298983538794,4903996563185102.0,5527401732752972.0,296001746219432.3,300638190819492.25,67826361580.69686,113571294116.25832,1340201529656.3877,25243633343595.1
2.884496320956988,5041331505369681.0,5683811300928468.0,304291185695876.06,309057472526046.94,73821832728.41017,123610431812.0897,1458668747694.9524,27475036324625.39
3.0421862473761276,5177572466974075.0,5839108254542088.0,312514593282248.3,317409688047323.94,80107366287.43834,134135275615.55457,1582867567408.7634,29814396029121.004
3.2030299723236504,5312849786460034.0,5993441839655285.0,320679836115439.2,325702827747677.25,86690691264.50064,145158768556.6066,1712950724475.8318,32264589147823.52
3.3670905717701234,5447281074764646.0,6146947157009703.0,328794013107999.25,333944101733978.44,93579867822.95427,156694408244.4138,1849077498968.3552,34828615628054.113
3.5344323832055258,5580972958643588.0,6299747117189225.0,336863560175097.7,342140046730817.75,100783286563.28293,168756245667.22034,1991413701194.1743,37509598406301.516
3.7051210308696363,5714022530670451.0,6451954067288984.0,344894337755451.8,350296614972310.06,108309669173.55623,181358886286.35583,2140131684610.6416,40310783650707.47
3.879223451487029,5846518563850702.0,6603671154024272.0,352891704124560.6,358419248663689.6,116168070252.65494,194517493094.19412,2295410381914.3096,43235541440052.94
4.0568079205167695,5978542535763957.0,6754993473595073.0,360860577211206.56,366512942766067.7,124367880149.98363,208247791374.40497,2457435361218.788,46287366821082.195
4.237944078927105,6110169497373609.0,6906009047671643.0,368805487038182.4,374582298258572.8,132918828697.00954,222566074955.76962,2626398899857.6753,49469881197770.92
4.422702960505647,6241468814240980.0,7056799656573396.0,376730620461457.7,382631567578297.0,141830989730.59793,237489213792.09174,2802500073836.3716,52786834015309.53
4.61115701971576,6372504802220949.0,7207441554371886.0,384639859540311.3,390664693591428.9,151114786327.52173,253034662733.21072,2985944861339.7783,56242104708794.95
4.803380160110075,6503337275344976.0,7358006085752643.0,392536814607156.25,398685343181083.6,160780996684.89526,269220471377.89145,3176946259006.9385,59839704892351.484
4.9994477633122765,6634022020195704.0,7508560220659298.0,400424852900462.5,406696936328714.56,170840760593.6111,286065294919.9831,3375724409927.098,63583780768982.24
5.199436718578522,6764611208406628.0,7659167019751872.0,408307123462938.9,414702671402283.75,181305586461.77863,303588405915.864,3582506742507.707,67478615745150.02
5.403425452950093,6895153756807917.0,7809886041344880.0,416186578879679.25,422705547234917.06,192187358853.2252,321809706914.6949,3797528119524.288,71528633237083.92
5.611493962009095,7025695643057811.0,7960773698607328.0,424065994329447.06,430708382474589.25,203498346512.70935,340749743904.01385,4021030996792.1655,75738399658265.12
5.823723841249277,7156280183249552.0,8111883574295076.0,431947984340835.9,438713832602749.94,215251210854.9293,360429720532.3383,4253265591007.5444,80112627579559.69
6.040198318074262,7286948276896077.0,8263266699068016.0,439835017579374.5,446724404953048.75,227459014898.89597,380871513077.9226,4494490056393.964,84656179055144.0
6.261002284435747,7417738623811247.0,8414971798454109.0,447729429938310.7,454742472007164.25,240135232632.98984,402097686139.10266,4744970669864.385,89374069108759.23
6.486222330124463,7548687916684696.0,8567045512715895.0,455633436162309.3,462770283200576.25,253293758799.1508,424131509026.9371,5004982024470.917,94271469375999.2
6.715946776726952,7679831012557097.0,8719532593211665.0,463549140197563.25,470809975434787.94,266948919087.31476,446996972845.2569,5274807230966.865,99353711899322.73
6.950265712261491,7811201085912914.0,8872476078297582.0,471478544432370.8,478863582462653.9,281115480733.4366,470718808247.01184,5554738127349.933,104626293073318.28
7.18927102650672,7942829765705001.0,9025917451363616.0,479423557967842.2,486933043288625.7,295808663516.36176,495322503859.0185,5845075496293.173,110094877738457.2
7.433056447036854,8074747258287564.0,9179896783219840.0,487386004038042.0,495020209705124.94,311044151150.44855,520834325369.92114,6146129290402.829,115765303422184.84
7.681717575977592,8206982457952957.0,9334452860734194.0,495367626681916.25,503126853068981.56,326838103072.2534,547281335278.5875,6458218865270.113,121643584726724.17
7.935351927497144,8339563046531774.0,9489623303357908.0,503370096755082.1,511254670407376.44,343207166620.8141,574691413302.1902,6781673220308.163,127735917863420.77
8.194058966047088,8472515583315844.0,9645444668952216.0,511395017357509.4,519405289930556.0,360168489612.1303,603093277445.0085,7116831247386.2705,134048685333858.14
8.45794014536803,8605865586395653.0,9801952550141496.0,519443928743003.44,527580276018199.44,377739733309.383,632516505730.5392,7464041987292.401,140588460758312.45
8.72709894827539,8739637606360701.0,9959181662256872.0,527518312767689.1,535781133737595.75,395939085791.23047,662991558600.9148,7823664894070.465,147362013852428.2
9.0016409272409,8873855293188734.0,1.0117165923798676e+16,535619596927414.25,544009312944273.0,414785275721.2625,694549801988.7854,8196070107293.89,154376315553259.7
9.281673745785717,9008541457046368.0,1.0275938530229346e+16,543749158027618.9,552266212009365.5,434297586522.3297,727223531067.9176,8581638732349.218,161638543296064.7
9.567307220701432,9143718123633610.0,1.0435532021807898e+16,551908325523896.6,560553181212493.0,454495870960.0248,761045994689.7643,8980763128814.86,169156086443446.4
9.85865336511546,9279406584627978.0,1.0595978346091278e+16,560098384566767.6,568871525834221.4,475400566140.12085,796051420514.0261,9393847207030.375,176936551868637.94
10.155826432417769,9415627443717900.0,1.075730891565386e+16,568320578780217.9,577222508978134.1,497032708925.21576,832275040842.0916,9821306732960.564,184987769694880.16
10.458942961066125,9552400658657238.0,1.09195546615117e+16,576576112800080.4,585607354148963.6,519413951776.25616,869753119162.8573,10263569641467.201,193317799193016.78
10.768121820287448,9689745579722994.0,1.108274608268266e+16,584866154595326.2,594027247610246.5,542566579024.9741,908522977421.1201,10721076358107.863,201934934839546.34
11.083484256693197,9827680984915676.0,1.1246913292265354e+16,593191837592710.5,602483340542254.2,566513523583.6342,948623024019.2527,11194280129589.236,210847712537524.7
11.405153941827061,9966225112202606.0,1.1412086060376718e+16,601554262622976.4,610976751018672.2,591278384098.7568,990092782563.4392,11683647363007.215,220064916002797.84
11.733257020663602,1.0105395689073066e+16,1.1578293854252422e+16,609954499704778.0,619508565818466.1,616885442555.8115,1032972921366.156,12189657974012.223,229595583318173.88
12.067922161076874,1.0245209959643938e+16,1.1745565875780604e+16,618393589680748.9,628079842087592.0,643359682342.0837,1077305283717.0994,12712805744043.586,239449013658223.5
12.409280604298411,1.038568470952986e+16,1.1913931096712102e+16,626872545718656.6,636691608863637.1,670726806775.1888,1123132918935.08,13253598686780.725,249634774187482.78
12.75746621638438,1.0526836288669152e+16,1.2083418291764714e+16,635392354689157.6,645344868475180.9,699013258104.8986,1170500114213.7815,13812559423963.623,260162707134935.72
13.112615540712067,1.0668680632277616e+16,1.2254056069817214e+16,643953978430545.9,654040597826347.5,728246236996.1492,1219452427274.6548,14390225570738.947,271042937047690.5
13.474867851526309,1.0811233280083966e+16,1.2425872903369686e+16,652558354909803.5,662779749576028.8,758453722501.2708,1270036719840.4695,14987150130691.494,282285878226862.0
13.844365208556836,1.0954509393986162e+16,1.2598897156428662e+16,661206399288310.1,671563253220302.6,789664492529.6469,1322301191943.2876,15603901900723.838,293902242348709.06
14.221252512727972,1.1098523774253774e+16,1.277315711096132e+16,669899004899819.9,680392016085722.8,821908144823.1503,1376295417081.0073,16241065885950.531,305903046274146.6
14.605677562982532,1.1243290874389434e+16,1.294868099204855e+16,678637044147474.9,689266924240382.5,855215118445.8323,1432070378236.657,16899243724774.691,318299620049792.25
14.997791114242183,1.1388824814751474e+16,1.3125496991855196e+16,687421369326065.2,698188843329053.5,889616715796.4668,1489678504774.9648,17579054124318.482,331103615103747.2
15.397746936527026,1.1535139395030402e+16,1.330363329252467e+16,696252813375101.4,707158619338059.1,925145125152.637,1549173710230.833,18281133306379.785,344327012639357.6
15.805701875257567,1.1682248105663318e+16,1.3483118088095206e+16,705132190567779.5,716177079295016.5,961833443755.1481,1610611431004.5103,19006135464090.297,357982132230234.1
16.221815912762718,1.183016413826187e+16,1.3663979605527118e+16,714060297140398.0,725245031908139.4,999715701441.6108,1674048665978.3628,19754733229450.27,372081640619812.5
16.64625223101797,1.1978900395123786e+16,1.3846246124922208e+16,723037911866473.8,734363268149315.4,1038826884838.1199,1739544017070.31,20527618151917.7,386638560728804.06
17.079177275638333,1.2128469497889824e+16,1.4029945999008854e+16,732065796579274.0,743532561784845.9,1079202962117.9591,1807157730738.8745,21325501188230.402,401666280873839.44
17.5207608211511,1.2278883795404414e+16,1.4215107671961136e+16,741144696646274.4,752753669857321.9,1120880908336.2612,1876951740455.1152,22149113203637.215,417178564200669.06
17.97117603757412,1.2430155370831512e+16,1.4401759697613476e+16,750275341398652.5,762027333121856.8,1163898731349.644,1948989710156.4243,22999205484719.67,433189558335246.75
18.430599558325603,1.258229604807242e+16,1.4589930757127718e+16,759458444518693.2,771354276439549.5,1208295498329.7236,2023337078697.3345,23876550263979.94,449713805256037.8
18.899211549492115,1.2735317397529944e+16,1.4779649676163844e+16,768694704387677.9,780735209130825.8,1254111362879.3418,2100061105312.2578,24781941256372.137,466766251390848.4
19.37719578048196,1.2889230741255974e+16,1.4970945441601902e+16,777984804396618.5,790170825291044.1,1301387592760.3599,2179230916105.0996,25716194207953.203,484362257941468.7
19.864739696091597,1.3044047157519186e+16,1.5163847217857598e+16,787329413221928.5,799661804070477.5,1350166598241.6682,2260917551580.2627,26680147456825.758,502517611439341.0
20.36203449001343,1.3199777484822892e+16,1.5358384362829816e+16,796729185067967.2,809208809920664.1,1400491961075.87,2345194015229.497,27674662506541.51,521248534535451.06
20.869275179813698,1.3356432325401976e+16,1.5554586443515774e+16,806184759878093.0,818812492808758.1,1452408464113.0012,2432135323188.63,28700624612133.24,540571697027502.2
21.38666068340997,1.3514022048222922e+16,1.5752483251322986e+16,815696763515750.0,828473488401461.4,1505962121559.2075,2521818554977.648,29758943378932.086,560504227127378.3
21.91439389707817,1.3672556791508094e+16,1.5952104817105982e+16,825265807916832.2,838192418219767.1,1561200209888.0745,2614322905337.1406,30850553374326.36,581063722971750.2
22.452681775019734,1.3832046464802136e+16,1.6153481425949888e+16,834892491214411.2,847969889765642.5,1618171299411.8804,2709729737173.418,31976414752604.293,602268264378500.4
23.00173541052013,1.3992500750594654e+16,1.635664363171947e+16,844577397836670.8,857806496621505.5,1676925286519.331,2808122635623.5654,33137513893016.945,624136424851489.5
23.561770118730532,1.4153929105509848e+16,1.6561622271388652e+16,854321098578724.1,867702818523147.2,1737513426586.0017,2909587463250.8887,34334864051181.227,646687283835918.4
24.133005521105144,1.431634076106976e+16,1.6768448479159108e+16,864124150648676.4,877659421406543.6,1799988367562.6123,3014212416379.646,35569506023931.125,669940439226245.6
24.715665631527248,1.447974472403464e+16,1.6977153700374318e+16,873987097688168.1,887676857428697.1,1864404184245.5698,3122088082576.609,36842508827704.98,693916020128290.4
25.309978944157795,1.4644149776318674e+16,1.718776970522831e+16,883910469767298.5,897755664962483.2,1930816413233.0762,3233307499285.1724,38154970390535.82,718634699876788.4
25.91617852304095,1.4809564474475798e+16,1.7400328602263424e+16,893894783353570.9,907896368565123.6,1999282088568.687,3347966213615.454,39508018257686.305,744117709309072.1
26.53450209350177,1.4975997148745254e+16,1.7614862851646728e+16,903940541254302.0,918099478919687.2,2069859778072.8909,3466162343291.4614,40902810310941.63,770386850295141.8
27.165192135371807,1.51434559016422e+16,1.7831405278206666e+16,914048232531535.5,928365492748657.4,2142609620361.416,3587996638753.518,42340535501537.38,797464509523624.5
27.808495978079243,1.5311948606071858e+16,1.804998908420652e+16,924218332388230.9,938694892698356.9,2217593362547.061,3713572546410.5977,43822414596661.24,825373672542446.0
28.464665897640828,1.5481482902943438e+16,1.827064786182353e+16,934451302024230.0,949088147192639.5,2294874398619.4023,3842996273033.6865,45349700939422.414,854137938052157.1
29.133959215593645,1.5652066198250638e+16,1.849341560529539e+16,944747588460034.0,959545710253929.1,2374517808494.4204,3976376851276.6885,46923681222131.19,883781532448906.8
29.816638399905518,1.5823705659583084e+16,1.8718326722688324e+16,955107624326249.0,970068021289353.1,2456590397722.717,4113826206306.6763,48545676272672.766,914329324612934.2
30.51297116790363,1.5996408212025282e+16,1.894541604723299e+16,965531827616041.8,980655504839311.5,2541160737842.207,4255459223519.5874,50217041853694.34,945806840937284.2
31.223230591261704,1.6170180533394472e+16,1.917471884816666e+16,976020601397703.4,991308570285557.2,2628299207357.1006,4401393817311.599,51939169474254.086,978240280590016.6
31.947695203086937,1.6345029048763132e+16,1.9406270841011944e+16,986574333484024.4,1002027611515380.2,2718078033321.0713,4551751000869.465,53713487213498.4,1011656531001736.5
32.686649107148675,1.652095992420592e+16,1.9640108197213932e+16,997193396054873.0,1012813006538285.0,2810571333498.2476,4706654956935.489,55541460555846.664,1046083183568572.9
33.44038208929165,1.6697979059705806e+16,1.987626755305051e+16,1007878145229012.2,1023665117051082.2,2905855159070.417,4866233109495.299,57424593237068.16,1081548549558957.8
34.20918973107749,1.6876092081149226e+16,2.0114786017722628e+16,1018628920580926.2,1034584287947162.9,3004007537853.9565,5030616196326.922,59364428100531.33,1118081676210593.5
34.993373525699035,1.7055304331335486e+16,2.0355701180523972e+16,1029446044598165.4,1045570846765338.4,3105108517984.083,5199938342341.064,61362547962791.49,1155712363001868.5
35.793240996213015,1.7235620859922428e+16,2.059905111698336e+16,1040329822074461.1,1056625103073452.2,3209240212018.124,5374337133631.665,63420576487568.91,1194471178079769.2
36.60910581613728,1.7417046412227136e+16,2.084487439386723e+16,1051280539433761.9,1067747347781812.9,3316486841403.0454,5553953692145.565,65540179067037.99,1234389474823941.2
37.44128793246003,1.7599585416798914e+16,2.109321007292575e+16,1062298463980123.6,1078937852381357.2,3426934781245.677,5738932750868.733,67723063709217.16,1275499408524035.2
38.29011369110923,1.7783241971680338e+16,2.1344097713259844e+16,1073383843068461.4,1090196868101393.9,3540672605317.1177,5929422729414.29,69970981930109.836,1317833953144830.5
39.15591596493141,1.7968019829273868e+16,2.1597577372188016e+16,1084536903191085.1,1101524624981849.4,3657791131215.4287,6125575809886.17,72285729649102.42,1361426918150994.8
40.03903428423004,1.8153922379731856e+16,2.1853689604486884e+16,1095757848975153.5,1112921330854994.2,3778383465603.2656,6327548012878.816,74669148085976.95,1406312965360417.8
40.93981496991464,1.834095263279208e+16,2.2112475459883212e+16,1107046862086262.5,1124387170231884.0,3902545049429.327,6535499273461.054,77123124657743.95,1452527625792311.5
41.85861126931294,1.8529113197985052e+16,2.237397647867448e+16,1118404100033786.1,1135922303088965.0,4030373703034.861,6749593516979.032,79649593873349.52,1500107316473340.0
42.7957834946992,1.87184062631464e+16,2.2638234685362924e+16,1129829694873885.0,1147526863550782.5,4161969671038.6646,6969998734500.34,82250538224155.52,1549089357162154.8
43.751699164593184,1.890883357117451e+16,2.290529258018869e+16,1141323751806635.5,1159200958465126.0,4297435666886.3296,7196887057708.29,84927989067941.55,1599511986949870.0
44.72673314788505,1.910039639498473e+16,2.317519312846174e+16,1152886347664252.2,1170944665867587.2,4436876916941.833,7430434833043.008,87684027504029.33,1651414380691167.2
