t(s),Total solute volume 1,Total retention volume 1,Total 1 volume 1,Total 2 volume 1,Total 3 volume 1,Total 4 volume 1,Total 5 volume 1,Total 6 volume 1
0.1,878184692305091.0,1002349173156223.1,60489917771387.09,63674563079745.664,0.0,0.0,0.0,0.0
0.202,1323151935250672.0,1510287269195641.0,91139543406304.89,95937816427688.81,121634517.5709373,215188680.27802506,2757789708.045673,54879498070.287155
0.30604000000000003,1662005305674966.2,1897139448466279.8,114479978213229.27,120507067820210.78,308617691.0033699,545988462.1882001,6997226598.178168,139244925123.26532
0.41216080000000005,1948604047018119.8,2224373903359059.0,134221081060995.16,141287491246634.7,548186772.1968275,969820229.6361587,12428937828.578829,247337088479.64178
0.5204040160000001,2203107515128313.5,2514997574007725.5,151751441156057.75,159740781739452.5,834677378.6849338,1476662898.220735,18924495204.73931,376600148419.0966
0.6308120963200001,2435558658769574.5,2780471909761547.5,167762823172224.03,176595123686817.62,1165050629.791096,2061140270.0703197,26414998598.5666,525662943438.8118
0.7434283382464002,2651794242223962.0,3027458092965600.0,182657267130904.88,192273723530843.4,1537568546.561226,2720177627.5868783,34861043157.18547,693741290559.1729
0.8582969050113283,2855553236048539.0,3260223270778553.5,196692315692643.4,207047682920970.8,1951249878.3490806,3452039013.451863,44240381268.45037,880392446237.3046
0.9754628431115548,3049397714982725.5,3481691528893340.5,210044446188476.94,221102770286416.12,2405602001.832328,4255852922.0306373,54541843924.76774,1085394136872.7909
1.094972099973786,3235172472206603.5,3693968418815144.0,222840729141243.84,234572746101002.25,2900472453.9766507,5131349640.214533,65761974543.571144,1308677569655.3853
1.2168715419732616,3414257331985608.0,3898628901880328.0,235176207720394.72,247557657323632.38,3435959723.173645,6078703424.376042,77903006344.57983,1550287181197.6182
1.3412089728127268,3587715958647276.5,4096887170859265.0,247124147798582.3,260134627095207.9,4012356335.875123,7098431812.634807,90971571960.16948,1810354958085.2788
1.4680331522689813,3756388683206249.0,4289702583009890.0,258742431908392.75,272364585321483.38,4630110859.574644,8191328402.822258,104977841934.28714,2089083292563.7805
1.597393815314361,3920953080595844.5,4477848789659693.5,270077731840436.44,284296660948202.56,5289801629.869508,9358416372.006771,119934929040.23967,2386733128165.8276
1.729341691620648,4081964996353993.0,4661960554661453.0,281168334587458.12,295971156684232.5,5992118083.516655,10600915452.100777,135858465048.3622,2703615537180.4766
1.863928525453061,4239887210010692.0,4842566463975167.0,292046116696623.9,307421627298643.9,6737847216.073012,11920217971.585718,152766293682.83273,3040085610342.833
2.001207095962122,4395109997353889.5,5020112390429076.0,302737960611421.4,318676370529540.06,7527863604.448232,13317871204.074528,170678244405.3534,3396537955016.229
2.1412312378813647,4547966220835220.0,5194978714181888.0,313266794108365.6,329759521244544.0,8363121978.629441,14795564226.723173,189615963995.93625,3773403343562.5586
2.284055862638992,4698742625833363.0,5367493213487923.0,323652368390773.75,340691870499310.0,9244651660.754246,16355118082.249517,209602790471.89752,4171146204260.9116
2.4297369798917723,4847688445162183.0,5537940883792070.0,333911850772734.9,351491489424841.5,10173552401.758923,17998478413.463722,230663658693.93732,4590262742812.381
2.578331719489608,4995022055006726.0,5706571533257038.0,344060283144204.0,362174211829647.1,11150991284.50189,19727709984.549263,252825030152.34302,5031279545038.695
2.7298983538794,5140936194797793.0,5873605739582413.0,354110941519260.25,372754012677333.2,12178200455.316124,21544992667.955387,276114841536.09875,5494752553367.6455
2.884496320956988,5285602110729801.0,6039239579714074.0,364075621446619.8,383243308529331.75,13256475510.724506,23452618622.69586,300562476418.0384,5981267437781.29
3.0421862473761276,5429172886936089.0,6203648427026959.0,373964867453513.6,393653199043975.6,14387174404.441322,25452990231.900333,326198707533.4866,6491434721205.506
3.2030299723236504,5571786138376016.0,6366990031308900.0,383788158547990.94,403993662282129.8,15571716790.812405,27548619134.130005,353055731159.32086,7025896035661.775
3.3670905717701234,5713566223460197.0,6529407039640978.0,393554060616142.94,414273715102739.3,16811583712.097507,29742125542.118534,381167127275.9538,7585319625363.591
3.5344323832055258,5854626066288632.0,6691029077377381.0,403270351941510.5,424501545296863.2,18108317585.956055,32036238252.707237,410567867451.01196,8170401427099.917
3.7051210308696363,5995068673268303.0,6851974479307268.0,412944127670652.94,434684621553096.4,19463522443.056152,34433795067.34045,441294320228.4006,8781865177477.627
3.879223451487029,6134988403728314.0,7012351740135348.0,422581887333924.9,444829785586095.94,20878864380.71025,36937743594.74938,473384261415.39935,9420462617610.578
4.0568079205167695,6274472041481645.0,7172260737855367.0,432189608655337.0,454943329832355.06,22356072204.873283,39551142386.882904,506876888640.55835,10086973782798.615
4.237944078927105,6413599704065426.0,7331793771931088.0,441772810181594.7,465031063376505.2,23896938238.50986,42277162369.17656,541812839683.7707,10782207367272.55
4.422702960505647,6552445618653790.0,7491036449369791.0,451336604727471.56,475098368210456.0,25503319278.763042,45119088534.080055,578234214180.2014,11507001156078.941
4.61115701971576,6691078787719518.0,7650068445020762.0,460885745226998.3,485150247498538.44,27177137688.84316,48080321872.93271,616184598378.8306,12262222517751.316
4.803380160110075,6829563562953058.0,7808964157218607.0,470424664265373.9,495191367190670.8,28920382613.325394,51164381526.17435,655709092699.1359,13048768952664.156
4.9994477633122765,6967960142390234.0,7967793275832586.0,479957508321437.8,505226092067620.44,30735111307.767555,54374907135.814835,696854341879.8815,13867568692968.264
5.199436718578522,7106325002909254.0,8126621276597972.0,489488167558337.2,515258517100060.7,32623450575.35044,57715661387.25105,739668567554.5321,14719581350816.146
5.403425452950093,7244711278048871.0,8285509853086197.0,499020301847874.4,525292494843058.44,34587598304.707794,61190532730.11319,784201603121.0773,15605798612244.367
5.611493962009095,7383169089342061.0,8444517295663937.0,508557363592991.9,535331659460086.0,36629825104.30913,64803538269.9369,830504930801.1304,16527244974621.594
5.823723841249277,7521745837949231.0,8603698825183040.0,518102617815641.9,545379447868480.94,38752476029.75191,68558826824.21715,878631720805.6965,17484978526018.123
6.040198318074262,7660486462237587.0,8763106887844679.0,527659159899020.5,555439118415762.56,40957972401.14291,72460682137.8547,928636872543.7019,18480091765224.605
6.261002284435747,7799433666029917.0,8922791416627937.0,537229931309496.0,565513767429273.0,43248813708.44217,76513526254.23195,980577057825.0171,19513712461460.38
6.486222330124463,7938628121492700.0,9082800063813074.0,546817733571655.94,575606343926990.1,45627579603.226295,80721923039.19293,1034510766023.092,20587004553075.156
6.715946776726952,8078108650014349.0,9243178408423904.0,556425240727323.94,585719662732469.2,48096931975.82693,85090581856.07413,1090498351173.4341,21701169084773.496
6.950265712261491,8217912383915297.0,9403970141832106.0,566055010474254.2,595856416199969.4,50659617117.22542,89624361390.69894,1148602080993.9724,22857445183081.88
7.18927102650672,8358074911408224.0,9565217234283760.0,575709494151077.0,606019184725073.1,53318467965.45384,94328273625.89003,1208886187821.611,24057111069946.574
7.433056447036854,8498630406875033.0,9726960084706968.0,585391045710866.9,616210446190708.0,56076406436.57209,99207487965.62279,1271416921466.6257,25301485114493.547
7.681717575977592,8639611748233518.0,9889237655824416.0,595101929805423.5,626432584477024.8,58936445840.57298,104267335509.45035,1336262603992.8079,26591926923108.902
7.935351927497144,8781050622918711.0,1.0052087596311298e+16,604844329085346.9,636687897145815.0,61901693382.81524,109513313478.24959,1403493686437.0232,27929838468111.555
8.194058966047088,8922977623796715.0,1.0215546351503682e+16,614620350806633.1,646978602394926.4,64975352751.80339,114951089792.75584,1473182807486.8052,29316665255386.656
8.45794014536803,9065422336151900.0,1.0379649263959924e+16,624432032822408.1,657306845365448.1,68160726794.336945,120586507806.67613,1545404854139.0442,30753897531441.87
8.72709894827539,9208413416739176.0,1.054443066500709e+16,634281349028102.4,667674703873554.6,71461220279.22556,126425591196.51463,1620237024367.066,32243071530426.1
9.0016409272409,9351978665765582.0,1.0709923958260138e+16,644170214319585.9,678084193629677.8,74880342750.93333,132474549010.51573,1697758891826.9558,33785770761726.523
9.281673745785717,9496145092556202.0,1.087616169597606e+16,654100489116282.9,688537272999759.4,78421711474.66805,138739780879.40906,1778052472637.475,35383627338827.02
9.567307220701432,9640938975566422.0,1.1043175648999098e+16,664073983494841.4,699035847356530.0,82089054474.5666,145227882391.87634,1861202294271.0867,37038323350173.484
9.85865336511546,9786385917321558.0,1.1210996870961806e+16,674092460973425.1,709581773063057.9,85886213666.76025,151945650637.90656,1947295466596.5537,38751592272852.195
10.155826432417769,9932510894796170.0,1.1379655757326678e+16,684157641981861.9,720176861125572.4,89817148089.23122,158900089923.4032,2036421755116.3374,40525220429940.81
10.458942961066125,1.0079338305684838e+16,1.1549182099785876e+16,694271207048808.1,730822880548441.0,93885937230.47456,166098417659.6324,2128673656444.6895,42361048492444.08
10.768121820287448,1.0226892010964412e+16,1.1719605136475824e+16,704434799733465.9,741521561420214.2,98096784459.10812,173548070431.28287,2224146476074.863,44260973026779.46
11.083484256693197,1.037519537410231e+16,1.189095359841319e+16,714650029326269.8,752274597756516.6,102454020556.66473,181256710247.10397,2322938408486.165,46226948088820.87
11.405153941827061,1.0524271297226072e+16,1.206325575251247e+16,724918473340270.1,763083650122586.2,106962107355.91014,189232230977.26602,2425150619644.068,48260986865558.63
11.733257020663602,1.067414225453466e+16,1.223653944150691e+16,735241679812526.9,773950348055837.6,111625641487.13109,197482764981.76797,2530887331948.7544,50365163365478.34
12.067922161076874,1.082483032320203e+16,1.2410832121060044e+16,745621169432771.6,784876292306569.4,116449358234.92982,206016689934.38156,2640255911689.589,52541614158803.33
12.409280604298411,1.097635721199657e+16,1.2586160894323584e+16,756058437514716.4,795863056913097.6,121438135508.15973,214842635846.79926,2753366959065.4897,54792540168789.35
12.75746621638438,1.112874428781687e+16,1.2762552544172872e+16,766554955823873.5,806912191125769.2,126596997925.73233,223969492297.8057,2870334400832.7295,57120208515303.74
13.112615540712067,1.1282012600323724e+16,1.2940033563325406e+16,777112174274211.8,818025221192965.2,131931121021.11038,233406415872.47348,2991275585644.478,59526954411959.28
13.474867851526309,1.1436182904829816e+16,1.3118630182529036e+16,787731522504816.0,829203652020752.1,137445835568.40347,243162837816.52722,3116311382147.883,62015183118118.31
13.844365208556836,1.1591275683592212e+16,1.329836839698648e+16,798414411346531.2,840448968716755.5,143146632033.06363,253248471911.18695,3245566279906.856,64587371947119.984
14.221252512727972,1.1747311165639506e+16,1.347927399116799e+16,809162234187649.8,851762638027745.6,149039165150.27496,263673322573.97403,3379168493220.657,67246072332127.836
14.605677562982532,1.1904309345250782e+16,1.366137256214784e+16,819976368246792.8,863146109679511.8,155129258634.21912,274447693191.0993,3517250067910.5347,69993911951029.44
14.997791114242183,1.2062289999194716e+16,1.3844689541589578e+16,830858175760307.0,874600817626804.0,161422910021.48416,285582194687.22815,3659946991148.4727,72833596911869.94
15.397746936527026,1.2221272702824584e+16,1.4029250216490582e+16,841809005090927.0,886128181220342.2,167926295651.98953,297087754338.5745,3807399304404.5005,75767914000330.61
15.805701875257567,1.2381276845117564e+16,1.4215079748789532e+16,852830191763683.0,897729606297266.1,174645775790.86093,308975624835.43024,3959751219590.6577,78799732990813.44
16.221815912762718,1.2542321642737884e+16,1.4402203193928014e+16,863923059434581.4,909406486200823.6,181587899894.81216,321257393600.39014,4117151238482.0786,81932009022727.28
16.64625223101797,1.2704426153196374e+16,1.4590645518451452e+16,875088920797038.1,921160202734514.6,188759412026.66162,333944992368.7276,4279752275497.4917,85167785043616.5
17.079177275638333,1.2867609287172154e+16,1.478043161672644e+16,886329078430609.8,932992127055505.9,196167256421.69937,347050707037.47015,4447711783923.708,88510194320808.38
17.5207608211511,1.3031889820056304e+16,1.4971586326844064e+16,897644825596126.8,944903620511638.1,203818583209.72986,360587187789.9688,4621191885670.4375,91962463023303.66
17.97117603757412,1.3197286402772754e+16,1.5164134445773918e+16,909037446981044.0,956896035426004.9,211720754296.688,374567459502.83386,4800359504644.243,95527912875667.97
18.430599558325603,1.3363817571925486e+16,1.535810074382798e+16,920508219398387.0,968970715832695.1,219881349409.8254,389004932442.3417,4985386503831.929,99209963885729.86
18.899211549492115,1.3531501759317908e+16,1.5553509978487074e+16,932058412442448.0,981128998167031.4,228308172310.55588,403913413257.5252,5176449826186.533,103012137147925.08
19.37719578048196,1.370035730088572e+16,1.5750386907640108e+16,943689289104090.5,993372211913233.1,237009257179.13736,419307116277.35974,5373731639410.233,106938057724175.45
19.864739696091597,1.3870402445080576e+16,1.5948756302280392e+16,955402106348225.6,1005701680212334.2,245992875175.4541,435200675119.578,5577419484731.307,110991457604222.16
20.36203449001343,1.4041655360739284e+16,1.6148642958700788e+16,967198115655842.9,1018118720432713.6,255267541180.26044,451609154618.8409,5787706429773.663,115176178747381.75
20.869275179813698,1.4214134144468996e+16,1.6350071710224444e+16,979078563532700.1,1030624644705604.1,264842020721.32053,468548063082.122,6004791225619.971,119496176207722.66
21.38666068340997,1.4387856827576742e+16,1.655306743850575e+16,991044691986653.5,1043220760427511.1,274725337088.97412,486033364879.3032,6228878468170.719,123955521344707.22
21.91439389707817,1.4562841382567682e+16,1.6757655084431614e+16,1003097738975234.1,1055908370731395.2,284926778645.7276,504081493377.152,6460178763903.99,128558405121370.52
22.452681775019734,1.4739105729234764e+16,1.6963859658650944e+16,1015238938825133.2,1068688774928207.8,295455906334.55536,522709364224.93475,6698908900141.564,133309141492144.67
23.00173541052013,1.491666774035835e+16,1.7171706251756048e+16,1027469522624781.8,1081563268920156.8,306322561390.6398,541934389000.09515,6945292019929.576,138212170882471.17
23.561770118730532,1.5095545247032768e+16,1.7381220044137388e+16,1039790718591250.1,1094533145586916.2,317536873261.375,561774489222.4684,7199557801642.144,143272063762361.2
24.133005521105144,1.527575604363238e+16,1.7592426315528406e+16,1052203752412310.6,1107599695145708.8,329109267739.45856,582248110745.635,7461942643418.263,148493524316089.38
24.715665631527248,1.5457317892427918e+16,1.7805350454254958e+16,1064709847564421.0,1120764205486007.1,341050475313.97675,603374238534.0577,7732689852542.513,153881394210222.84
25.309978944157795,1.5640248527859402e+16,1.802001796619946e+16,1077310225607040.0,1134027962479367.2,353371539744.35315,625172411834.6475,8012049839880.814,159440656462190.78
25.91617852304095,1.582456566046938e+16,1.8236454483485216e+16,1090006106453551.4,1147392250264603.8,366083826862.07135,647662739751.4377,8300280319482.093,165176439411596.94
26.53450209350177,1.601028698049557e+16,1.845468577288335e+16,1102798708618726.4,1160858351508283.5,379199033605.028,670865917231.9788,8597646513456.006,171094020796461.88
27.165192135371807,1.6197430161117846e+16,1.8674737743937972e+16,1115689249442387.6,1174427547640159.8,392729197289.3029,694803241473.9119,8904421362235.824,177198831936563.62
27.808495978079243,1.6386012861350514e+16,1.8896636456802236e+16,1128678945288616.0,1188101119062882.2,406686705123.0456,719496628760.0718,9220885740332.674,183496462025982.47
28.464665897640828,1.657605272856476e+16,1.912040812976944e+16,1141769011719510.0,1201880345334877.2,421084303967.0685,744968631730.1992,9547328677685.234,189992662536915.1
29.133959215593645,1.676756740062112e+16,1.934607914647902e+16,1154960663642062.2,1215766505324987.2,435935110346.4695,771242457096.99,9884047586703.475,196693351736719.16
29.816638399905518,1.6960574507585636e+16,1.9573676062768588e+16,1168255115426382.2,1229760877336891.0,451252620717.4649,798341983813.8132,10231348495100.666,203604619320051.12
30.51297116790363,1.7155091672996582e+16,1.9803225613136576e+16,1181653580992932.5,1243864739200946.5,467050721993.22217,826291781700.8553,10589546284600.309,210732731157821.94
31.223230591261704,1.7351136514641204e+16,2.0034754716770788e+16,1195157273866046.8,1258079368330532.2,483343702332.1692,855117130535.8463,10958964935596.352,218084134164517.66
31.947695203086937,1.7548726644795012e+16,2.0268290483089668e+16,1208767407190395.5,1272406041739355.0,500146262191.7415,884844039614.6238,11339937777834.482,225665461285237.34
32.686649107148675,1.774787966986614e+16,2.0503860216732524e+16,1222485193706509.8,1286846036015706.2,517473525650.06226,915499267785.8959,11732807747170.596,233483536603546.0
33.44038208929165,1.7948613189380804e+16,2.074149142192593e+16,1236311845680880.0,1301400627248883.2,535341051997.3175,947110343963.4596,12137927648446.994,241545380570958.12
34.20918973107749,1.8150944794234652e+16,2.0981211806141316e+16,1250248574785521.2,1316071090902381.8,553764847597.9414,979705588117.7213,12555660424511.584,249858215358531.34
34.993373525699035,1.8354892064126412e+16,2.1223049282948252e+16,1264296591921182.8,1330858701627848.0,572761378023.7886,1013314132746.9353,12986379431384.018,258429470330660.38
35.793240996213015,1.8560472564079976e+16,2.146703197395623e+16,1278457106977816.8,1345764733012879.0,592347580457.5502,1047965944826.8265,13430468719552.393,267266787640726.84
36.60910581613728,1.8767703839951776e+16,2.171318820972589e+16,1292731328525086.5,1360790457255294.2,612540876364.5482,1083691848235.3105,13888323321358.24,276378027947759.12
37.44128793246003,1.8976603412809332e+16,2.1961546529518212e+16,1307120463425194.8,1375937144755525.8,633359184429.8024,1120523546646.8347,14360349544399.209,285771276252704.44
38.29011369110923,1.918718877205832e+16,2.2212135679739804e+16,1321625716359436.2,1391206063618285.0,654820933755.8972,1158493646888.427,14846965270848.953,295454847852286.06
39.15591596493141,1.939947736718598e+16,2.24649846109298e+16,1336248289259508.8,1406598479053911.0,676945077315.6631,1197635682746.9377,15348600262558.035,305437294407745.5
40.03903428423004,1.9613486597978892e+16,2.272012247312334e+16,1350989380633679.8,1422115652669070.0,699751105652.0276,1237984139213.8584,15865696471763.037,315727410125027.2
40.93981496991464,1.982923380306656e+16,2.2977578609417676e+16,1365850184777691.8,1437758841636113.5,723259060815.5984,1279574477151.1372,16398708357189.738,326334238042133.44
41.85861126931294,2.004673624663494e+16,2.323738254755684e+16,1380831890859544.5,1453529297729677.2,747489550528.5743,1322443158357.7837,16948103205292.785,337267076418510.5
42.7957834946992,2.02660111031469e+16,2.3499563989343116e+16,1395935681867068.8,1469428266218846.2,772463762561.5243,1366627671013.489,17514361456326.021,348535485220402.0
43.751699164593184,2.048707543990427e+16,2.3764152797678532e+16,1411162733406762.8,1485456984602748.5,798203479307.347,1412166555471.4932,18097977034888.76,360149292695076.3
44.72673314788505,2.0709946197281796e+16,2.403117898103474e+16,1426514212342294.2,1501616681177389.5,824731092534.41,1459099430368.891,18699457684539.12,372118602025810.4
