t(s),Total solute volume 1,Total retention volume 1,Total 1 volume 1,Total 2 volume 1,Total 3 volume 1,Total 4 volume 1,Total 5 volume 1,Total 6 volume 1
0.1,898666397951953.1,1036126891881881.2,66325422320955.914,71135071608968.8,0.0,0.0,0.0,0.0
0.202,1205671056903881.0,1696639916348840.5,88983678932022.62,95436413208378.38,582527094170.7297,1061165836583.6697,14199634771345.92,290705439602457.75
0.30604000000000003,1374611078672806.2,2290682683766560.0,101452174898969.89,108809073882969.33,1341070591106.8179,2443585776533.787,32698690289197.7,669327009654974.1
0.41216080000000005,1482928932756261.2,2863036710408098.0,109446495679775.77,117383110350474.22,2191032279223.5642,3993334262120.7876,53437573343808.28,1093656231736433.0
0.5204040160000001,1558461623533088.8,3428667319954654.5,115021131226216.53,123361995838594.83,3099841391440.6655,5651184489340.539,75623846123037.83,1547447697352935.2
0.6308120963200001,1614121166058267.8,3994348826500418.5,119129043458330.03,127767797195026.55,4052065275494.995,7389104426413.554,98882477311232.78,2023007172775650.5
0.7434283382464002,1656800518531064.0,4563730869265441.0,122278962163830.25,131146135224807.16,5039522228458.52,9192261625338.4,123015055623013.95,2516258413868938.5
0.8582969050113283,1690534515571577.0,5139028230350007.0,124768675389658.16,133816392354201.78,6057566213400.689,11052261412265.441,147909313275695.66,3024889506133216.0
0.9754628431115548,1717846867248707.2,5721711982582587.0,126784443729703.92,135978336038721.47,7103448574545.255,12964165294930.799,173499230842519.84,3547535490853463.5
1.094972099973786,1740397968429496.5,6312833233656134.0,128448811424649.16,137763396929641.73,8175513690520.41,14925027151636.477,199745450809034.34,4083377065221169.0
1.2168715419732616,1759324925409547.0,6913190358934341.0,129845701781153.9,139261584111000.83,9272771648333.035,16933115604081.977,226624872622338.7,4631927387757890.0
1.3412089728127268,1775432388759527.2,7523422063497973.0,131034501451875.47,140536590714369.88,10394656896356.533,18987474878200.543,254124776888254.3,5192911673909388.0
1.4680331522689813,1789305515860448.2,8144062308763635.0,132058397553570.8,141634735610879.2,11540885063586.79,21087664334459.484,282239340264823.8,5766195770075867.0
1.597393815314361,1801379820982611.5,8775574321408254.0,132949532901583.88,142590492482365.28,12711364499262.32,23233597596411.473,310967483039706.44,6351742029906313.0
1.729341691620648,1811985973402536.2,9418372507610580.0,133732312302420.8,143430035872849.84,13906139723349.203,25425439764295.47,340311493923745.4,6949581112621393.0
1.863928525453061,1821379435835795.5,1.0072837060363296e+16,134425589996819.9,144173587256095.47,15125354209200.682,27663539820455.31,370276125737407.7,7559793427507517.0
2.001207095962122,1829760606610851.5,1.0739323985240098e+16,135044156238304.86,144837009414796.94,16369225267256.547,29948385065876.89,400867985893065.9,8182496616749939.0
2.1412312378813647,1837288832785395.0,1.1418172160372892e+16,135599771521086.25,145432915666489.62,17638026721713.746,32280569747151.445,432095116760485.94,8817836927170572.0
2.284055862638992,1844092362731030.8,1.210970842266224e+16,136101901123369.5,145971457672955.94,18932076732593.816,34660773055307.957,463966701440707.75,9465983149906266.0
2.4297369798917723,1850275545819926.0,1.2814251308143498e+16,136558246475011.31,146460895340506.1,20251729091055.047,37089743453268.42,496492854228118.5,1.0127122293735604e+16
2.578331719489608,1855924127027095.2,1.3532113854763364e+16,136975135921808.52,146908015920906.12,21597366905949.816,39568287362798.81,529684469412850.6,1.0801456452211948e+16
2.7298983538794,1861109198669816.5,1.4263605739385698e+16,137357816380763.83,147318446816300.56,22969397966165.594,42097260908958.31,563553111002244.9,1.148920050764146e+16
2.884496320956988,1865890189738499.5,1.500903493389019e+16,137710673965486.58,147696892203469.88,24368251296338.98,44677563844238.3,598110931616008.6,1.2190580431226146e+16
3.0421862473761276,1870317155019287.5,1.5768709008512356e+16,138037402933225.97,148047314232220.6,25794374574880.24,47310135050058.5,633370612495752.8,1.2905832014206948e+16
3.2030299723236504,1874432547733472.0,1.6542936172804818e+16,138341136513243.25,148373073340894.66,27248232183426.33,49995949195643.54,669345319009658.4,1.3635199914828442e+16
3.3670905717701234,1878272606394474.8,1.733202611897011e+16,138624549262784.25,148677038034785.75,28730303724324.684,52736014257143.38,706048667676718.2,1.437893693961989e+16
3.5344323832055258,1881868450160336.8,1.8136290714623412e+16,138889937908778.02,148961671590149.97,30241082888935.21,55531369683940.27,743494701859988.2,1.5137303500531264e+16
3.7051210308696363,1885246951560380.8,1.895604457963561e+16,139139285758795.98,149229101135982.53,31781076591614.88,58383085057478.42,781697874059768.1,1.5910567205471602e+16
3.879223451487029,1888431437514558.8,1.9791605572882884e+16,139374314439275.84,149481173144092.72,33350804306828.58,61292259129069.5,820673033287684.1,1.6699002551061378e+16
4.0568079205167695,1891442256699850.5,2.0643295208365336e+16,139596525769591.36,149719498339707.34,34950797562926.195,64260019152432.914,860435416394889.5,1.7502890694445924e+16
4.237944078927105,1894297241994000.8,2.1511439015514892e+16,139807235892372.66,149945488306786.25,36581599557730.266,67287520447868.39,901000642510419.0,1.832251928680572e+16
4.422702960505647,1897012089892918.0,2.239636685508561e+16,140007603276137.8,150160385521288.28,38243764869537.46,70375946150367.05,942384709951947.5,1.915818235542337e+16
4.61115701971576,1899600673737916.0,2.329841319946209e+16,140198651832797.58,150365288145067.38,39937859243366.11,73526507105319.17,984603995123141.4,2.0010180224274484e+16
4.803380160110075,1902075303805180.0,2.4217917384297252e+16,140381290113374.12,150561170613583.5,41664459436907.625,76740441883913.52,1027675253024604.2,2.08788194654197e+16
4.9994477633122765,1904446944455547.8,2.5155223836924444e+16,140556327334581.36,150748900824667.6,43424153114112.42,80019016896648.2,1071615619090243.5,2.176441287520863e+16
5.199436718578522,1906725396370451.2,2.6110682285866704e+16,140724486828617.4,150929254563636.84,45217538776957.92,83363526588167.28,1116442612124853.1,2.2667279470614036e+16
5.403425452950093,1908919450234210.5,2.708464795489729e+16,140886417385574.1,151102927668212.6,47045225727949.74,86775293700279.47,1162174138167656.8,2.35877445020134e+16
5.611493962009095,1911037016935308.5,2.8077481744427564e+16,141042702862848.9,151270546334765.6,48907834057432.15,90255669592824.92,1208828495143983.0,2.4526139479500324e+16
5.823723841249277,1913085238357480.8,2.9089550402468244e+16,141193870362001.12,151432675888122.28,50805994650972.984,93806034614220.2,1256424378196405.0,2.548280221039903e+16
6.040198318074262,1915070582046344.0,3.0121226686989104e+16,141340397215552.44,151589828275026.34,52740349213002.695,97427798515200.34,1304980885609202.0,2.645807684611479e+16
6.261002284435747,1916998922418306.0,3.1172889521167504e+16,141482716980553.47,151742468492329.28,54711550303608.586,101122400900606.19,1354517525257742.5,2.745231393681438e+16
6.486222330124463,1918875610687361.5,3.2244924142749456e+16,141621224599478.47,151891020122133.03,56720261385949.234,104891311715101.25,1405054221528470.2,2.8465870492710944e+16
6.715946776726952,1920705535293612.5,3.33377222485303e+16,141756280860111.2,152035870115088.94,58767156882197.99,108736031759536.88,1456611322666186.0,2.9499110050953564e+16
6.950265712261491,1922493174303069.2,3.4451682134787536e+16,141888216262871.03,152177372938168.5,60852922236283.26,112658093235341.23,1509209608514210.8,3.055240274729761e+16
7.18927102650672,1924242640994695.0,3.5587208834355428e+16,142017334385334.25,152315854183163.88,62978253981967.1,116659060314843.66,1562870298620218.8,3.1626125391875256e+16
7.433056447036854,1925957723645377.0,3.674471425091451e+16,142143914818535.1,152451613715917.5,65143859815038.32,120740529735867.53,1617615060686193.5,3.2720661548497636e+16
7.681717575977592,1927641920356207.2,3.7924617290972664e+16,142268215737290.5,152584928433039.34,67350458668568.73,124904131419274.23,1673466019345630.5,3.3836401617012656e+16
7.935351927497144,1929298469626540.5,3.912734399393412e+16,142390476156702.16,152716054682036.4,69598780790331.25,129151529108429.33,1730445765255052.8,3.4973742918314964e+16
8.194058966047088,1930930377270144.0,4.035332766058669e+16,142510917918678.56,152845230391894.9,71889567821594.03,133484421029782.81,1788577364489886.8,3.613308978166475e+16
8.45794014536803,1932540440174810.0,4.1603008980282e+16,142629747445498.34,152972676953799.88,74223572876598.67,137904540573960.2,1847884368237461.5,3.731485363401983e+16
8.72709894827539,1934131267330193.8,4.2876836157033624e+16,142747157291754.75,153098600885624.1,76601560622108.83,142413656996908.1,1908390822781987.8,3.8519453091124984e+16
9.0016409272409,1935705298484709.0,4.417526503472399e+16,142863327521312.84,153223195308733.06,79024307356472.19,147013576140778.34,1970121279778183.0,3.974731405013379e+16
9.281673745785717,1937264820739156.5,4.549875922157025e+16,142978426931991.53,153346641261481.56,81492601087693.1,151706141174338.28,2033100806811772.8,4.099886978356377e+16
9.567307220701432,1938811983340114.2,4.68477902139742e+16,143092614147378.4,153469108870195.7,84007241610051.33,156493233352797.66,2097354998246332.8,4.22745610344073e+16
9.85865336511546,1940348810898607.5,4.8222837519855304e+16,143206038592424.72,153590758395517.9,86569040578829.78,161376772797011.22,2162909986357040.8,4.3574836112235896e+16
10.155826432417769,1941877215228148.8,4.9624388781543336e+16,143318841367142.66,153711741169462.9,89178821582745.55,166358719292089.25,2229792452752941.2,4.490015099015076e+16
10.458942961066125,1943399005969413.5,5.105293989828817e+16,143431156030752.1,153832200436423.34,91837420213691.98,171441073105510.5,2298029640089983.0,4.625096940244236e+16
10.768121820287448,1944915900146199.0,5.250899514842756e+16,143543109306951.34,153952272109585.7,94545684133418.84,176625875824867.44,2367649364077962.0,4.762776294282851e+16
11.083484256693197,1946429530778115.2,5.399306731123806e+16,143654821719570.2,154072085452680.8,97304473136782.53,181915211215437.44,2438680025785073.5,4.903101116315037e+16
11.405153941827061,1947941454658964.0,5.550567778848231e+16,143766408166648.3,154191763695687.2,100114659211217.66,187311206097798.0,2511150624244257.0,5.046120167240766e+16
11.733257020663602,1949453159395770.8,5.704735672565093e+16,143877978439944.88,154311424592017.3,102977126592068.31,192816031245733.28,2585090769366276.5,5.191883023601914e+16
12.067922161076874,1950966069791339.2,5.861864313288918e+16,143989637695999.75,154431180923737.5,105892771813440.28,198431902304733.7,2660530695164487.5,5.340440087519543e+16
12.409280604298411,1952481553642882.8,6.022008500558589e+16,144101486884095.28,154551140960562.84,108862503754221.9,204161080731384.6,2737501273297229.5,5.491842596631555e+16
12.75746621638438,1954000927020338.2,6.185223944459456e+16,144213623135820.8,154671408877671.25,111887243678925.44,210005874753992.3,2816034026933651.5,5.646142634019417e+16
13.112615540712067,1955525459080292.0,6.351567277604627e+16,144326140120359.03,154792085136753.78,114967925273001.1,215968640354803.22,2896161144949434.0,5.8033931381131624e+16
13.474867851526309,1957056376464700.8,6.521096067070664e+16,144439128369131.56,154913266834205.34,118105494672269.1,222051782274188.3,2977915496459152.5,5.963647912563301e+16
13.844365208556836,1958594867327942.8,6.6938688262820504e+16,144552675573011.53,155035048019884.5,121300910486111.64,228257755037210.1,3061330645692237.5,6.126961636068403e+16
14.221252512727972,1960142085030492.0,6.869945026838052e+16,144666866854933.88,155157519989495.78,124555143814064.33,234589064002962.16,3146440867219928.5,6.293389872146855e+16
14.605677562982532,1961699151533308.2,7.049385110274989e+16,144781785020415.72,155280771553276.62,127869178255435.77,241048266437139.84,3233281161540829.5,6.4629890788409544e+16
14.997791114242183,1963267160523153.0,7.232250499755982e+16,144897510788214.9,155404889283382.5,131244009911582.55,247637972608271.72,3321887271032994.0,6.635816618341234e+16
15.397746936527026,1964847180295563.2,7.418603611679674e+16,145014123003111.2,155529957742095.1,134680647380457.84,254360846908080.16,3412295696280642.0,6.811930766518685e+16
15.805701875257567,1966440256419507.2,7.608507867198938e+16,145131698832564.66,155656059692746.72,138180111743042.42,261219608996451.6,3504543712784024.5,6.991390722352107e+16
16.221815912762718,1968047414204920.5,7.802027703639414e+16,145250313948832.62,155783276295039.53,141743436541262.78,268217034971499.97,3598669388061113.5,7.174256617237151e+16
16.64625223101797,1969669660992265.0,7.999228585807768e+16,145370042697948.44,155911687286278.84,145371667746991.53,275355958565233.78,3694711599150066.5,7.360589524163906e+16
17.079177275638333,1971307988281078.0,8.200177017178e+16,145490958256817.44,156041371149862.6,149065863721713.03,282639272365330.9,3792710050521647.0,7.550451466748357e+16
17.5207608211511,1972963373712873.8,8.40494055094448e+16,145613132779563.9,156172405272239.3,152827095166439.5,290069929063560.2,3892705292411127.5,7.743905428103894e+16
17.97117603757412,1974636782922008.2,8.613587800928661e+16,145736637534131.44,156304866089413.8,156656445061435.9,297650942731382.8,3994738739579279.5,7.9410153595369e+16
18.430599558325603,1976329171266932.5,8.82618845232693e+16,145861543030059.84,156438829223991.16,160555008595326.6,305385390123280.7,4098852690512465.5,8.141846189051731e+16
18.899211549492115,1978041485452903.8,9.042813272285133e+16,145987919138244.28,156574369613620.88,164523893083125.3,313276412008378.0,4205090347072069.5,8.346463829648312e+16
19.37719578048196,1979774665056165.8,9.263534120285664e+16,146115835203428.22,156711561631645.4,168564217872736.78,321327214530920.4,4313495834603512.5,8.55493518739582e+16
19.864739696091597,1981529643958635.0,9.488423958331669e+16,146245360150091.6,156850479200667.6,172677114239465.2,329541070600199.94,4424114222515764.0,8.767328169265174e+16
20.36203449001343,1983307351701330.8,9.717556860912742e+16,146376562582334.94,156991195899678.56,176863725268046.9,337921321310512.0,4536991545342103.0,8.983711690702333e+16
20.869275179813698,1985108714763850.5,9.951008024735214e+16,146509510878314.78,157133785065341.1,181125205721739.53,346471377391743.9,4652174824293335.0,9.204155682923781e+16
21.38666068340997,1986934657776758.8,1.0188853778199896e+17,146644273279720.12,157278319887953.75,185462721897959.0,355194720691201.94,4769712089314907.0,9.428731099915037e+16
21.91439389707817,1988786104672848.0,1.0431171590609198e+17,146780917976740.6,157424873502582.9,189877451469983.78,364094905687306.9,4889652401659428.0,9.65750992511231e+16
22.452681775019734,1990663979782912.5,1.0678040081084898e+17,146919513188942.53,157573519075798.7,194370583314203.4,373175561035759.8,5012045876986593.0,9.89056517774647e+16
23.00173541052013,1992569208881074.8,1.0929539027176986e+17,147060127242413.22,157724329888419.47,198943317322409.97,382440391148839.5,5136943709002552.0,1.0127970918828402e+17
23.561770118730532,1994502720184259.8,1.1185749373143466e+17,147202828643531.06,157877379414628.34,203596864198605.12,391893177808444.56,5264398193651102.0,1.0369802256753419e+17
24.133005521105144,1996465445310031.8,1.1446753237879966e+17,147347686149655.28,158032741397787.5,208332445239801.56,401537781813550.7,5394462753869095.0,1.0616135352501974e+17
24.715665631527248,1998458320196666.0,1.1712633922477357e+17,147494768837032.34,158190489923273.25,213151292100280.47,411378144662718.56,5527191964919204.0,1.0867047424413427e+17
25.309978944157795,2000482285988956.5,1.198347591738498e+17,147644146166172.97,158350699488587.94,218054646538774.66,421418290272313.7,5662641580312621.0,1.1122616752508232e+17
25.91617852304095,2002538289892998.0,1.225936490915612e+17,147795888044935.78,158513445071025.6,223043760148027.44,431662326731112.7,5800868558335287.0,1.1382922682333762e+17
26.53450209350177,2004627286002934.8,1.254038778675113e+17,147950064889547.72,158678802193112.94,228119894066192.53,442114448091948.0,5941931089190909.0,1.1648045628307677e+17
27.165192135371807,2006750236102355.2,1.282663264737409e+17,148106747683751.44,158846846986041.2,233284318669513.8,452778936201064.4,6085888622774416.0,1.1918067076532382e+17
27.808495978079243,2008908110442905.8,1.3118188801816242e+17,148266008036265.8,159017656251304.7,238538313245750.7,463660162565863.9,6232801897089855.0,1.2193069587053038e+17
28.464665897640828,2011101888502389.0,1.3415146779280262e+17,148427918236740.25,159191307520704.38,243883165647782.56,474762590261707.1,6382732967326523.0,1.2473136795530686e+17
29.133959215593645,2013332559724506.0,1.371759833165785e+17,148592551310351.25,159367879114904.16,249320171926851.4,486090775878443.1,6535745235607826.0,1.2758353414301555e+17
29.816638399905518,2015601124242230.0,1.4025636437231997e+17,148759981071188.12,159547450200691.22,254850635944895.9,497649371507345.75,6691903481427109.0,1.304880523279265e+17
30.51297116790363,2017908593586592.2,1.4339355303775099e+17,148930282174565.53,159730100847080.66,260475868965419.9,509443126769114.25,6851273892785041.0,1.3344579117262322e+17
31.223230591261704,2020255991382630.2,1.4658850371012986e+17,149103530168387.88,159915912080403.12,266197189222361.66,521476890883613.0,7013924098043339.0,1.3645763009834914e+17
31.947695203086937,2022644354034049.5,1.4984218312423846e+17,149279801543680.16,160104965938501.38,272015921466428.16,533755614782009.5,7179923198509756.0,1.3952445926796395e+17
32.686649107148675,2025074731398000.5,1.53155570363405e+17,149459173784388.6,160297345524142.2,277933396488358.28,546284353261957.6,7349341801768867.0,1.4264717956117914e+17
33.44038208929165,2027548187451450.8,1.5652965686323456e+17,149641725416562.66,160493135057765.2,283950950618600.4,559068267186473.9,7522252055774479.0,1.458267025417293e+17
34.20918973107749,2030065800950276.8,1.59965446407715e+17,149827536056998.44,160692419929651.1,290069925202890.94,572112625727144.4,7698727683718172.0,1.4906395041612966e+17
34.993373525699035,2032628666082354.2,1.6346395511735338e+17,150016686461439.16,160895286751622.3,296291666053241.1,585422808652274.5,7878844019689541.0,1.5235985598366294e+17
35.793240996213015,2035237893115684.8,1.670262114289963e+17,150209258572410.72,161101823408342.66,302617522873838.0,599004308660599.8,8062678045143299.0,1.5571536257722182e+17
36.60910581613728,2037894609042640.5,1.7065325606697283e+17,150405335566768.53,161312119108314.8,309048848661416.8,612862733761118.6,8250308426188599.0,1.5913142399464365e+17
37.44128793246003,2040599958221205.8,1.7434614200519286e+17,150605001903024.56,161526264434637.78,315586999079632.6,627003809699671.9,8441815551715683.0,1.6260900442013878e+17
38.29011369110923,2043355103014191.2,1.7810593441982986e+17,150808343368523.66,161744351395606.06,322233331807019.94,641433382432745.0,8637281572375423.0,1.6614907833543638e+17
39.15591596493141,2046161224427207.5,1.819337106322001e+17,151015447126530.0,161966473475208.9,328989205858142.75,656157420649071.9,8836790440426475.0,1.697526304202377e+17
40.03903428423004,2049019522746234.5,1.8583056004145168e+17,151226401763280.56,162192725683596.06,335855980877549.0,671182018339486.0,9040427950465472.0,1.7342065544157622e+17
40.93981496991464,2051931218175442.8,1.8979758404666602e+17,151441297335059.6,162423204607567.8,342835016406208.8,686513397415528.6,9248281781054894.0,1.771541581316714e+17
41.85861126931294,2054897551476049.5,1.9383589595796323e+17,151660225415350.66,162658008461143.2,349927671120091.0,702157910377181.2,9460441537263418.0,1.8095415305384995e+17
42.7957834946992,2057919784606803.2,1.9794662089620493e+17,151883279142103.53,162897237136257.75,357135302040641.1,718122043030156.8,9676998794133214.0,1.848216644561158e+17
