t(s),Total solute volume 1,Total retention volume 1,Total 1 volume 1,Total 2 volume 1,Total 3 volume 1,Total 4 volume 1,Total 5 volume 1,Total 6 volume 1
0.1,1144268928618327.0,1596229672649425.0,193012778181123.2,258947965849975.12,0.0,0.0,0.0,0.0
0.202,1722520202492580.0,2403516369182616.5,290550939575309.3,389806195477002.5,372027749.3318184,955867742.3287832,21429042205.97061,616274700024.4625
0.30604000000000003,2163025871593439.0,3018994473453342.0,364854472465933.3,489492597697064.9,943665688.943559,2424605953.5783963,54357920946.45622,1563805504314.8093
0.41216080000000005,2535505251803294.0,3539853528258028.0,427683479613016.0,573784654867663.0,1675875315.0381656,4305909816.79936,96536903010.11339,2777623285909.011
0.5204040160000001,2866155144240322.0,4002607592634337.5,483456780223987.0,648610701762110.9,2551286066.58493,6555148118.432006,146965223288.0862,4228894750444.098
0.6308120963200001,3168036953478854.0,4425460956745464.5,534377543474979.6,716926533427455.2,3560551799.109581,9148307302.732761,205104449497.02902,5902113055584.174
0.7434283382464002,3448744219429593.0,4818997202244343.0,581726631075680.6,780450567442076.2,4698302234.868341,12071589244.9819,270645204088.3468,7788369201424.35
0.8582969050113283,3713141961168322.0,5189997661554386.0,626324663805141.1,840283757289699.5,5961478872.755267,15317135601.09308,343411289861.3636,9882589386882.785
0.9754628431115548,3964563939105494.5,5543110160782047.0,668733973078549.5,897180532718830.9,7348514830.98721,18880920529.204376,423312439749.232,12182174004065.46
1.094972099973786,4205410427512472.5,5881682117485357.0,709359431910345.8,951684075627940.4,8858880494.07675,22761583294.60958,510318141607.46906,14686243829207.3
1.2168715419732616,4437476455348869.5,6208217959523242.0,748503821859371.8,1004200600943203.2,10492810379.972391,26959726494.324215,604441903283.1371,17395186931638.525
1.3412089728127268,4662145432666688.0,6524648929697154.0,786400493507335.9,1055043174260736.1,12251128779.59507,31477468063.240032,705731207960.1715,20310369457591.13
1.4680331522689813,4880509951959737.0,6832501400578423.0,823233742966274.5,1104459049183702.0,14135133251.350561,36318141930.33893,814260802489.1248,23433942391036.78
1.597393815314361,5093450630608966.0,7133006719269484.0,859152110849813.5,1152647509362246.0,16146513971.779844,41486090802.08596,930128051346.4502,26768707792325.973
1.729341691620648,5301689513109238.0,7427175603628351.0,894277390043986.0,1199771953413662.2,18287296344.96899,46986518705.844864,1053449630495.0741,30318023615915.902
1.863928525453061,5505827383651941.0,7715850120741952.0,928710919512068.0,1245968338757235.2,20559799279.093224,52825383787.7293,1184359123800.1726,34085734513837.938
2.001207095962122,5706370534819638.0,7999740975646394.0,962538099579431.4,1291351239367927.2,22966604357.8078,59009319103.184525,1323005247075.0193,38076120708862.0
2.1412312378813647,5903750413830192.0,8279454877777625.0,995831705819048.4,1336018291720041.8,25510532798.040417,65545573413.60398,1469550520684.4338,42293859781457.305
2.284055862638992,6098338329732324.0,8555515027360194.0,1028654369829061.2,1380053523024526.2,28194628107.22255,72441966626.83015,1624170270479.6191,46743997909077.58
2.4297369798917723,6290456656328011.0,8828376720740468.0,1061060468917228.1,1423529886449515.2,31022143001.69824,79706856186.13983,1787051874209.1326,51431928172326.19
2.578331719489608,6480387498158212.0,9098439422333540.0,1093097587860448.2,1466511222232271.2,33996529572.295265,87349111802.34727,1958394194990.7393,56363374246230.72
2.7298983538794,6668379486686094.0,9366056232566612.0,1124807665270070.1,1509053795654968.0,37121431967.71756,95378096655.09412,2138407159828.5369,61544378267027.02
2.884496320956988,6854653176146435.0,9631541405799554.0,1156227903751972.8,1551207518125015.0,40400681061.83008,103803653691.46906,2327311452416.887,66981291988956.16
3.0421862473761276,7039405375453696.0,9895176386799282.0,1187391500603361.5,1593016927485566.8,43838290707.787796,112636096001.8066,2525338297358.4224,72680770572598.64
3.2030299723236504,7222812661162456.0,1.015721470701437e+16,1218328240371209.0,1634521982998182.2,47438455279.59606,121886200503.36327,2732729318547.5146,78649768508199.12
3.3670905717701234,7405034252558968.0,1.0417885992857296e+16,1249064979816457.0,1675758715975872.0,51205548272.4795,131565204344.4629,2949736458549.0337,84895537294837.94
3.5344323832055258,7586214384530970.0,1.0677399274915642e+16,1279626048164468.5,1716759766763329.8,55144121785.53028,141684803575.5391,3176621948802.991,91425624582701.86
3.7051210308696363,7766484281083731.0,1.0935945741353988e+16,1310033579993414.5,1757554831343496.8,59258906748.96269,152257153733.35898,3413658322724.2197,98247874550147.16
3.879223451487029,7945963808395893.0,1.1193701045375204e+16,1340307794068120.0,1798171035423975.2,63554813787.65176,163294872060.0927,3661128465456.7246,105370429335916.48
4.0568079205167695,8124762868552388.0,1.145082725187809e+16,1370467228431876.0,1838633249838677.0,68036934635.04047,174811041136.4947,3919325695333.732,112801731384041.89
4.237944078927105,8302982581788106.0,1.1707474489920862e+16,1400528939824722.0,1878964358089496.8,72710544028.81096,186819213752.92694,4188553873091.117,120550526587667.36
4.422702960505647,8480716295000950.0,1.1963782363567842e+16,1430508673797215.0,1919185484572713.0,77581102033.2025,199333418876.60504,4469127535659.171,128625868140390.22
4.61115701971576,8658050446587335.0,1.221988116296618e+16,1460421010588984.0,1959316190291243.0,82654256743.46826,212368168600.71375,4761372051968.767,137037121021315.95
4.803380160110075,8835065311704782.0,1.2475892909216308e+16,1490279490838020.8,1999374641507484.8,87935847336.37996,225938465982.664,5065623798692.893,145793967053988.03
4.9994477633122765,9011835647434714.0,1.2731932260149526e+16,1520096724405309.0,2039377755743607.0,93431907437.4293,240059813696.07928,5382230354232.713,154906410490509.44
5.199436718578522,9188431253682862.0,1.2988107299065368e+16,1549884484986265.8,2079341328713286.0,99148668780.78755,254748223434.99774,5711550709569.125,164384784081174.4
5.403425452950093,9364917462779880.0,1.3244520224476928e+16,1579653792695531.8,2119280145118284.2,105092565142.4959,270020226020.133,6053955494855.176,174239755597228.03
5.611493962009095,9541355568454936.0,1.350126795572523e+16,1609414986425275.8,2159208075725146.5,111270236530.95204,285892882166.2431,6409827220831.021,184482334780332.8
5.823723841249277,9717803203018108.0,1.3758442666766184e+16,1639177787467510.5,2199138162721536.2,117688533621.71268,302383793877.2551,6779560534314.152,195123880697218.22
6.040198318074262,9894314670106704.0,1.4016132258372476e+16,1668951355641003.2,2239082695016719.8,124354522426.07964,319511116442.0975,7163562487157.921,206176109482057.4
6.261002284435747,1.007094123914744e+16,1.4274420777317152e+16,1698744338960516.2,2279053274878329.0,131275489184.97163,337293571009.4013,7562252818188.878,217651102452478.97
6.486222330124463,1.0247731406705244e+16,1.4533388789740278e+16,1728564917720549.0,2319060877075572.5,138458945481.28342,355750457723.5888,7976064247731.528,229561314587944.44
6.715946776726952,1.0424731129083532e+16,1.4793113714779022e+16,1758420843729850.2,2359115901516650.5,145912633565.3691,374901669408.6101,8405442784411.501,241919583361610.1
6.950265712261491,1.0601984029876726e+16,1.5053670123615978e+16,1788319475320914.8,2399228220217927.5,153644531889.4954,394767705788.6116,8850848043997.69,254739137918768.94
7.18927102650672,1.0779531585625304e+16,1.5315130008334692e+16,1818267808665891.2,2439407219317583.0,161662860848.13864,415369688237.53625,9312753580103.621,268033608596717.9
7.433056447036854,1.0957413292265444e+16,1.5577563024334224e+16,1848272505852891.8,2479661836743192.5,169976088721.87735,436729375051.86646,9791647226618.586,281817036782312.06
7.681717575977592,1.1135666814680882e+16,1.5841036709519916e+16,1878339920112143.8,2520000596055325.0,178592937823.3907,458869177242.68176,10288031451782.217,296103885104737.3
7.935351927497144,1.1314328121345402e+16,1.6105616683041312e+16,1908476118527147.5,2560431636917085.0,187522390844.705,481812174844.8586,10802423723854.32,310909047962099.0
8.194058966047088,1.1493431605770486e+16,1.637136682596929e+16,1938686902520192.0,2600962742577720.0,196773697405.42215,505582133742.6742,11335356888363.111,326247862381379.94
8.45794014536803,1.1673010196244692e+16,1.663834944598714e+16,1968977826362986.5,2641601364706639.5,206356380802.11548,530203523012.35284,11887379556944.457,342136119212068.94
8.72709894827539,1.1853095455156486e+16,1.6906625427896958e+16,1999354213930187.2,2682354645870181.5,216280244959.53192,555701532783.158,12459056507806.895,358590074654565.44
9.0016409272409,1.2033717669025552e+16,1.717625437151395e+16,2029821173885706.8,2723229439905641.0,226555381584.59543,582102092619.6046,13050969097882.0,375626462124955.1
9.281673745785717,1.2214905930226214e+16,1.7447294718322312e+16,2060383613467624.5,2764232330415341.0,237192177524.53705,609431890428.2089,13663715686734.94,393262504458429.44
9.567307220701432,1.239668821126487e+16,1.77198038680981e+16,2091046251017152.0,2805369647575565.0,248201322330.77304,637718391892.9128,14297912072329.107,411515926453976.9
9.85865336511546,1.257909143236804e+16,1.7993838286557754e+16,2121813627379234.8,2846647483431742.0,259593816030.389,666989860443.9945,14954191938752.31,430404967763485.4
10.155826432417769,1.2762141523048768e+16,1.826945360496666e+16,2152690116287423.5,2888071705830892.0,271380977107.32343,697275377765.8324,15633207316025.246,449948396128712.0
10.458942961066125,1.2945863478238432e+16,1.8546704712532424e+16,2183679933832098.0,2929647971124308.0,283574450695.5531,728604864849.4215,16335629052123.94,470165520969932.94
10.768121820287448,1.3130281409506644e+16,1.88256458423136e+16,2214787147100093.2,2971381735758571.5,296186216986.73236,761009103595.9883,17062147297358.967,491076207330379.25
11.083484256693197,1.3315418591829436e+16,1.910633065129299e+16,2246015682063482.2,3013278266859188.0,309228599854.9212,794519758978.4497,17813472001262.445,512700890180807.2
11.405153941827061,1.350129750631743e+16,1.938881229519264e+16,2277369330786836.0,3055342651899988.5,322714275701.1668,829169401767.8025,18590333422142.188,535060589088808.25
11.733257020663602,1.3687939879268596e+16,1.96731434985455e+16,2308851758014617.5,3097579807540785.5,336656282520.82605,864991531831.9177,19393482649469.7,558176923257647.25
12.067922161076874,1.3875366717872874e+16,1.995937662048388e+16,2340466507193660.0,3139994487707236.0,351068029196.62317,902020602014.3909,20223692139274.81,582072126939624.2
12.409280604298411,1.4063598342858918e+16,2.0247563716657412e+16,2372217005980085.0,3182591290978929.5,365963305020.54694,940292042601.4677,21081756262725.54,606769065229074.0
12.75746621638438,1.4252654418345956e+16,2.0537756597649436e+16,2404106571274509.0,3225374667344739.0,381356289447.76624,979842286385.1552,21968491868076.125,632291250240325.8
13.112615540712067,1.4442553979133362e+16,2.083000688422578e+16,2436138413825289.5,3268348924378559.5,397261562085.8103,1020708794330.9594,22884738856171.668,658662857676022.0
13.474867851526309,1.4633315455640662e+16,2.1124366059714876e+16,2468315642435296.0,3311518232883126.0,413694112922.35846,1062930081858.7339,23831360769700.36,685908743791273.5
13.844365208556836,1.4824956696686236e+16,2.1420885519789548e+16,2500641267804197.0,3354886632044896.5,430669352794.9916,1106545745745.356,24809245396388.074,714054462759327.8
14.221252512727972,1.5017494990277104e+16,2.1719616619897604e+16,2533118206035227.0,3398458034138763.0,448203124106.34265,1151596491658.0127,25819305386333.32,743126284444401.2
14.605677562982532,1.5210947082564106e+16,2.202061072055949e+16,2565749281832511.5,3442236228817614.0,466311711788.1158,1198124162327.0195,26862478883680.83,773151212587416.6
14.997791114242183,1.5405329195103054e+16,2.2323919230738396e+16,2598537231412613.0,3486224887018496.0,485011854517.45,1246171766367.1345,27939730172836.914,804157003410505.0
15.397746936527026,1.560065704054833e+16,2.262959364946362e+16,2631484705151747.0,3530427564514149.5,504320756189.16675,1295783507756.4387,29052050339428.785,836172184646049.9
15.805701875257567,1.5796945836895282e+16,2.293768560587539e+16,2664594269988096.0,3574847705135962.0,524256097647.4152,1347004815981.838,30200457946210.555,869226074996206.1
16.221815912762718,1.5994210320375588e+16,2.3248246897843316e+16,2697868411597025.0,3619488643692288.0,544836048680.28094,1399882376860.3174,31385999724122.355,903348804028740.9
16.64625223101797,1.6192464757101888e+16,2.356132952929885e+16,2731309536355239.5,3664353608603568.5,566079280280.8752,1454464164045.0806,32609751278705.074,938571332515111.6
17.079177275638333,1.6391722953549062e+16,2.3876985746409176e+16,2764919973108738.5,3709445724274228.0,588004977178.4834,1510799471225.6118,33872817812075.387,974925473216660.2
17.5207608211511,1.6591998265951434e+16,2.4195268072709856e+16,2798701974757966.0,3754768013219329.0,610632850643.2501,1568938945030.8389,35176334860665.965,1012443912124784.5
17.97117603757412,1.6793303608690014e+16,2.4516229343305108e+16,2832657719672468.0,3800323397962536.5,633983151567.9766,1628934618644.3025,36521469048930.77,1051160230160917.6
18.430599558325603,1.699565146173626e+16,2.4839922738234892e+16,2866789312946578.0,3846114702720685.0,658076683830.4579,1690839946140.4175,37909418859219.34,1091108925342149.2
18.899211549492115,1.7199053877214162e+16,2.5166401815100868e+16,2901098787506237.0,3892144654888755.5,682934817939.8434,1754709837550.6216,39341415418016.44,1132325435418175.0
19.37719578048196,1.740352248513785e+16,2.5495720541036664e+16,2935588105076822.5,3938415886338296.0,708579504970.4454,1820600694668.2512,40818723298747.11,1174846160985295.0
19.864739696091597,1.760906849837657e+16,2.5827933324100996e+16,2970259157020634.0,3984930934541039.0,735033290786.3328,1888570447600.7654,42342641341339.11,1218708489083068.5
20.36203449001343,1.7815702716896188e+16,2.6163095044167676e+16,3005113765052318.5,4031692243528672.0,762319330560.0762,1958678592077.9321,43914503488735.42,1263950817279126.2
20.869275179813698,1.802343553132129e+16,2.650126108337931e+16,3040153681839751.5,4078702164699004.5,790461403588.8712,2030986227524.2844,45535679640545.06,1310612578247573.2
21.38666068340997,1.8232276925860356e+16,2.684248735623034e+16,3075380591497392.5,4125962957477895.0,819483928411.2438,2105556095904.1316,47207576524016.86,1358734264846317.5
21.91439389707817,1.844223648063198e+16,2.718683033933704e+16,3110796109978735.5,4173476789845718.5,849411978227.4781,2182452621347.1323,48931638582514.83,1408357455698516.5
22.452681775019734,1.8653323373428736e+16,2.7534347100951148e+16,3146401785373822.0,4221245738736510.0,880271296626.7885,2261741950562.2754,50709348881673.72,1459524841283176.5
23.00173541052013,1.886554638095264e+16,2.7885095330268684e+16,3182199098117559.5,4269271790317511.5,912088313624.2361,2343491994047.914,52542230033403.02,1512280250539906.5
23.561770118730532,1.9078913879552936e+16,2.8239133366583956e+16,3218189461114256.5,4317556840156196.0,944890162010.1917,2427772468105.1265,54431845137906.54,1566668677992528.2
24.133005521105144,1.9293433845496788e+16,2.859652022833323e+16,3254374219783263.5,4366102693281485.5,978704694015.1919,2514654937661.74,56379798743876.71,1622736311396181.2
24.715665631527248,1.950911385480029e+16,2.8957315642073916e+16,3290754652030453.5,4414911064145541.5,1013560498292.7858,2604212859913.607,58387737827017.12,1680530559912390.5
25.309978944157795,1.972596108264677e+16,2.932158007143824e+16,3327331968150077.5,4463983576492056.0,1049486917222.9603,2696521628789.8955,60457352787041.57,1740100082816265.0
25.91617852304095,1.9943982302416444e+16,2.9689374746102336e+16,3364107310661143.0,4513321763136724.0,1086514064538.5482,2791658620248.523,62590378463288.555,1801494818739955.8
26.53450209350177,2.016318388435184e+16,3.0060761690806264e+16,3401081754082267.0,4562927065665233.0,1124672843276.9272,2889703238407.782,64788595169083.375,1864766015456145.8
27.165192135371807,2.038357179388168e+16,3.0435803754461308e+16,3438256304648970.5,4612800834053965.0,1163994964059.177,2990736962519.536,67053829744976.72,1929966260205206.8
27.808495978079243,2.0605151589624468e+16,3.08145646393783e+16,3475631899976909.0,4662944326218124.0,1204512963698.7144,3094843394789.4062,69387956630970.94,1997149510569404.8
28.464665897640828,2.0827928421092236e+16,3.119710893064734e+16,3513209408674569.0,4713358707492205.0,1246260224141.2625,3202108309048.658,71792898957847.6,2066371125897260.5
29.133959215593645,2.105190702611578e+16,3.158350212570249e+16,3550989629908896.5,4764045050047214.0,1289270991737.9026,3312619700282.1997,74270629657692.6,2137687899280943.5
29.816638399905518,2.1277091728007576e+16,3.1973810664098196e+16,3588973292926869.5,4815004332248796.0,1333580396852.757,3426467835016.8086,76823172593709.3,2211158090089318.5
30.51297116790363,2.1503486432485588e+16,3.2368101957527612e+16,3627161056536462.0,4866237437960843.0,1379224473806.6387,3543745302573.0522,79452603709401.83,2286841457058911.5
31.223230591261704,2.173109462437072e+16,3.2766444420109228e+16,3665553508549716.5,4917745155798447.0,1426240181157.9587,3664547067184.099,82161052197195.0,2364799291944854.0
31.947695203086937,2.195991936408004e+16,3.3168907498968532e+16,3704151165191129.5,4969528178333996.0,1474665422321.8489,3788970520984.033,84950701686555.08,2445094453733541.0
32.686649107148675,2.218996328392992e+16,3.357556170513931e+16,3742954470474139.0,5021587101260876.0,1524539066528.3604,3917115537867.891,87823791451656.0,2527791403418323.5
33.44038208929165,2.242122858426807e+16,3.3986478644810896e+16,3781963795548601.0,5073922422517839.0,1575900970120.4016,4049084528224.9634,90782617638630.42,2612956239339437.5
34.20918973107749,2.2653717029448652e+16,3.4401731050943028e+16,3821179438021991.0,5126534541378444.0,1628791998191.8115,4184982494546.7266,93829534512432.23,2700656733088784.5
34.993373525699035,2.2887429943669484e+16,3.4821392815273336e+16,3860601621257149.5,5179423757508862.0,1683254046565.8257,4324917087909.853,96966955723322.05,2790962365980031.5
35.793240996213015,2.31223682066852e+16,3.5245539020738756e+16,3900230493649237.5,5232590269997872.0,1739330064113.987,4468998665334.381,100197355592979.94,2883944366083998.5
36.60910581613728,2.3358532249413956e+16,3.5674245974333756e+16,3940066127884606.0,5286034176362471.0,1797064075415.2144,4617340348016.708,103523270420233.61,2979675745829147.0
37.44128793246003,2.359592204945198e+16,3.610759124042616e+16,3980108520184324.5,5339755471533065.0,1856501203754.7317,4770058080436.18,106947299806377.52,3078231340166202.5
38.29011369110923,2.383453712651375e+16,3.654565367455097e+16,4020357589534909.0,5393754046821369.0,1917687694462.1057,4927270690333.792,110472108000049.23,3179687845296137.0
39.15591596493141,2.407437653781125e+16,3.698851345770465e+16,4060813176909031.0,5448029688874904.0,1980670938587.5747,5089099949560.693,114100425261608.03,3284123857959723.0
40.03903428423004,2.431543887339048e+16,3.7436252131157336e+16,4101475044478760.5,5502582078621478.0,2045499496915.5566,5255670635793.658,117835049246958.11,3391619915287002.0
40.93981496991464,2.455772225143886e+16,3.788895263180467e+16,4142342874824127.0,5557410790207367.0,2112223124313.9854,5427110595114.252,121678846410737.23,3502258535204196.0
41.85861126931294,2.4801224313580532e+16,3.83466993280769e+16,4183416270139519.5,5612515289932649.0,2180892794417.8433,5603550805447.366,125634753428776.23,3616124257395588.0
42.7957834946992,2.5045942220175456e+16,3.88095780564256e+16,4224694751440731.0,5667894935187343.0,2251560724645.1777,5785125440854.856,129705778639730.9,3733303684816906.5
43.751699164593184,2.5291872645637624e+16,3.927767615840585e+16,4266177757775244.0,5723548973391932.0,2324280401543.4014,5971971936678.544,133895003505763.33,3853885525757026.5
