t(s),Total solute volume 1,Total retention volume 1,Total 1 volume 1,Total 2 volume 1,Total 3 volume 1,Total 4 volume 1,Total 5 volume 1,Total 6 volume 1
0.1,1343181032126672.5,2872917611672401.5,563076449980376.4,966660129565354.2,0.0,0.0,0.0,-1.5603494592410886e-89
0.202,2016672883418217.5,4313553817759193.0,845411771796970.6,1451358890786499.0,20224183.757135887,75916682.20064348,2968766283.6883235,107206850359.76836
0.30604000000000003,2531338285671252.5,5414539320359972.0,1061165254669413.5,1821753265538042.5,51278359.490509,192489644.72654387,7534115214.008179,274736598048.71887
0.41216080000000005,2966959594740892.0,6346507220184897.0,1243782569544827.0,2135261175295089.2,91058191.65257627,341818140.34156805,13383705941.756403,490064021816.43787
0.5204040160000001,3353923062284919.0,7174444971816897.0,1406001973686496.8,2413751008858331.0,138626237.03449544,520382933.3808581,20379259183.40718,747888718796.3187
0.6308120963200001,3707423932227815.0,7930850674681229.0,1554193483275222.5,2668158481337699.5,193479467.84829542,726295651.2497978,28446651289.665363,1045411414082.8173
0.7434283382464002,4036307338318741.5,8634641471262505.0,1692065077205379.0,2904849258889427.0,255330372.90441948,958476979.0549046,37543528814.22194,1381039512790.9082
0.8582969050113283,4346244329017726.0,9297946194782278.0,1821994122326020.2,3127904681592794.0,324016884.5184085,1216318515.8769574,47646017427.20973,1753875492911.1492
0.9754628431115548,4641123073800181.0,9929080753306928.0,1945610582693617.5,3340122987098681.5,399457971.6803868,1499516069.892157,58742175948.136215,2163468564458.9158
1.094972099973786,4923744297618349.0,1.0534035448161344e+16,2064088553474026.2,3543519800980503.0,481629040.2225795,1807977310.5382378,70828371990.49512,2609678110122.897
1.2168715419732616,5196203430277416.0,1.1117292265907246e+16,2178306462231475.8,3739603162017304.5,570547148.9546934,2141766270.150531,83907104487.88374,3092591963134.774
1.3412089728127268,5460116144921126.0,1.1682307227188562e+16,2288941617181202.5,3929535837734320.5,666261577.2222091,2501067934.8694873,97985614694.31108,3612474407702.426
1.4680331522689813,5716759118758576.0,1.2231811422996836e+16,2396529215658195.0,4114236627081212.5,768847527.6736329,2886164605.0830164,113074958996.5928,4169731527716.461
1.597393815314361,5967161926444869.0,1.2768007540021752e+16,2501500866848452.0,4294446494257497.5,878401772.54341,3297419551.7770653,129189367948.6381,4764887281664.463
1.729341691620648,6212169294755626.0,1.329270299917321e+16,2604210689643638.5,4470773372154002.0,995039560.9906741,3735265406.845668,146345790995.0697,5398566523972.377
1.863928525453061,6452484607545614.0,1.3807402995304928e+16,2704953550405373.5,4643723471999102.0,1118892376.210629,4200195743.4114947,164563566309.30084,6071482700399.087
2.001207095962122,6688701121193256.0,1.4313377254343768e+16,2803978148828085.0,4813723748487944.0,1250106283.7825885,4692758875.620434,183864177673.4322,6784428791673.002
2.1412312378813647,6921324877121384.0,1.4811709033754254e+16,2901496623123448.0,4981138389463796.0,1388840702.8699555,5213553245.799821,204271073605.9242,7538270578073.859
2.284055862638992,7150791855956483.0,1.5303331808240704e+16,2997691741235372.5,5146281161422108.0,1535267487.2370265,5763223974.651531,225809532094.4534,8333941603192.488
2.4297369798917723,7377481045702815.0,1.5789057217279272e+16,3092722379164524.0,5309424814413086.0,1689570238.2000246,6342460282.112134,248506559467.85587,9172439408868.643
2.578331719489608,7601724551612608.0,1.626959668615604e+16,3186727759138676.0,5470808357912188.0,1851943794.6203167,6951993572.81815,272390815326.24753,10054822739887.787
2.7298983538794,7823815525556051.0,1.6745578383927206e+16,3279830773693155.5,5630642767428526.0,2022593860.4757838,7592596038.030694,297492557719.95966,10982209501879.219
2.884496320956988,8044014462291905.0,1.7217560688968792e+16,3372140625137742.5,5789115515804335.0,2201736741.137823,8265079665.633574,323843604327.23157,11955775314068.088
3.0421862473761276,8262554254903010.0,1.7686043001005466e+16,3463754944851620.5,5946394211510346.0,2389599166.901182,8970295577.672377,351477306472.9208,12976752539284.096
3.2030299723236504,8479644295101427.0,1.8151474510619716e+16,3554761512177121.0,6102629549553025.0,2586418187.6071553,9709133634.772978,380428533609.72363,14046429702683.475
3.3670905717701234,8695473829584983.0,1.8614261377865216e+16,3645239661441770.5,6257957726976952.0,2792441126.0396585,10482522261.188812,410733666448.4807,15166151231700.129
3.5344323832055258,8910214730649683.0,1.9074772658315176e+16,3735261443429985.0,6412502436818907.0,3007925580.5992293,11291428454.834097,442430597340.11206,16337317465236.46
3.7051210308696363,9124023801038586.0,1.9533345233127224e+16,3824892591601425.0,6566376526861309.0,3233139469.869005,12136857954.575825,475558736822.08527,17561384891662.072
3.879223451487029,9337044705047910.0,1.999028793991654e+16,3914193331632196.5,6719683389410379.0,3468361113.2799454,13019855543.039955,510159025476.90295,18839866583918.79
4.0568079205167695,9549409597202910.0,2.044588505694044e+16,4003219064173998.5,6872518133421604.0,3713879343.300853,13941505467.758675,546273950429.3285,20174332806702.316
4.237944078927105,9761240504300310.0,2.090039925991715e+16,4092020944221720.0,7024968579127772.0,3969993645.5197587,14902931967.019869,583947565947.6492,21566411775843.938
4.422702960505647,9972650504862538.0,2.135407414567084e+16,4180646375553796.0,7177116106868552.0,4237014323.7182803,15905299889.537933,623225517722.3873,23017790554038.117
4.61115701971576,1.0183744741061804e+16,2.180713639757454e+16,4269139434942100.5,7329036385351844.0,4515262687.619103,16949815399.237713,664155070481.0759,24530216070228.72
4.803380160110075,1.0394621291233314e+16,2.2259797652925796e+16,4357541237919201.5,7480799999584098.0,4805071261.447437,18037726758.172203,706785138665.4734,26105496252487.05
4.9994477633122765,1.060537192569462e+16,2.271225612083453e+16,4445890255626288.5,7632472994818227.0,5106784011.8162565,19170325181.980003,751166319951.9043,27745501266231.684
5.199436718578522,1.081608276434748e+16,2.316469799013623e+16,4534222590487173.0,7784117349816483.0,5420756593.743392,20348945763.408344,797350931439.3577,29452164851274.273
5.403425452950093,1.1026834851184762e+16,2.3617298659670304e+16,4622572217048045.0,7935791390311517.0,5747356613.852454,21574968460.342495,845393048365.7473,31227485752504.16
5.611493962009095,1.1237704658153498e+16,2.4070223817550924e+16,4710971193202453.0,8087550151626563.0,6086963910.008517,22849819145.530144,895348545242.1814,33073529240118.37
5.823723841249277,1.1448764528683708e+16,2.4523630391478428e+16,4799449846123553.0,8239445697874076.0,6439970846.805807,24174970715.811638,947275139319.3845,34992428716205.664
6.040198318074262,1.1660083069463408e+16,2.4977667388440892e+16,4888036936500532.0,8391527403908479.0,6806782626.461541,25551944259.18558,1001232436320.7611,36986387405249.21
6.261002284435747,1.1871725497638264e+16,2.543247663915862e+16,4976759804088624.0,8543842205198658.0,7187817614.787037,26982310278.471012,1057281978393.5878,39057680126744.08
6.486222330124463,1.208375394946876e+16,2.588819346017333e+16,5065644497101609.0,8696434819962393.0,7583507682.004565,28467689970.70032,1115487294244.336,41208655148661.76
6.715946776726952,1.2296227755538074e+16,2.634494724447561e+16,5154715887582049.0,8849347947227940.0,7994298558.262525,30009756561.688103,1175913951436.3696,43441736120954.37
6.950265712261491,1.250920368682911e+16,2.6802861989905616e+16,5243997774559465.0,9002622443930611.0,8420650203.773318,31610236695.49225,1238629610838.932,45759424088679.15
7.18927102650672,1.2722736175346318e+16,2.726205677319092e+16,5333512976537565.0,9156297483690064.0,8863037193.561235,33270911878.719444,1303704083225.49,48164299584670.78
7.433056447036854,1.2936877512424226e+16,2.7722646176339436e+16,5423283414627295.0,9310410699528782.0,9321949116.861353,34993619979.829636,1371209388027.512,50659024801982.36
7.681717575977592,1.3151678027416276e+16,2.818474067115107e+16,5513330187455251.0,9464998312470930.0,9797890991.259647,36780256783.77712,1441219814256.8994,53246345846580.734
7.935351927497144,1.3367186249083096e+16,2.864844696680872e+16,5603673638819474.0,9620095247690226.0,10291383691.705988,38632777602.48367,1513811983616.496,55929095071014.95
8.194058966047088,1.3583449051682834e+16,2.9113868324832244e+16,5694333418932030.0,9775735239648214.0,10802964394.571459,40553198941.78625,1589064915823.7954,58710193489984.984
8.45794014536803,1.3800511787498176e+16,2.95811048451077e+16,5785328539975909.0,9931950927471244.0,11333187036.9545,42543600225.62755,1667060096178.068,61592653278927.8
8.72709894827539,1.4018418407307068e+16,3.0050253726216576e+16,5876677426607726.0,1.0088773941651064e+16,11882622791.473427,44606125578.3808,1747881545405.7278,64579580356910.086
9.0016409272409,1.4237211570111946e+16,3.0521409502877016e+16,5968397961957338.0,1.0246234983014426e+16,12451860556.810926,46742985666.30599,1831615891823.0574,67674177055273.68
9.281673745785717,1.4456932743274412e+16,3.099466426295453e+16,6060507529605488.0,1.040436389478811e+16,13041507464.303415,48956459599.23781,1918352445859.431,70879744873632.2
9.567307220701432,1.4677622294061992e+16,3.147010784619475e+16,6153023051961199.0,1.0563189728483348e+16,13652189400.893719,51248896893.6989,2008183276987.8147,74199687324946.92
9.85865336511546,1.4899319573491208e+16,3.194782802657268e+16,6245961025409727.0,1.0722740804236044e+16,14284551548.788788,53622719498.7224,2101203293112.8242,77637512871548.75
10.155826432417769,1.5122062993244654e+16,3.2427910679923396e+16,6339337552557095.0,1.0883044766162274e+16,14939258942.186907,56080423885.753075,2197510322470.0337,81196837954088.39
10.458942961066125,1.5345890096350008e+16,3.2910439938328e+16,6433168371859455.0,1.104412863322469e+16,15616997041.460978,58624583204.07533,2297205198093.305,84881390115521.84
10.768121820287448,1.5570837622228768e+16,3.3395498332556868e+16,6527468884892317.0,1.1206018846046694e+16,16318472325.20443,61257849503.29672,2400391844910.071,88695011222346.6
11.083484256693197,1.579694156665406e+16,3.3883166923726336e+16,6622254181485447.0,1.1368741310062944e+16,17044412900.567564,63982956024.49233,2507177369527.3447,92641660785418.94
11.405153941827061,1.6024237237096718e+16,3.4373525425196484e+16,6717539062924685.0,1.1532321435350796e+16,17795569132.330975,66802719561.68543,2617672152774.421,96725419382785.45
11.733257020663602,1.6252759303886612e+16,3.4866652315625204e+16,6813338063399227.0,1.169678417345007e+16,18572714291.18266,69720042895.4182,2731989945070.614,100950492187074.34
12.067922161076874,1.6482541847569532e+16,3.53626249439958e+16,6909665469854152.0,1.1862154051444812e+16,19376645221.684177,72737917300.23248,2850247964689.7305,105321212600089.4
12.409280604298411,1.671361840280055e+16,3.5861519627348788e+16,7006535340391180.0,1.2028455203552584e+16,20208183030.43035,75859425127.95596,2972566998995.3003,109842045997355.73
12.75746621638438,1.694602199907845e+16,3.636341174187366e+16,7103961521344749.0,1.2195711400440034e+16,21068173794.925568,79087742468.75606,3099071508723.661,114517593585473.67
13.112615540712067,1.717978519859435e+16,3.686837580794705e+16,7201957663148835.0,1.2363946076462012e+16,21957489293.71885,82426141891.99734,3229889735394.506,119352596375225.98
13.474867851526309,1.7414940131441276e+16,3.737648556964767e+16,7300537235096971.0,1.253318235500094e+16,22877027758.357883,85877995269.00581,3365153811931.5166,124351939273504.69
13.844365208556836,1.7651518528404642e+16,3.788781406922391e+16,7399713539088514.0,1.2703443072065624e+16,23827714647.74152,89446776679.91548,3504999876578.2456,129520655297208.81
14.221252512727972,1.7889551751534068e+16,3.840243371694347e+16,7499499722444712.0,1.2874750798293228e+16,24810503445.470264,93136065406.84444,3649568190197.3076,134863929912379.58
14.605677562982532,1.8129070822676404e+16,3.892041635671462e+16,7599908789869946.0,1.3047127859483792e+16,25826376480.80982,96949549015.71677,3799003257043.7285,140387105501938.2
14.997791114242183,1.837010645013235e+16,3.9441833327830264e+16,7700953614626595.0,1.3220596355784424e+16,26876345773.9067,100891026529.1225,3953453949106.182,146095685965498.75
15.397746936527026,1.8612689053584748e+16,3.9966755523154456e+16,7802646948985266.0,1.3395178179629952e+16,27961453905.91096,104964411692.6732,4113073634112.519,151995341454833.25
15.805701875257567,1.88568487874322e+16,4.049525344404089e+16,7905001434006237.0,1.3570895032535236e+16,29082774914.681557,109173736337.4001,4278020307299.165,158091913248671.22
16.221815912762718,1.9102615562648504e+16,4.1027397252246456e+16,8008029608703718.0,1.3747768440827492e+16,30241415216.771168,113523153840.79463,4448456727046.723,164391418770641.0
16.64625223101797,1.9350019067280068e+16,4.156325681908149e+16,8111743918638011.0,1.3925819770397368e+16,31438514556.405167,118016942689.19118,4624550554487.121,170900056754242.8
17.079177275638333,1.959908878567988e+16,4.2102901772013704e+16,8216156723978991.0,1.4105070240541636e+16,32675246982.193615,122659510144.24763,4806474497190.699,177624212558878.22
17.5207608211511,1.984985401657108e+16,4.264640153892812e+16,8321280307078328.0,1.428554093696281e+16,33952821852.330933,127455396016.37564,4994406457044.778,184570463641079.12
17.97117603757412,2.010234389002226e+16,4.3193825390223736e+16,8427126879585994.0,1.4467252823986432e+16,35272484869.065216,132409276548.04042,5188529682438.253,191745585185167.1
18.430599558325603,2.035658738341278e+16,4.3745242478915976e+16,8533708589142765.0,1.4650226756050342e+16,36635519143.235756,137525968409.93503,5389032924870.109,199156555897725.56
18.899211549492115,2.061261333645534e+16,4.430072187889969e+16,8641037525678089.0,1.4834483488516748e+16,38043246289.702545,142810432813.1232,5596110600102.779,206810563970370.16
19.37719578048196,2.0870450465341532e+16,4.486033262151042e+16,8749125727340038.0,1.502004368785214e+16,39497027554.51209,148267779740.31583,5809962953984.846,214715013215424.25
19.864739696091597,2.1130127376068644e+16,4.542414373051831e+16,8857985186081865.0,1.5206927941218266e+16,40998264974.66957,153903272299.54517,6030796233070.812,222877529379249.06
20.36203449001343,2.1391672576999756e+16,4.599222425567107e+16,8967627852927638.0,1.5395156765511642e+16,42548402571.40537,159722331203.58395,6258822860168.988,231305966638078.44
20.869275179813698,2.1655114490708452e+16,4.6564643304897144e+16,9078065642937426.0,1.5584750615887948e+16,44148927577.855896,165730539378.54083,6494261614952.414,240008414281364.8
21.38666068340997,2.192048146515206e+16,4.714147007527213e+16,9189310439891302.0,1.57757298938028e+16,45801371702.09404,171933646705.1632,6737337819770.829,248993203587767.22
21.91439389707817,2.2187801784214444e+16,4.7722773882840264e+16,9301374100709082.0,1.5968114954599656e+16,47507312426.47612,178337574896.47025,6988283530805.82,258268914899030.88
22.452681775019734,2.2457103677658304e+16,4.8308624191381416e+16,9414268459622430.0,1.6161926114671872e+16,49268374344.29464,184948422515.4198,7247337734714.578,267844384897182.16
23.00173541052013,2.2728415330520036e+16,4.889909064019979e+16,9528005332113128.0,1.6357183658224482e+16,51086230534.750626,191772470136.43765,7514746550911.797,277728714090562.3
23.561770118730532,2.3001764891980868e+16,4.949424307101502e+16,9642596518632224.0,1.6553907843658178e+16,52962603977.290276,198816185654.69943,7790763439642.937,287931274514403.2
24.133005521105144,2.327718048374376e+16,5.009415155401963e+16,9758053808111392.0,1.6752118909597934e+16,54899269006.370094,206086229747.1961,8075649416006.132,298461717651771.2
24.715665631527248,2.3554690207942604e+16,5.069888641317233e+16,9874388981278918.0,1.6951837080585578e+16,56898052807.75024,213589461489.68207,8369673270083.794,309329982580859.1
25.309978944157795,2.3834322154610732e+16,5.130851825078458e+16,9991613813790288.0,1.7153082572454262e+16,58960836957.437096,221332944133.7252,8673111793349.529,320546304354779.9
25.91617852304095,2.41161044087305e+16,5.1923117971457864e+16,1.0109740079183552e+16,1.7355875597402108e+16,61089559004.42731,229323951048.18954,8986250011519.574,332121222620132.0
26.53450209350177,2.440006505688589e+16,5.254275680542483e+16,1.0228779551668248e+16,1.7560236368779904e+16,63286214098.434616,237569971829.57513,9309381424022.66,344065590480801.56
27.165192135371807,2.468623219353857e+16,5.316750633134204e+16,1.0348744008756362e+16,1.7766185105607998e+16,65552856663.80937,246078718585.76385,9642808250266.527,356390583613610.06
27.808495978079243,2.49746339269453e+16,5.379743849858271e+16,1.0469645233742794e+16,1.797374203683465e+16,67891602120.89141,254858132397.82416,9986841682883.137,369107709642579.56
28.464665897640828,2.5265298384733276e+16,5.443262564907038e+16,1.0591495018042928e+16,1.818292740534868e+16,70304628656.06548,263916389964.64575,10341802148140.248,382228817778773.4
29.133959215593645,2.5558253719149388e+16,5.5073140538695624e+16,1.0714305163392866e+16,1.839376147175741e+16,72794179041.82324,273261910435.28876,10708019573710.45,395766108732804.2
29.816638399905518,2.5853528111997924e+16,5.5719056358353864e+16,1.083808748391961e+16,1.8606264517939956e+16,75362562508.16461,282903362434.0646,11085833663994.105,409732144907333.1
30.51297116790363,2.615114977927994e+16,5.637044675463978e+16,1.0962853808085638e+16,1.882045685038596e+16,78012156666.70503,292849671283.45825,11475594183197.098,424139860876989.2
31.223230591261704,2.6451146975545504e+16,5.702738585023341e+16,1.1088615980513856e+16,1.9036358803328412e+16,80745409488.88373,303110026430.1626,11877661246369.748,439002574163388.9
31.947695203086937,2.6753547997971864e+16,5.768994826400899e+16,1.12153858636968e+16,1.925399074167816e+16,83564841339.71385,313693889079.58813,12292405618616.803,454333996313070.56
32.686649107148675,2.7058381190176892e+16,5.8358209130897e+16,1.1343175339595556e+16,1.9473373063768212e+16,86473047068.52905,324611000044.3528,12720209022695.107,470148244286364.25
33.44038208929165,2.736567494577705e+16,5.903224412152965e+16,1.147199631113104e+16,1.969452620391502e+16,89472698158.23912,335871387812.39667,13161464455219.357,486459852165415.06
34.20918973107749,2.7675457711699144e+16,5.9712129461695896e+16,1.1601860703572578e+16,1.9917470634801028e+16,92566544934.62144,347485376840.4797,13616576511702.26,503283783189747.9
34.993373525699035,2.798775799125439e+16,6.039794195163213e+16,1.173278046582637e+16,2.014222686968772e+16,95757418837.22546,359463596078.9561,14085961720660.318,520635442127981.94
35.793240996213015,2.8302604346981144e+16,6.108975898517359e+16,1.186476757162739e+16,2.036881546446116e+16,99048234753.49619,371816987733.87915,14570048887021.842,538530687994495.44
36.60910581613728,2.8620025403263464e+16,6.178765856879177e+16,1.1997834020637056e+16,2.059725701951645e+16,102441993417.76292,384556816272.6034,15069279445079.553,556985847120041.56
37.44128793246003,2.894004984873247e+16,6.249171934053672e+16,1.2131991839449754e+16,2.0827572181486104e+16,105941783876.773,397694677679.1886,15584107821234.934,576017726585513.6
38.29011369110923,2.9262706438454772e+16,6.320202058891034e+16,1.2267253082510398e+16,2.105978164481504e+16,109550786023.49579,411242508966.08374,16115001806788.195,595643628028296.8
39.15591596493141,2.958802399591404e+16,6.391864227168864e+16,1.2403629832945154e+16,2.129390615318642e+16,113272273200.94969,425212597948.68384,16662442941032.135,615881361830812.9
40.03903428423004,2.991603141478998e+16,6.464166503471386e+16,1.2541134203307192e+16,2.152996650080239e+16,117109614877.85628,439617593289.5063,17226926904914.883,636749261701130.8
40.93981496991464,3.024675766053946e+16,6.537117023067585e+16,1.2679778336239386e+16,2.1767983533521532e+16,121066279397.95386,454470514818.893,17808963925542.004,658266199655685.2
