t(s),Total solute volume 1,Total retention volume 1,Total 1 volume 1,Total 2 volume 1,Total 3 volume 1,Total 4 volume 1,Total 5 volume 1,Total 6 volume 1
0.1,919935341976466.9,1072551036543860.6,72903600131805.52,79712094435588.67,0.0,0.0,0.0,0.0
0.202,1356566608452008.2,1641043505783777.2,107506022726999.84,117546050762236.36,101997669268.1153,191317449831.45987,2676396853643.1836,56455111869791.26
0.30604000000000003,1668496674059931.5,2092931908743036.2,132226047946773.8,144574688571084.34,253393068085.51447,475307043435.9733,6649248241539.434,140256549812184.33
0.41216080000000005,1916260684636216.0,2491040422466349.5,151861002264769.0,166043358753713.72,440878642222.96027,827016226528.8871,11569483538873.205,244037998404026.94
0.5204040160000001,2123100409536567.2,2858587759241768.0,168252763685064.62,183965953022076.56,657795840414.215,1233962153093.5835,17262480896976.35,364114394107575.7
0.6308120963200001,2300881703998013.5,3207010218594717.5,182341684784159.88,199370643840158.12,900027571251.9946,1688428156343.7566,23620294245283.098,498207435999506.0
0.7434283382464002,2456662275222848.5,3542891680560326.5,194687079072257.62,212868979219422.75,1164749874274.905,2185122642439.1323,30568902511244.164,644754572017838.9
0.8582969050113283,2595061329005020.5,3870419453870079.5,205655012203744.62,224861211824236.7,1449905130205.01,2720191187710.7637,38054389551249.69,802617414967912.9
0.9754628431115548,2719306764077210.5,4192449758245005.0,215501290677443.97,235627038018912.22,1753935256815.9263,3290716212090.5234,46035944972253.61,970934069030273.4
1.094972099973786,2831764159381243.0,4511035923467372.0,224413383344390.06,245371434441147.16,2075629719666.9805,3894431971174.7363,54481877110974.016,1149035007498774.0
1.2168715419732616,2934230777266470.5,4827716398203220.0,232533720753676.88,254250133282659.34,2414031519004.927,4529548271880.046,63367146974620.74,1336391040134907.2
1.3412089728127268,3028111151737736.5,5143683466677888.0,239973610277646.66,262384836953196.62,2768375390504.5483,5194634598010.3955,72671747268600.27,1532579110452197.8
1.4680331522689813,3114528018223163.0,5459887785588310.0,246822027142181.0,269872830108474.5,3138045239949.5957,5888540304172.274,82379585990810.62,1737258738579563.5
1.597393815314361,3194395632117887.5,5777106146502378.0,253151424819624.84,276793332677893.38,3522543724472.766,6610337587116.653,92477688662868.16,1950155186912516.5
1.729341691620648,3268470059091521.0,6095987063966023.0,259021720465928.7,283211857503153.4,3921469857288.6733,7359279502687.387,102955611036347.69,2171047066509087.5
1.863928525453061,3337384755475189.5,6417082416730936.0,264483114616978.75,289183293367092.1,4334502111136.3057,8134768293837.893,113804996041801.97,2399756986824903.0
2.001207095962122,3401676411178030.5,6740869999797795.0,269578139203897.94,294754144273905.1,4761385407465.198,8936331005097.402,125019232668748.45,2636144356060649.0
2.1412312378813647,3461804147624230.5,7067769970754219.0,274343178962938.75,299964192944075.0,5201920923596.538,9763600381254.383,136593188767173.19,2880099741150952.5
2.284055862638992,3518164060428023.5,7398157085765777.0,278809623922303.4,304847760932377.25,5655957989269.303,10616299684064.807,148522998658762.12,3131540384150971.0
2.4297369798917723,3571100425238387.5,7732369965106243.0,283004757449808.06,309434679610643.25,6123387562285.789,11494230470158.92,160805892172757.12,3390406592602199.5
2.578331719489608,3620914463179579.0,8070718220397501.0,286952450901883.0,313751049690292.4,6604136917672.531,12397262644662.688,173440055517177.28,3656658801546230.5
2.7298983538794,3667871289406208.0,8413488014879617.0,290673714286930.75,317819843312350.3,7098165283186.028,13325326289590.754,186424516977709.06,3930275159323640.0
2.884496320956988,3712205487328770.0,8760946456934061.0,294187138014966.06,321661387052254.7,7605460222459.8,14278404894453.383,199759052232558.88,4211249527188592.0
3.0421862473761276,3754125628359566.0,9113345112332832.0,297509251081220.06,325293753554352.4,8126034615689.117,15256529707650.725,213444105346416.16,4499589809667922.5
3.2030299723236504,3793817972140845.0,9470922842176966.0,300654814304081.1,328733082155451.0,8659924122873.982,16259774993088.262,227480722427979.66,4795316552032669.0
3.3670905717701234,3831449522419168.5,9833908118797928.0,303637062498909.0,331993843675333.7,9207185040436.566,17288254024817.924,241870495612177.44,5098461755527085.0
3.5344323832055258,3867170570910185.0,1.0202520933169106e+16,306467906075782.8,335089060841791.25,9767892481253.336,18342115688553.93,256615515532434.2,5409067871639125.0
3.7051210308696363,3901116830373116.5,1.0576974379544946e+16,309158100082703.94,338030493120841.3,10342138822657.457,19421541586131.688,271718330829109.97,5727186944730363.0
3.879223451487029,3933411235180322.5,1.0957475982765262e+16,311717386898229.1,340828792735473.75,10930032378059.809,20526743559776.09,287181913531178.94,6052879878482235.0
4.0568079205167695,3964165470553709.0,1.1344228818705822e+16,314154617421343.7,343493637173494.5,11531696256407.2,21657961569117.37,303009629373047.5,6386215806358699.0
4.237944078927105,3993481278722322.0,1.173743246718885e+16,316477854582634.6,346033842365646.06,12147267380385.158,22815461866432.01,319205212283824.1,6727271549987611.0
4.422702960505647,4021451580399953.0,1.213728382824828e+16,318694462219835.3,348457459861270.25,12776895639540.295,23999535425466.105,335772742424566.4,7076131152277640.0
4.61115701971576,4048161442387448.0,1.2543977826226466e+16,320811181758970.1,350771860670735.6,13420743158681.775,25210496587044.41,352716627258777.6,7432885474404833.0
4.803380160110075,4073688916199389.0,1.2957708021247526e+16,322834198674352.2,352983807932163.56,14078983665271.953,26448681890950.887,370041585229326.25,7797631847656068.0
4.9994477633122765,4098105767983020.0,1.3378667143784906e+16,324769200333650.6,355099520158656.44,14751801942218.92,27714449068633.965,387752631685844.9,8170473772612881.0
5.199436718578522,4121478116335545.0,1.3807047565051852e+16,326621426544022.94,357124726504965.44,15439393354676.336,29008176175404.8,405855066764218.44,8551520659373042.0
5.403425452950093,4143866991709336.0,1.424304171358534e+16,328395713884203.1,359064715239761.0,16141963441249.697,30330260844157.344,424354464966807.06,8940887603499853.0
5.611493962009095,4165328828755128.0,1.4686842446526132e+16,330096534722020.44,360924376407015.0,16859727561481.479,31681119645404.406,443256666230723.7,9338695193204344.0
5.823723841249277,4185915901064333.0,1.5138643382604516e+16,331728031667121.6,362708239496271.56,17592910592705.004,33061187540707.44,462567768303420.06,9745069343939964.0
6.040198318074262,4205676706237353.0,1.5598639202642456e+16,333294048087095.9,364420506808696.3,18341746670369.332,34470917418477.117,482294120271419.9,1.0160141157149044e+16
6.261002284435747,4224656307950627.5,1.6067025922411786e+16,334798155215828.4,366065083097072.0,19106478966781.152,35910779702703.7,502442317110177.3,1.0584046800368594e+16
6.486222330124463,4242896640665355.0,1.6544001141901356e+16,336243676301229.44,367645601968708.5,19887359503919.34,37381262026509.18,523019195141661.9,1.1016927406293984e+16
6.715946776726952,4260436781769810.5,1.702976427440089e+16,337633708172143.0,369165449466485.7,20684648996572.16,38882868963530.32,544031828301913.44,1.1458928988730426e+16
6.950265712261491,4277313195241180.5,1.7524516758280342e+16,338971140548208.56,370627785182067.75,21498616722554.51,40416121811090.164,565487525134090.9,1.1910202373641156e+16
7.18927102650672,4293559950324051.0,1.802846225390713e+16,340258673369825.56,372035561204327.94,22329540417188.812,41981558419919.945,587393826433774.9,1.2370903143738038e+16
7.433056447036854,4309208918229908.5,1.8541806827780804e+16,341498832386318.5,373391539163292.25,23177706189598.3,43579733065878.21,609758503482874.4,1.2841191595262948e+16
7.681717575977592,4324289949446986.0,1.9064759125664892e+16,342693983207497.56,374698305593979.94,24043408458674.426,45211216359703.414,632589556816721.4,1.3321232705781294e+16
7.935351927497144,4338831033900063.5,1.9597530536240656e+16,343846343996098.1,375958285814199.7,24926949906847.004,46876595191334.71,655895215475961.8,1.381119611195615e+16
8.194058966047088,4352858445903011.5,2.01403353466001e+16,344957996955065.94,377173756484635.4,25828641450016.04,48576472705773.89,679683936700894.9,1.4311256096400742e+16
8.45794014536803,4366396875594382.5,2.0693390890713068e+16,346030898743655.06,378346856997701.7,26748802222203.29,50311468307834.38,703964406031215.0,1.4821591582816066e+16
8.72709894827539,4379469548331179.5,2.1256917691855216e+16,347066889939209.2,379479599822971.9,27687759573653.22,52082217693444.95,728745537778607.2,1.5342386138716128e+16
9.0016409272409,4392098333331312.0,2.183113959985551e+16,348067703646929.06,380573879921009.94,28645849081262.293,53889372905462.76,754036475843551.5,1.5873827985126002e+16
9.281673745785717,4404303842696847.5,2.2416283923911948e+16,349034973347329.25,381631483323709.56,29623414570345.906,55733602412189.48,779846594851222.5,1.6416110012710324e+16
9.567307220701432,4416105521813674.0,2.301258156163185e+16,349970240060282.7,382654094967385.3,30620808146864.582,57615591207005.11,806185501584319.6,1.696942980385233e+16
9.85865336511546,4427521732005206.5,2.3620267124874044e+16,350874958895217.9,383643305854696.7,31638390239330.887,59536040927716.26,833063036693245.6,1.7533989660258642e+16
10.155826432417769,4438569826215514.0,2.4239579062900616e+16,351750505048895.56,384600619612562.1,32676529649704.44,61495669994384.75,860489276666449.6,1.810999663571311e+16
10.458942961066125,4449266218408515.5,2.487075978328831e+16,352598179305198.3,385527458505579.6,33735603612659.773,63495213764543.24,888474536045749.6,1.8697662573646056e+16
10.768121820287448,4459626447292457.5,2.551405577099728e+16,353419213085217.2,386425168957729.94,34815997862676.418,65535424704838.305,917029369873165.6,1.9297204149221216e+16
11.083484256693197,4469665234911476.5,2.616971770595285e+16,354214773090540.4,387295026629317.56,35918106708462.36,67617072578246.58,946164576357522.5,1.990884291567733e+16
11.405153941827061,4479396540586769.0,2.6838000579454796e+16,354985965578019.8,388138241090948.94,37042333114272.11,69740944646118.71,975891199750375.5,2.053280535468836e+16
11.733257020663602,4488833610638210.5,2.7519163809698744e+16,355733840300144.9,388955960131908.1,38189088787726.445,71907845884387.62,1006220533422058.8,2.1169322930534324e+16
12.067922161076874,4497989024271631.5,2.821347135666217e+16,356459394141539.3,389749273736260.5,39358794273784.98,74118599213359.47,1037164123129878.4,2.181863214789573e+16
12.409280604298411,4506874735976740.0,2.8921191836583896e+16,357163574478938.06,390519217756624.2,40551879054552.01,76374045740579.06,1068733770471319.6,2.2480974613105132e+16
12.75746621638438,4515502114745365.0,2.964259863624363e+16,357847282289186.2,391266777312421.4,41768781654637.02,78675045016317.89,1100941536516131.4,2.3156597098709596e+16
13.112615540712067,4523881980388281.0,3.037797002722689e+16,358511375027287.9,391992889936712.9,43009949751812.484,81022475301300.8,1133799745611889.2,2.3845751611209564e+16
13.474867851526309,4532024637201056.0,3.112758928034594e+16,359156669294381.0,392698448493336.6,44275840292739.02,83417233846320.17,1167320989358393.5,2.4548695461859704e+16
13.844365208556836,4539939905204757.0,3.189174478037009e+16,359783943313525.9,393384303883906.3,45566919613553.82,85860237183456.88,1201518130746857.5,2.5265691340424024e+16
14.221252512727972,4547637149165607.0,3.2670730141206176e+16,360393939229459.2,394051267562345.75,46883663565133.16,88352421428640.89,1236404308460449.2,2.5997007391794556e+16
14.605677562982532,4555125305577536.0,3.3464844321658116e+16,360987365246941.8,394700113872934.7,48226557642860.77,90894742595347.42,1271992941333299.5,2.674291729538926e+16
14.997791114242183,4562412907775159.0,3.4274391741883816e+16,361564897620909.75,395331582226322.4,49596097120751.734,93488176919238.55,1308297732965488.2,2.750370034725597e+16
15.397746936527026,4569508109327959.0,3.509968240065799e+16,362127182510444.44,395946379126638.0,50992787189788.445,96133721193601.55,1345332676492059.8,2.827964154481749e+16
15.805701875257567,4576418705853547.0,3.5941031993541656e+16,362674837707433.06,396545180061595.25,52417143100347.73,98832393115462.23,1383112059504393.0,2.9071031674198908e+16
16.221815912762718,4583152155374583.0,3.6798762032051096e+16,363208454249832.75,397128631266418.25,53869690308602.26,101585231642270.88,1421650469122717.0,2.9878167400086696e+16
16.64625223101797,4589715597333291.0,3.767319996391236e+16,363728597928546.44,397697351371440.94,55350964626791.31,104393297359088.89,1460962797218897.5,3.0701351358074268e+16
17.079177275638333,4596115870367089.0,3.856467929448169e+16,364235810696106.3,398251932942358.06,56861512377267.24,107257672856221.39,1501064245788709.5,3.1540892249453892e+16
17.5207608211511,4602359528939744.0,3.947353970940685e+16,364730611984681.8,398792943921310.7,58401890550227.77,110179463117261.88,1541970332473458.5,3.239710493842017e+16
17.97117603757412,4608452858914613.0,4.040012719859889e+16,365213499940231.56,399320928976303.06,59972666965055.63,113159795917532.8,1583696896230748.0,3.3270310551654532e+16
18.430599558325603,4614401892148670.0,4.134479418157992e+16,365684952579057.94,399836410765769.06,61574420435189.44,116199822232921.45,1626260103154561.5,3.4160836580263724e+16
18.899211549492115,4620212420179710.0,4.230789963426745e+16,366145428872505.5,400339891124566.2,63207740936458.65,119300716659128.53,1669676452445082.2,3.506901698405005e+16
19.37719578048196,4625890007072988.0,4.328980921725616e+16,366595369765029.5,400831852177126.4,64873229778814.766,122463677841358.8,1713962782528743.8,3.599519229809202e+16
19.864739696091597,4631440001487762.0,4.429089540564588e+16,367035199130463.56,401312757383026.06,66571499781404.586,125689928914497.22,1759136277329430.8,3.6939709741619304e+16
20.36203449001343,4636867548019877.0,4.531153762047407e+16,367465324670897.44,401783052519812.0,68303175450921.19,128980717953824.97,1805214472691583.8,3.7902923329167096e+16
20.869275179813698,4642177597871275.0,4.635212236179412e+16,367886138762224.25,402243166607516.94,70068893163186.6,132337318436347.16,1852215262956560.2,3.888519398399683e+16
21.38666068340997,4647374918893975.0,4.741304334345095e+16,368298019250104.3,402693512778956.5,71869301347908.2,135761029712802.5,1900156907693309.0,3.988688965377395e+16
21.91439389707817,4652464105051383.0,4.849470162959521e+16,368701330199769.1,403134489099558.3,73705060676565.31,139253177490451.94,1949058038584964.2,4.090838542849243e+16
22.452681775019734,4657449585337543.0,4.959750577297522e+16,369096422602860.06,403566479340207.4,75576844253373.45,142815114326737.9,1998937666472832.5,4.195006366064167e+16
23.00173541052013,4662335632190829.0,5.072187195505001e+16,369483635044194.5,403989853706292.9,77485337809284.67,146448220133924.88,2049815188559510.0,4.301231408760584e+16
23.561770118730532,4667126369436263.0,5.1868224127955736e+16,369863294331190.8,404404969525905.4,79431239898971.94,150153902694833.22,2101710395772979.5,4.409553395629547e+16
24.133005521105144,4671825779788106.0,5.303699415836394e+16,370235716088430.94,404812171899933.2,81415262100761.17,153933598189796.22,2154643480293625.2,4.520012815000337e+16
24.715665631527248,4676437711941504.0,5.422862197326386e+16,370601205319672.8,405211794316551.44,83438129219456.3,157788771734964.34,2208635043246260.8,4.632650931748548e+16
25.309978944157795,4680965887280493.0,5.544355570769825e+16,370960056939442.6,405604159232473.5,85500579492018.89,161720917932102.7,2263706102559347.5,4.74750980042624e+16
25.91617852304095,4685413906227147.0,5.668225185448623e+16,371312556276198.25,405989578623090.5,87603364796054.17,165731561430021.38,2319878100993729.0,4.8646322786139976e+16
26.53450209350177,4689785254255004.0,5.794517541595788e+16,371658979548886.9,406368354503547.4,89747250861056.75,169822257497799.84,2377172914343240.5,4.9840620404948376e+16
27.165192135371807,4694083307588333.0,5.923280005772837e+16,371999594318600.44,406740779422574.6,91933017482367.02,173994592609956.0,2435612859809757.5,5.1058435906496856e+16
27.808495978079243,4698311338607094.0,6.054560826453711e+16,372334659916919.0,407107136930826.06,94161458737793.31,178250185043735.78,2495220704555277.0,5.230022278074551e+16
28.464665897640828,4702472520976318.0,6.188409149817368e+16,372664427852391.5,407467702025337.3,96433383206843.23,182590685488683.5,2556019674433688.0,5.356644310419043e+16
29.133959215593645,4706569934516655.0,6.324875035751348e+16,372989142196539.4,407822741571562.8,98749614192516.31,187017777668683.62,2618033462905157.0,5.485756768446243e+16
29.816638399905518,4710606569832794.0,6.464009474068272e+16,373309039950638.44,408172514704419.8,101110989945601.3,191533178976648.7,2681286240135790.5,5.6174076207136776e+16
30.51297116790363,4714585332714123.0,6.605864400937145e+16,373624351394468.9,408517273209610.2,103518363891418.45,196138641122051.22,2745802662285899.0,5.751645738475381e+16
31.223230591261704,4718509048321832.0,6.750492715531157e+16,373935300418138.5,408857261886426.44,105972604858952.39,200835950791480.2,2811607880989597.5,5.8885209108045144e+16
31.947695203086937,4722380465175210.0,6.897948296893461e+16,374242104837993.1,409192718893168.2,108474597312306.08,205626930322442.94,2878727553029124.0,6.0280838599364376e+16
32.686649107148675,4726202258949638.0,7.0482860210224184e+16,374544976697595.8,409523876076230.44,111025241584415.7,210513438390602.97,2947187850207036.0,6.170386256831868e+16
33.44038208929165,4729977036096998.0,7.201561778177401e+16,374844122554648.3,409850959283820.6,113625454112951.6,215497370710664.75,3017015469419659.5,6.315480736959535e+16
34.20918973107749,4733707337299626.0,7.357832490406237e+16,375139743754701.7,410174188665229.75,116276167678335.58,220580660751132.06,3088237642935158.5,6.463420916297819e+16
34.993373525699035,4737395640767274.0,7.517156129295098e+16,375432036692443.06,410493778956522.1,118978331643796.89,225765280463150.53,3160882148879821.5,6.614261407554783e+16
35.793240996213015,4741044365386517.0,7.67959173394155e+16,375721193061282.4,410809939753429.2,121732912197383.97,231053241023661.88,3234977321936022.5,6.7680578366057176e+16
36.60910581613728,4744655873731227.0,7.845199429151374e+16,376007400091924.2,411122875772207.94,124540892595846.78,236446593593103.03,3310552064255664.5,6.924866859147379e+16
37.44128793246003,4748232474942216.0,8.014040443859011e+16,376290840780576.2,411432787099151.5,127403273410300.44,241947430087882.8,3387635856592777.0,7.084746177567713e+16
38.29011369110923,4751776427483491.0,8.186177129772285e+16,376571694107380.8,411739869429428.8,130321072773572.73,247557883967878.56,3466258769659099.0,7.247754558030197e+16
39.15591596493141,4755289941782566.0,8.361672980240942e+16,376850135245653.7,412044314295860.94,133295326629135.58,253280131039186.78,3546451475706629.5,7.413951847771018e+16
40.03903428423004,4758775182761132.0,8.54059264934862e+16,377126335762438.6,412346309288205.1,136327088981514.83,259116390272392.5,3628245260341037.5,7.583398992607946e+16
40.93981496991464,4762234272262700.0,8.723001971228048e+16,377400463810892.94,412646038263509.1,139417432148066.4,265068924636594.16,3711672034570166.0,7.756158054658851e+16
41.85861126931294,4765669291382881.0,8.908967979598165e+16,377672684314960.94,412943681548025.0,142567447011998.9,271140041949452.5,3796764347091610.0,7.932292230268286e+16
42.7957834946992,4769082282708017.0,9.09855892752274e+16,377943159146775.94,413239416131192.6,145778243276521.12,277332095743519.06,3883555396823745.5,8.111865868139754e+16
43.751699164593184,4772475252467193.0,9.291844307388437e+16,378212047297211.0,413533415852103.4,149050949719981.72,283647486149108.2,3972079045684455.0,8.294944487671411e+16
