t(s),Total solute volume 1,Total retention volume 1,Total 1 volume 1,Total 2 volume 1,Total 3 volume 1,Total 4 volume 1,Total 5 volume 1,Total 6 volume 1
0.1,1383945849202658.0,3981468685541325.0,887646190648165.1,1709876645690502.0,0.0,0.0,0.0,-3.740371093031155e-123
0.202,2070260560405700.5,5957339328767250.0,1327840305671628.0,2557825761461668.5,220986045.97964334,989784864.2774454,48394358019.63857,1363096099322.376
0.30604000000000003,2596292337262663.5,7472965875364430.0,1665230797195426.2,3207742998968519.5,559813760.6550798,2507514276.8822923,123058491235.89847,3573616118546.3047
0.41216080000000005,3041665010390969.0,8757226237954943.0,1950887498594994.0,3758005084390123.5,993632965.4204472,4450773171.0701685,218758093188.60385,6444442079535.917
0.5204040160000001,3437228300272067.5,9898789731738414.0,2204597056117685.5,4246727192621875.0,1512199009.937166,6773663103.646281,333202439209.7686,9895694425460.22
0.6308120963200001,3798473899606501.5,1.0942182018130326e+16,2436295657172013.0,4693049468103978.0,2109992742.5719862,9451458428.740963,465163233543.0411,13886268563124.172
0.7434283382464002,4134434536267685.5,1.1913365448322724e+16,2651776785659093.0,5108131934654539.0,2783841304.437439,12469945089.160315,613935327659.2606,18393002627343.17
0.8582969050113283,4450906482679274.5,1.2829001745431176e+16,2854758101466358.0,5499135942482781.0,3531937351.2536116,15821026393.961208,779117098989.9346,23402748740030.273
0.9754628431115548,4751865609953875.0,1.3700522041968364e+16,3047789680789316.0,5870973718043340.0,4353355064.4180765,19500554711.512844,960502560514.1903,28908676711538.84
1.094972099973786,5040176459812053.0,1.4536164763167782e+16,3232708806421316.5,6227184429581755.0,5247781836.606698,23507129437.800735,1158021683268.696,34908290758112.992
1.2168715419732616,5317982313703331.0,1.5342096609389544e+16,3410890153437125.0,6570416121389187.0,6215356900.239071,27841374075.356598,1371704552469.568,41402259576460.13
1.3412089728127268,5586935581074308.0,1.6123074598316084e+16,3583393557478086.0,6902710360747092.0,7256568278.450544,32505474594.114784,1601658498070.7317,48393678475649.18
1.4680331522689813,5848341668335245.0,1.6882859456626742e+16,3751056290588673.0,7225679989417616.0,8372183911.887014,37502870895.7453,1848052819084.3218,55887580411313.98
1.597393815314361,6103252942591301.0,1.7624485596723344e+16,3914553328430653.5,7540625216728922.0,9563203972.624771,42838043192.602455,2111108211706.9258,63890599513590.53
1.729341691620648,6352532411161355.0,1.8350444070087416e+16,4074438193565009.0,7848612296223492.0,10830826924.6517,48516359968.33985,2391089247484.499,72410732703184.17
1.863928525453061,6596898234888497.0,1.9062810449172308e+16,4231171505756872.0,8150528522272813.0,12176424845.694567,54543967427.11002,2688298905386.3647,81457166956481.17
2.001207095962122,6836955674538529.0,1.9763336602461264e+16,4385141472013323.0,8447121700152589.0,13601525190.238312,60927707797.5926,3003074531824.92,91040151992009.1
2.1412312378813647,7073220544342697.0,2.04535180698246e+16,4536678929405039.0,8739029123114340.0,15107797156.48468,67675058261.35954,3335784821012.873,101170905286099.12
2.284055862638992,7306136773947590.0,2.113464451271779e+16,4686068609090786.0,9026799270338476.0,16697041423.555351,74794084978.9247,3686827542056.053,111861540672476.38
2.4297369798917723,7536089788903781.0,2.180783815289829e+16,4833557718402719.0,9310908338652792.0,18371182408.61119,82293408404.22621,4056627824259.08,123125014523912.44
2.578331719489608,7763416863117520.0,2.2474083513591692e+16,4979362580784869.0,9591773033082804.0,20132262444.31101,90182177201.60594,4445636867748.577,134975085299114.5
2.7298983538794,7988415238999013.0,2.3134250749229404e+16,5123673843959134.0,9869760599370386.0,21982437445.31384,98470048833.2076,4854330983839.029,147426283430737.78
2.884496320956988,8211348575433521.0,2.3789114172902748e+16,5266660615576709.0,1.0145196790501994e+16,23923973748.05684,107167175402.24403,5283210895180.21,160493889346209.56
3.0421862473761276,8432452125028342.0,2.443936713478181e+16,5408473783842280.0,1.0418372263245196e+16,25959245888.969776,116284193700.13483,5732801243664.719,174193917982740.28
3.2030299723236504,8651936933078095.0,2.5085634091551464e+16,5549248710680140.0,1.0689547766009368e+16,28090735144.019814,125832218664.13106,6203650266868.398,188543108563183.28
3.3670905717701234,8869993274440573.0,2.5728480487857124e+16,5689107436105135.0,1.095895838513744e+16,30321028694.340878,135822839639.57037,6696329613072.305,203558918692557.66
3.5344323832055258,9086793490302474.0,2.636842091500951e+16,5828160497690305.0,1.1226817049756308e+16,32652819313.508194,146268118978.91522,7211434271739.903,219259522050365.22
3.7051210308696363,9302494347692258.0,2.700592589981288e+16,5966508443930131.0,1.1493317446976816e+16,35088905495.000145,157180592612.6636,7749582601413.743,235663809114125.8
3.879223451487029,9517239015977808.0,2.7641427594170588e+16,6104243101942454.0,1.1758636463874788e+16,37632191955.74371,168573272304.97385,8311416440840.2705,252791390470428.06
4.0568079205167695,9731158733386610.0,2.8275324575227324e+16,6241448646354621.0,1.202293624649222e+16,40285690464.89762,180459649366.23877,8897601292067.047,270662602361986.66
4.237944078927105,9944374220700058.0,2.8907985920177016e+16,6378202506029996.0,1.2286365946469558e+16,43052520957.26406,192853699640.67487,9508826566523.488,289298514190279.8
4.422702960505647,1.0156996887240812e+16,2.9539754685307016e+16,6514576137573888.0,1.254906321105428e+16,45935912898.69247,205769889622.75708,10145805886862.826,308720937748670.25
4.61115701971576,1.0369129865068296e+16,3.0170950892414904e+16,6650635688654084.0,1.2811155460858948e+16,48939206877.12147,219223183584.41327,10809277438731.646,328952438004419.75
4.803380160110075,1.0580868900191292e+16,3.0801874105326132e+16,6786442569614009.0,1.3072760990962598e+16,52065856397.87821,233229051617.22562,11500004367737.39,350016345282454.8
4.9994477633122765,1.0792303124073324e+16,3.1432805663350636e+16,6922053948307001.0,1.3333989924112848e+16,55319429865.839066,247803478511.692,12218775217763.602,371936768731313.2
5.199436718578522,1.100351572436261e+16,3.206401062604313e+16,7057523180294383.0,1.3594945039418662e+16,58703612740.262886,262962973410.00143,12966404407494.568,394738610973835.25
5.403425452950093,1.12145845303425e+16,3.2695739473765164e+16,7192900184346590.0,1.3855722495680258e+16,62222209850.708916,278724580180.407,13743732742585.94,418447583863191.4
5.611493962009095,1.142558252586243e+16,3.3328229600689748e+16,7328231771430674.0,1.4116412465119472e+16,65879147864.580605,295105888470.8298,14551627961389.375,443090225279472.5
5.823723841249277,1.1636578300313482e+16,3.396170663058891e+16,7463561933960802.0,1.4377099690564664e+16,69678477898.58125,312125045407.13025,15390985312525.533,468693916914179.56
6.040198318074262,1.1847636446443198e+16,3.459638558065837e+16,7598932100951864.0,1.463786397695435e+16,73624378267.81532,329800767907.9859,16262728162919.82,495286902999872.0
6.261002284435747,1.2058817912365832e+16,3.5232471894508436e+16,7734381363794614.0,1.4898780626249232e+16,77721157367.46751,348152355593.6732,17167808635181.686,522898309950581.3
6.486222330124463,1.2270180313951158e+16,3.587016236208052e+16,7869946676618106.0,1.5159920823391376e+16,81973256683.00293,367199704270.57263,18107208273430.258,551558166885495.3
6.715946776726952,1.2481778212811946e+16,3.650964594148482e+16,8005663034587566.0,1.5421351979760282e+16,86385253925.67094,386963319976.99744,19081938736856.895,581297427014282.6
6.950265712261491,1.2693663364315916e+16,3.715110449547397e+16,8141563632976297.0,1.5683138039594128e+16,90961866290.81442,407464333579.1422,20093042520472.56,612147989867334.4
7.18927102650672,1.2905884939389704e+16,3.77947134533789e+16,8277680009428037.0,1.594533975403037e+16,95707953837.08893,428724515908.6744,21141593702623.73,644142724358420.5
7.433056447036854,1.3118489723334362e+16,3.844064240775964e+16,8414042171474847.0,1.6208014926744218e+16,100628522985.21762,450766293435.805,22228698718972.527,677315492670807.2
7.681717575977592,1.3331522294413554e+16,3.908905565370949e+16,8550678711081481.0,1.6471218634596142e+16,105728730135.34846,473612764473.65125,23355497162738.414,711701174960992.4
7.935351927497144,1.3545025184591188e+16,3.974011267764542e+16,8687616907740570.0,1.6735003426224494e+16,111013885402.46176,497287715911.44586,24523162611079.742,747335694876818.9
8.194058966047088,1.3759039024470478e+16,4.039396860148795e+16,8824882821434747.0,1.6999419501119136e+16,116489456469.60933,521815640475.5699,25732903477569.816,784256045889054.0
8.45794014536803,1.3973602674212306e+16,4.105077458734608e+16,8962501376606159.0,1.7264514871372276e+16,122161072559.04517,547221754518.7315,26985963890782.38,822500318437491.9
8.72709894827539,1.4188753341977584e+16,4.171067820715512e+16,9100496438124022.0,1.7530335508015198e+16,128034528521.56912,573532016338.6777,28283624599059.598,862107727894396.5
9.0016409272409,1.440452669124001e+16,4.23738237811429e+16,9238890880113624.0,1.779692547360403e+16,134115789044.60396,600773145028.8251,29627203901581.184,903118643349601.6
9.281673745785717,1.4620956938145366e+16,4.304035268851676e+16,9377706648401534.0,1.806432704250811e+16,140410992979.73828,628972639864.0333,31018058605897.16,945574617222948.9
9.567307220701432,1.4838076939948596e+16,4.371040365334243e+16,9516964817237996.0,1.8332580810174784e+16,146926457790.6149,658158800225.5139,32457585012123.535,989518415710913.5
9.85865336511546,1.5055918275433696e+16,4.438411300822964e+16,9656685640877344.0,1.8601725792489036e+16,153668684122.20468,688360746069.5106,33947219924032.645,1034994050075318.4
10.155826432417769,1.5274511318114946e+16,4.506161493812701e+16,9796888600528350.0,1.8871799516214044e+16,160644360492.63156,719608438944.9711,35488441687298.305,1082046808782963.5
10.458942961066125,1.549388530292238e+16,4.574304170626267e+16,9937592447125518.0,1.914283810138208e+16,167860368108.82657,751932703565.9414,37082771255182.81,1130723290505842.2
10.768121820287448,1.5714068386995722e+16,4.642852386403283e+16,1.0078815240321544e+16,1.9414876336405588e+16,175323785807.3926,785365249944.876,38731773281973.42,1181071437992311.5
11.083484256693197,1.5935087705138218e+16,4.7118190446440216e+16,1.0220574384054832e+16,1.968794774659115e+16,183041895122.15283,819938696093.4548,40437057244497.99,1233140572820293.2
11.405153941827061,1.6156969420422256e+16,4.781216915450541e+16,1.0362886659007164e+16,1.9962084656663052e+16,191022185479.92606,855686591297.8467,42200278592064.32,1286981431044154.8
11.733257020663602,1.6379738770383108e+16,4.851058652592352e+16,1.0505768252232052e+16,2.0237318247836284e+16,199272359526.15802,892643439975.6586,44023139925186.984,1342646199747387.2
12.067922161076874,1.6603420109192062e+16,4.921356809509954e+16,1.0649234784203876e+16,2.0513678609921652e+16,207800338582.0779,930844726122.1265,45907392203475.19,1400188554513784.8
12.409280604298411,1.6828036946156632e+16,4.9921238543581064e+16,1.0793301333511514e+16,2.0791194788893076e+16,216614268235.12076,970326938353.2982,47854835983070.055,1459663697830135.8
12.75746621638438,1.7053611980861296e+16,5.063372184180082e+16,1.0937982459397238e+16,2.1069894830304668e+16,225722524064.39008,1011127595554.1552,49867322684028.09,1521128398433861.5
13.112615540712067,1.728016713522867e+16,5.135114138294928e+16,1.1083292222320302e+16,2.13498058189022e+16,235133717502.98743,1053285273139.8882,51946755888059.67,1584641031619370.2
13.474867851526309,1.7507723582753366e+16,5.207362010971863e+16,1.122924420270731e+16,2.163095391474204e+16,244856701839.054,1096839629938.5726,54095092667033.38,1650261620517191.8
13.844365208556836,1.7736301775135786e+16,5.280128063458468e+16,1.1375851518034632e+16,2.1913364386097344e+16,254900578357.412,1141831435703.6926,56314344942670.88,1718051878360187.2
14.221252512727972,1.7965921466520524e+16,5.3534245354231416e+16,1.1523126838374746e+16,2.2197061639405052e+16,265274702623.70413,1188302599265.0608,58606580877856.05,1788075251751341.2
14.605677562982532,1.8196601735524628e+16,5.427263655866712e+16,1.1671082400524806e+16,2.2482069246481532e+16,275988690912.96234,1236296197326.7224,60973926299989.06,1860396964947906.0
14.997791114242183,1.8428361005223252e+16,5.501657653552876e+16,1.1819730020825472e+16,2.276840996921576e+16,287052426784.529,1285856503920.528,63418566156818.95,1935084065176722.0
15.397746936527026,1.866121706124507e+16,5.576618767002645e+16,1.1969081106766636e+16,2.305610578192551e+16,298476067805.28674,1337029020524.0908,65942746005189.97,2012205468995780.5
15.805701875257567,1.889518706811468e+16,5.652159254094333e+16,1.2119146667469704e+16,2.3345177891549412e+16,310270052423.13586,1389860506851.8286,68548773533138.55,2091832009717074.5
16.221815912762718,1.913028758396873e+16,5.728291401306403e+16,1.2269937323126012e+16,2.363564675582821e+16,322445106992.6616,1444399012327.8184,71239020115776.22,2174036485905950.2
16.64625223101797,1.936653457375922e+16,5.805027532638123e+16,1.2421463313465388e+16,2.3927532099617876e+16,335012252954.95483,1500693908249.2083,74015922405395.44,2258893710972208.5
17.079177275638333,1.9603943421048868e+16,5.8823800182392856e+16,1.2573734505321708e+16,2.4220852929463012e+16,347982814173.4846,1558795920648.7832,76881983956232.73,2346480563868163.0
17.5207608211511,1.9842528938494664e+16,5.96036128277815e+16,1.2726760399356548e+16,2.4515627546548828e+16,361368424427.978,1618757163865.3103,79839776884317.5,2436876040908873.5
17.97117603757412,2.008230537710554e+16,6.0389838135745496e+16,1.2880550135997382e+16,2.481187355813996e+16,375181035068.18567,1680631174830.2156,82891943562837.61,2530161308729866.5
18.430599558325603,2.0323286434356628e+16,6.118260168522458e+16,1.3035112500641568e+16,2.510960788760469e+16,389432922829.4137,1744472948078.9639,86041198353443.66,2626419758397393.0
18.899211549492115,2.056548526123163e+16,6.198202983825183e+16,1.3190455928173664e+16,2.540884678311698e+16,404136697811.6939,1810338971495.5063,89290329373907.7,2725737060686260.5
19.37719578048196,2.0808914468263624e+16,6.278824981563927e+16,1.3346588506839446e+16,2.570960582511878e+16,419305311624.4036,1878287262797.9238,92642200302550.58,2828201222540383.5
19.864739696091597,2.10535861306346e+16,6.360138977119624e+16,1.3503517981517144e+16,2.6011899932621536e+16,434952065698.1179,1948377406773.319,96099752219841.16,2933902644730565.5
20.36203449001343,2.129951179239386e+16,6.4421578864659336e+16,1.3661251756422706e+16,2.6315743368417612e+16,451090619765.47516,2020670593269.8171,99666005487562.25,3042934180724531.5
20.869275179813698,2.1546702469847784e+16,6.524894733350598e+16,1.3819796897284214e+16,2.6621149743268264e+16,467735000512.7287,2095229655953.3105,103344061665930.95,3155391196783293.5
21.38666068340997,2.17951686541709e+16,6.6083626563807256e+16,1.3979160133016506e+16,2.6928132019130012e+16,484899610403.6857,2172119111836.4304,107137105469051.38,3271371633298479.5
21.91439389707817,2.2044920313285588e+16,6.692574916027066e+16,1.413934785692675e+16,2.7236702511476676e+16,502599236677.61127,2251405201586.967,111048406759062.44,3390976067384304.5
22.452681775019734,2.2295966893052348e+16,6.77754490156093e+16,1.4300366127477878e+16,2.7546872890770372e+16,520849060522.68823,2333155930622.692,115081322579339.38,3514307776738203.0
23.00173541052013,2.254831731781248e+16,6.86328613793687e+16,1.446222066863677e+16,2.785865418313166e+16,539664666426.50397,2417441110999.3477,119239299227087.39,3641472804783328.0
23.561770118730532,2.2801979990320184e+16,6.949812292633401e+16,1.4624916869830522e+16,2.817205677025558e+16,559062051705.016,2504332404098.219,123525874365654.14,3772580027106315.5
24.133005521105144,2.3056962791100156e+16,7.037137182463311e+16,1.4788459785534506e+16,2.8487090388618444e+16,579057636211.3619,2593903364119.3877,127944679176877.34,3907741219202804.0
24.715665631527248,2.3313273077264228e+16,7.125274780364486e+16,1.4952854134513564e+16,2.8803764128015428e+16,599668272225.8016,2686229482386.524,132499440553762.45,4047071125543321.0
25.309978944157795,2.3570917680819292e+16,7.214239222181755e+16,1.5118104298736246e+16,2.912208642946983e+16,620911254528.02,2781388232468.6562,137193983333771.72,4190687529971460.0
25.91617852304095,2.382990290649546e+16,7.304044813449371e+16,1.528421432198238e+16,2.9442065082550264e+16,642804330652.9207,2879459116124.015,142032232572987.4,4338711327445929.5
26.53450209350177,2.4090234529124736e+16,7.394706036183816e+16,1.5451187908161424e+16,2.976370722213172e+16,665365711330.9813,2980523710070.718,147018215861397.4,4491266597137521.5
27.165192135371807,2.4351917790596564e+16,7.486237555695614e+16,1.561902841935986e+16,3.008701932463374e+16,688614081114.1079,3084665713588.5684,152156065679522.1,4648480676891764.0
27.808495978079243,2.4614957396416348e+16,7.578654227428962e+16,1.5787738873633968e+16,3.0412007203769308e+16,712568609187.8871,3191970996955.915,157450021796594.9,4810484239067119.0
28.464665897640828,2.4879357511893084e+16,7.671971103837149e+16,1.5957321942564496e+16,3.0738676005833756e+16,737248960371.0051,3302527650725.0903,162904433710479.9,4977411367758647.0
29.133959215593645,2.5145121757979096e+16,7.766203441301997e+16,1.61277799485884e+16,3.106703020456522e+16,762675306302.4941,3416426035839.324,168523763129479.0,5149399637415693.0
29.816638399905518,2.5412253206786524e+16,7.86136670710448e+16,1.6299114862123196e+16,3.1397073595605224e+16,788868336817.3761,3533758834593.8345,174312586496182.72,5326590192862374.0
30.51297116790363,2.5680754376802736e+16,7.957476586454347e+16,1.6471328298498022e+16,3.1728809290586996e+16,815849271511.2013,3654621102443.0366,180275597553471.22,5509127830728465.0
31.223230591261704,2.5950627227826628e+16,8.054548989585494e+16,1.664442151470606e+16,3.206223971087964e+16,843639871493.7704,3779110320655.5444,186417609952752.88,5697161082297724.0
31.947695203086937,2.6221873155648348e+16,8.152600058924059e+16,1.681839540599203e+16,3.2397366581014252e+16,872262451332.3082,3907326449817.8794,192743559904514.44,5890842297780319.0
32.686649107148675,2.649449298649246e+16,8.25164617633613e+16,1.6993250502288124e+16,3.273419092181918e+16,901739891184.1934,4039371984187.51,199258508871220.66,6090327732014998.0
33.44038208929165,2.6768486971246684e+16,8.351703970461232e+16,1.7168986964512404e+16,3.307271304328897e+16,932095649119.2295,4175352006895.046,205967646302564.94,6295777631605852.0
34.20918973107749,2.704385477949586e+16,8.45279032413826e+16,1.7345604580742314e+16,3.341293253721356e+16,963353773631.316,4315374245995.105,212876292413069.44,6507356323498308.0
34.993373525699035,2.7320595493382084e+16,8.554922381929814e+16,1.7523102762276556e+16,3.375484826959241e+16,995538916339.2535,4459549131364.572,219989901001984.25,6725232304997525.0
35.793240996213015,2.7598707601310824e+16,8.658117557751208e+16,1.7701480539598268e+16,3.409845837285817e+16,1028676344876.288,4607989852446.455,227314062315409.53,6949578335232071.0
36.60910581613728,2.787818899152327e+16,8.762393542609934e+16,1.7880736558252502e+16,3.4443760237935588e+16,1062791955967.8544,4760812416837.059,234854505950548.0,7180571528064692.0
37.44128793246003,2.8159036945555172e+16,8.867768312461712e+16,1.8060869074650732e+16,3.479075050615948e+16,1097912288696.8591,4918135709713.346,242617103801943.66,7418393446451369.0
38.29011369110923,2.8441248131601656e+16,8.974260136188422e+16,1.8241875951815068e+16,3.5139425061077148e+16,1134064537955.679,5080081554097.01,250607873049557.6,7663230198248765.0
39.15591596493141,2.8724818597808348e+16,9.081887583704077e+16,1.842375465507542e+16,3.5489779020159412e+16,1171276568083.949,5246774771950.8545,258832979188475.62,7915272533469279.0
40.03903428423004,2.9009743765509044e+16,9.190669534194243e+16,1.8606502247732176e+16,3.5841806726445812e+16,1209576926691.0361,5418343246102.941,267298739100033.84,8174715942982677.0
