t(s),Total solute volume 1,Total retention volume 1,Total 1 volume 1,Total 2 volume 1,Total 3 volume 1,Total 4 volume 1,Total 5 volume 1,Total 6 volume 1
0.1,1171626138357391.5,1690659390667246.5,218249522949102.88,300783729360751.56,0.0,0.0,0.0,0.0
0.202,1692444083168279.0,2621566745008388.5,315267051156319.75,434489851883211.6,90719413411.01878,242933040173.45523,5793406229101.469,173238700117890.3
0.30604000000000003,2043939496803344.8,3387240278098535.0,380743319905189.44,524726922871294.75,221307297970.43097,592632774398.9785,14133846156193.35,422882752290143.4
0.41216080000000005,2308790886943932.0,4081073665615855.0,430079613121370.56,592720451993513.1,378729650652.5523,1014197259160.1807,24188527860014.695,723901258787214.2
0.5204040160000001,2519404267951613.0,4737114658596029.0,469312495854751.75,646789819393716.8,556571585855.2462,1490449504326.4805,35547719816644.12,1064013334489123.8
0.6308120963200001,2692477092724751.0,5371860115118249.0,501552355522310.9,691221650653843.1,750998216629.7896,2011121208299.4758,47966496882128.336,1435880399910287.5
0.7434283382464002,2837948881904850.0,5994661069723018.0,528650717622292.8,728567652484341.5,959489850050.1746,2569465866309.683,61283938688538.5,1834680923306644.5
0.8582969050113283,2962286799632741.5,6611383902640845.0,551812280018843.06,760488096703485.0,1180297158505.264,3160799842731.8613,75388328782908.8,2257067300501627.0
0.9754628431115548,3069960191367709.0,7225985310298730.0,571869588602045.5,788130368491588.8,1412162143808.6594,3781755180954.891,90199332307094.95,2700631912205528.5
1.094972099973786,3164195381851524.0,7841285953295151.0,589423640414632.2,812322740630467.1,1654158829288.2852,4429853017809.4795,105657821121370.48,3163602357430061.5
1.2168715419732616,3247399690940222.5,8459388275256592.0,604922868962450.8,833683228254029.8,1905595282068.52,5103241225727.796,121719616132878.48,3644654034459218.0
1.3412089728127268,3321416684060094.0,9081918858695626.0,618710692053388.5,852685117591318.2,2165950003182.7817,5800524083517.205,138351424670286.08,4142788466233850.0
1.4680331522689813,3387688255370505.5,9710177086812808.0,631055704511745.8,869698576493053.6,2434828893696.5513,6520647044508.353,155528092014568.88,4657250982484738.0
1.597393815314361,3447362010456102.5,1.0345230535187968e+16,642171681335233.6,885018222072048.1,2711935180533.8716,7262816207469.248,173230680639526.6,5187473189297057.0
1.729341691620648,3501364906786973.5,1.0987978498446324e+16,652231295377536.0,898882025926023.4,2997047839041.904,8026440539586.874,191445092120630.1,5733031689856531.0
1.863928525453061,3550455220424279.0,1.163919563798766e+16,661375797662240.6,911484655202378.4,3290005770642.5933,8811089510082.037,210161056609530.8,6293617812808498.0
2.001207095962122,3595260113167235.0,1.2299562781807554e+16,669722015359164.0,922987116960582.2,3590695985282.3945,9616461447644.201,229371378088026.44,6869015000799608.0
2.1412312378813647,3636303355864463.5,1.2969689166002656e+16,677367516059331.8,933523875392484.8,3899044635002.3213,10442359532446.662,249071361719378.0,7459081652799541.0
2.284055862638992,3674026155572252.0,1.3650128824592636e+16,684394487440377.4,943208198639376.1,4215010117403.368,11288673330835.223,269258373402393.38,8063737926090002.0
2.4297369798917723,3708803048023679.0,1.4341392886052346e+16,690872697702236.2,952136238759301.1,4538577707626.92,12155364423023.316,289931496951807.6,8682955462484678.0
2.578331719489608,3740954192819388.5,1.5043958948486756e+16,696861785904886.1,960390188189196.0,4869755336085.602,13042455098858.742,311091264458817.1,9316749306679504.0
2.7298983538794,3770755002951183.5,1.575827833235639e+16,702413055747847.9,968040751868069.0,5208570236528.513,13950019384176.541,332739442241601.5,9965171489927008.0
2.884496320956988,3798443769983832.0,1.648478176642945e+16,707570895982595.2,975149104798975.4,5555066263160.936,14878175858769.773,354878859530558.7,1.0628305894011546e+16
3.0421862473761276,3824227762326444.5,1.7223883900486038e+16,712373916393391.2,981768457617443.5,5909301727663.271,15827081866585.18,377513270361985.2,1.1306264110192524e+16
3.2030299723236504,3848288146509592.0,1.797598692803433e+16,716855864528627.4,987945319998064.4,6271347644191.618,16796928818463.344,400647241532267.94,1.1999182079003134e+16
3.3670905717701234,3870783991444615.5,1.8741483525954304e+16,721046371610861.0,993720528641221.4,6641286297429.569,17787938360006.87,424286061188193.75,1.2707217348411966e+16
3.5344323832055258,3891855551219843.0,1.9520759264261228e+16,724971564053311.4,999130090043418.2,7019210068573.617,18800359230213.62,448435663894443.5,1.3430546825751422e+16
3.7051210308696363,3911626975196056.5,2.0314194600809988e+16,728654568294160.9,1004205876241988.2,7405220468853.062,19834464675924.164,473102568959363.25,1.4169364926973632e+16
3.879223451487029,3930208559740359.5,2.1122166547977604e+16,732115930247631.2,1008976202887679.4,7799427341238.165,20890550316729.242,498293829506024.2,1.4923882047937922e+16
4.0568079205167695,3947698630316617.5,2.1945050077993772e+16,735373965898195.6,1013466312421162.8,8201948199371.865,21968932377426.27,524016990310948.94,1.5694323298470004e+16
4.237944078927105,3964185123375788.0,2.278321931848282e+16,738445055973778.0,1017698780181164.5,8612907679176.397,23069946222295.145,550280052842621.7,1.6480927452208006e+16
4.422702960505647,3979746922844208.5,2.36370485784566e+16,741343894905659.4,1021693857512182.4,9032437083537.096,24193945138720.234,577091446248176.6,1.7283946074724126e+16
4.61115701971576,3994454994778116.0,2.450691323642416e+16,744083702190965.2,1025469763056762.4,9460674004318.5,25341299328002.902,604460003282679.5,1.81036427997833e+16
4.803380160110075,4008373355068265.5,2.5393190515734064e+16,746676402655858.8,1029042931187840.2,9897762008986.346,26512395069291.24,632394940368273.8,1.8940292729375564e+16
4.9994477633122765,4021559898308502.5,2.6296260167216536e+16,749132780856483.4,1032428224798635.6,10343850381491.15,27707634028933.16,660905841122584.8,1.9794181937719936e+16
5.199436718578522,4034067110626202.0,2.7216505075268348e+16,751462613864412.0,1035639118302852.1,10799093908961.363,28927432692625.523,690002642816635.6,2.0665607063056668e+16
5.403425452950093,4045942685068210.0,2.815431180045419e+16,753674785900220.6,1038687855618598.2,11263652707265.156,30172221901778.82,719695625319071.9,2.155487497393908e+16
5.611493962009095,4057230054789848.0,2.9110071069276444e+16,755777387655486.5,1041585587050453.2,11737692079714.938,31442446478770.38,749995402161087.2,2.2462302499061084e+16
5.823723841249277,4067968856615029.0,3.0084178219842936e+16,757777802644375.5,1044342488296146.0,12221382404170.014,32738564928387.543,780912913419139.5,2.3388216211535652e+16
6.040198318074262,4078195335376689.5,3.1077033610628324e+16,759682782523835.5,1046967864250183.1,12714899044589.916,34061049204895.97,812459420163458.5,2.433295226006465e+16
6.261002284435747,4087942697698970.0,3.2089042998290516e+16,761498512995838.4,1049470239827983.8,13218422283740.977,35410384535909.92,844646500261862.1,2.529685624068623e+16
6.486222330124463,4097241422459153.0,3.31206178895073e+16,763230671639980.2,1051857439668710.2,13732137274292.33,36787069295670.51,877486045362529.9,2.6280283103806924e+16
6.715946776726952,4106119534003495.5,3.4172175870989252e+16,764884478807879.6,1054136658276135.9,14256234005976.396,38191614921512.7,910990258907365.0,2.7283597092066892e+16
6.950265712261491,4114602843233767.0,3.5244140921163036e+16,766464742532582.6,1056314521911178.6,14790907286851.83,39624545868273.84,945171655050811.4,2.8307171705279604e+16
7.18927102650672,4122715160891654.0,3.633694370647769e+16,767975898259006.0,1058397143347000.2,15336356737008.406,41086399596205.664,980043058378218.2,2.9351389689268652e+16
7.433056447036854,4130478486713276.5,3.7451021864839704e+16,769422044079473.8,1060390170429374.9,15892786793304.8,42577726588623.73,1015617604333965.0,3.0416643045901736e+16
7.681717575977592,4137913177580795.0,3.858682027831228e+16,770806972056859.5,1062298829245120.6,16460406723939.852,44099090396089.15,1051908740282906.9,3.150333306202656e+16
7.935351927497144,4145038097342677.5,3.974479133690681e+16,772134196132977.5,1064127962584473.1,17039430651834.574,45651067704394.46,1088930227140018.2,3.2611870355350412e+16
8.194058966047088,4151870750592301.0,4.092539519503938e+16,773406977048749.4,1065882064285161.9,17630077585950.848,47234248424020.29,1126696141512629.8,3.3742674935590644e+16
8.45794014536803,4158427402372896.5,4.2129100022008984e+16,774628344642742.2,1067565309963468.1,18232571459798.31,48849235799066.42,1165220878307639.8,3.4896176279463396e+16
8.72709894827539,4164723185505590.0,4.335638224767266e+16,775801117844139.0,1069181584567839.0,18847141176486.613,50496646533947.9,1204519153762917.0,3.607281341828178e+16
9.0016409272409,4170772197007107.0,4.460772680434474e+16,776927922633359.0,1070734507131552.8,19474020659772.754,52177110936388.39,1244606008867922.5,3.727303503710858e+16
9.281673745785717,4176587584868500.5,4.588362736581411e+16,778011208207109.9,1072227453050851.1,20113448910627.297,53891273075450.11,1285496813143449.0,3.84972995845581e+16
9.567307220701432,4182181626299436.0,4.718458658426565e+16,779053261553681.6,1073663574172073.2,20765670068913.367,55639790953516.49,1327207268754717.8,3.974607539246334e+16
9.85865336511546,4187565798400521.0,4.851111632580141e+16,780056220617722.4,1075045816934887.5,21430933479824.043,57423336691300.05,1369753414935571.5,4.101984080474151e+16
10.155826432417769,4192750842103716.0,4.986373790517366e+16,781022086211000.5,1076376938787284.5,22109493764778.51,59242596725069.66,1413151632704783.0,4.231908431487701e+16
10.458942961066125,4197746820116412.0,5.124298232027812e+16,781952732806188.4,1077659523061187.2,22801610896512.406,61098272015415.75,1457418649858003.2,4.3644304711524376e+16
10.768121820287448,4202563169514096.0,5.2649390486894664e+16,782849918333771.9,1078895992474196.6,23507550278141.402,62991078266961.06,1502571546221395.5,4.499601123180609e+16
11.083484256693197,4207208749548540.5,5.408351347411429e+16,783715293087719.6,1080088621403086.9,24227582826002.25,64921746158513.734,1548627759154923.0,4.6374723721935656e+16
11.405153941827061,4211691885170969.0,5.554591274084864e+16,784550407832945.8,1081239547057204.0,24961985056107.3,66891021583232.1,1595605089295001.5,4.778097280485311e+16
11.733257020663602,4216020406710936.0,5.703716037377805e+16,785356721196657.4,1082350779664971.6,25711039174070.266,68899665898435.234,1643521706527890.5,4.921530005460501e+16
12.067922161076874,4220201686100605.5,5.855783932706772e+16,786135606416179.5,1083424211773496.0,26475033168382.094,70948456184749.2,1692396156186350.0,5.067825817723803e+16
12.409280604298411,4224242669989686.0,6.010854366414847e+16,786888357507580.1,1084461626749959.6,27254260906934.74,73038185514329.88,1742247365463489.0,5.217041119801643e+16
12.75746621638438,4228149910057617.5,6.168987880183569e+16,787616194912197.6,1085464706563447.5,28049022236706.33,75169663227945.02,1793094650038584.8,5.369233465479918e+16
13.112615540712067,4231929590795184.5,6.330246175704381e+16,788320270671777.5,1086435038917151.2,28859623086534.715,77343715220736.69,1844957720910686.0,5.524461579744173e+16
13.474867851526309,4235587554998525.5,6.494692139632721e+16,789001673177473.5,1087374123793270.1,29686375572919.926,79561184236521.27,1897856691436569.2,5.682785379311193e+16
13.844365208556836,4239129327191683.5,6.662389868847069e+16,789661431532979.8,1088283379466122.5,30529598108806.434,81822930170512.31,1951812084570355.8,5.844265993743019e+16
14.221252512727972,4242560135171364.5,6.833404696033457e+16,790300519567877.2,1089164148033197.0,31389615515305.465,84129830380377.22,2006844840302735.0,6.00896578713637e+16
14.605677562982532,4245884929846816.0,7.007803215614759e+16,790919859533378.5,1090017700508506.1,32266759136327.664,86482780005567.94,2062976323298293.2,6.17694838038186e+16
14.997791114242183,4249108403530030.5,7.18565331004329e+16,791520325509416.0,1090845241518108.1,33161366956102.36,88882692294878.9,2120228330730033.0,6.348278673989419e+16
15.397746936527026,4252235006815459.0,7.367024176474085e+16,792102746548986.5,1091647913633527.5,34073783719568.105,91330498942214.22,2178623100310482.2,6.523022871477064e+16
15.805701875257567,4255268964174447.0,7.551986353835651e+16,792667909583062.0,1092426801375208.9,35004361055624.348,93827150430554.64,2238183318519369.5,6.7012485033218216e+16
16.221815912762718,4258214288376972.0,7.740611750313946e+16,793216562107065.0,1093182934914912.9,35953457603239.984,96373616384137.12,2298932129028130.0,6.883024451472511e+16
16.64625223101797,4261074793842353.5,7.932973671265546e+16,793749414667819.9,1093917293503152.1,36921439140419.87,98970885928870.5,2360893141321816.5,7.0684209744250936e+16
17.079177275638333,4263854109010363.0,8.129146847574091e+16,794267143168039.1,1094630808645149.9,37908678716034.16,101619968061022.5,2424090439519391.5,7.257509732862082e+16
17.5207608211511,4266555687815783.5,8.329207464465414e+16,794770391003794.2,1095324367046625.1,38915556784519.6,104321892024232.48,2488548591393601.0,7.450363815858544e+16
17.97117603757412,4269182820341196.5,8.533233190794693e+16,795259771048901.1,1095998813348609.6,39942461343466.6,107077707694902.97,2554292657591901.5,7.647057767657792e+16
18.430599558325603,4271738642715929.0,8.741303208819746e+16,795735867498903.1,1096654952668745.5,40989788074107.45,109888485976045.83,2621348201060094.5,7.84766761502036e+16
18.899211549492115,4274226146322808.0,8.953498244474043e+16,796199237586074.8,1097293552964857.6,42057940484725.305,112755319199658.2,2689741296670729.5,8.052270895151147e+16
19.37719578048196,4276648186368462.0,9.16990059815235e+16,796650413175911.2,1097915347235170.8,43147330057007.29,115679321537718.58,2759498541058268.5,8.26094668420909e+16
19.864739696091597,4279007489868202.5,9.390594176022435e+16,797089902254535.6,1098521035568200.1,44258376395363.6,118661629421895.55,2830647062663421.0,8.473775626405278e+16
20.36203449001343,4281306663091605.0,9.615664521875611e+16,797518190315654.6,1099111287054218.4,45391507379243.74,121703401972076.55,2903214531989172.0,8.690839963695408e+16
20.869275179813698,4283548198511039.5,9.845198849528682e+16,797935741654926.5,1099686741569087.5,46547159318475.21,124805821433821.25,2977229172071107.0,8.912223566072821e+16
21.38666068340997,4285734481291484.0,1.007928607579049e+17,798343000578881.5,1100248011440362.5,47725777111658.44,127970093624861.16,3052719769164961.5,9.138011962469245e+16
21.91439389707817,4287867795356848.5,1.0318016854004998e+17,798740392534950.5,1100795683004652.1,48927814407649.76,131197448390765.42,3129715683654273.0,9.368292372270096e+16
22.452681775019734,4289950329064798.0,1.056148360818407e+17,799128325168557.9,1101330318064481.1,50153733770167.945,134489140069902.4,3208246861181404.5,9.603153737452139e+16
23.00173541052013,4291984180519471.5,1.0809780567741883e+17,799507189312783.6,1101852455252182.0,51404006845560.125,137846447967829.36,3288343844005051.0,9.842686755351595e+16
23.561770118730532,4293971362548955.5,1.1063003802843942e+17,799877359915552.1,1102362611307731.2,52679114533765.26,141270676841255.03,3370037782587738.0,1.008698391207045e+17
24.133005521105144,4295913807372120.0,1.1321251260382816e+17,800239196908973.2,1102861282276845.5,53979547162513.9,144763157391715.22,3453360447416835.0,1.033613951652992e+17
24.715665631527248,4297813370977498.0,1.1584622800593163e+17,800593046025031.9,1103348944635123.6,55305804664805.76,148325246769110.94,3538344241062635.0,1.0590249735179746e+17
25.309978944157795,4299671837234887.5,1.1853220234318683e+17,800939239561496.8,1103826056343608.8,56658396759705.28,151958329085269.12,3625022210477357.0,1.0849412627372467e+17
25.91617852304095,4301490921758750.5,1.2127147360943243e+17,801278097101588.1,1104293057840601.4,58037843136499.07,155663815937679.7,3713428059538925.0,1.1113728181411848e+17
26.53450209350177,4303272275541050.0,1.2406510006998917e+17,801609926190704.9,1104750372974299.4,59444673642259.41,159443146943576.8,3803596161843494.5,1.138329835128539e+17
27.165192135371807,4305017488369571.0,1.2691416065463542e+17,801935022973178.6,1105198409880358.4,60879428472856.445,163297790284529.22,3895561573750824.0,1.1658227094090406e+17
27.808495978079243,4306728092046649.5,1.2981975535760202e+17,802253672791864.5,1105637561808214.4,62342658367468.31,167229243261713.94,3989360047686732.5,1.1938620408163962e+17
28.464665897640828,4308405563422127.5,1.3278300564471902e+17,802566150753109.4,1106068207899713.6,63834924806631.984,171239032862055.6,4085028045706894.0,1.2224586371926859e+17
29.133959215593645,4310051327253041.5,1.3580505486783381e+17,802872722259460.4,1106490713923264.0,65356800213885.805,175328716335400.3,4182602753326474.5,1.2516235183452218e+17
29.816638399905518,4311666758901908.0,1.388870686866365e+17,803173643512288.8,1106905432966543.9,66908868161048.016,179499881782921.62,4282122093620007.0,1.2813679200769163e+17
30.51297116790363,4313253186884322.0,1.42030235498018e+17,803469161986368.0,1107312706090540.4,68491723577185.164,183754148756940.75,4383624741596207.0,1.3117032982912637e+17
31.223230591261704,4314811895275962.5,1.4523576687309258e+17,803759516878236.4,1107712862947468.0,70105972961313.69,188093168872358.88,4487150138852419.5,1.3426413331730466e+17
31.947695203086937,4316344125988212.5,1.4850489800201114e+17,804044939530100.4,1108106222364986.0,71752234598890.52,192518626429891.94,4592738508513495.0,1.3741939334458574e+17
32.686649107148675,4317851080921010.0,1.5183888814670637e+17,804325653830877.1,1108493092898874.9,73431138782139.64,197032239051318.94,4700430870460054.0,1.4063732407076192e+17
33.44038208929165,4319333924000876.0,1.552390211016879e+17,804601876595816.1,1108873773356261.9,75143328034267.12,201635758326939.34,4810269056851049.0,1.4391916338452277e+17
34.20918973107749,4320793783111563.5,1.5870660566303597e+17,804873817926159.9,1109248553291246.5,76889457337617.25,206330970475456.72,4922295727945859.0,1.4726617335294806e+17
34.993373525699035,4322231751924111.5,1.622429761057158e+17,805141681550029.2,1109617713474728.2,78670194365817.52,211119697016491.38,5036554388231000.0,1.5067964067915363e+17
35.793240996213015,4323648891632744.5,1.658494926693537e+17,805405665145794.9,1109981526340049.8,80486219719972.95,216003795455955.06,5153089402856881.0,1.541608771682021e+17
36.60910581613728,4325046232602506.0,1.6952754205260874e+17,805665960648988.8,1110340256405978.5,82338227168951.86,220985159984484.2,5271946014389759.0,1.57711220201408e+17
37.44128793246003,4326424775934156.0,1.7327853791627645e+17,805922754543825.1,1110694160678463.5,84226923893826.27,226065722189183.53,5393170359884755.0,1.613320332191523e+17
38.29011369110923,4327785494951495.5,1.771039213952626e+17,806176228140239.2,1111043489032455.4,86153030736513.61,231247451778884.16,5516809488285175.0,1.6502470621233712e+17
39.15591596493141,4329129336615832.0,1.8100516161956336e+17,806426557837390.9,1111388484575038.8,88117282452674.78,236532357323163.44,5642911378153941.0,1.6879065622260512e+17
40.03903428423004,4330457222872150.0,1.8498375624439526e+17,806673915374419.5,1111729383991019.4,90120427968924.14,241922487005355.75,5771524955742998.0,1.7263132785144013e+17
40.93981496991464,4331770051931053.5,1.8904123198960726e+17,806918468069235.2,1112066417872038.1,92163230644401.77,247419929389791.25,5902700113406398.0,1.76548193778294e+17
41.85861126931294,4333068699490420.5,1.9317914518852253e+17,807160379046108.8,1112399811030191.1,94246468536764.73,253026814203515.56,6036487728363170.0,1.8054275528785206e+17
42.7957834946992,4334354019900364.0,1.9739908234634506e+17,807399807452662.1,1112729782797104.9,96370934672648.06,258745313132725.84,6172939681816055.0,1.8461654280657347e+17
