t(s),Total solute volume 1,Total retention volume 1,Total 1 volume 1,Total 2 volume 1,Total 3 volume 1,Total 4 volume 1,Total 5 volume 1,Total 6 volume 1
0.1,1144268928618327.0,1596229672649425.0,193012778181123.2,258947965849975.12,0.0,0.0,0.0,0.0
0.202,1722749602137980.5,2403286149913711.0,290589634204626.1,389858108593875.06,51699976.24116112,132835083.24008238,2977952318.1097236,85642489849.87292
0.30604000000000003,2163608342854410.2,3018410847901446.0,364952722441879.1,489624410888172.4,131157246.02119692,336988637.6002846,7555042493.196626,217348528608.9601
0.41216080000000005,2536540051422069.5,3538817266296199.0,427858027345515.75,574018829925195.6,232957191.16461018,598548437.4911726,13419233453.497847,386106864336.7607
0.5204040160000001,2867730721745639.5,4001030145462829.0,483722545185837.6,648967254806649.8,354694991.2379997,911335630.716273,20431976763.298733,587925717323.4407
0.6308120963200001,3170235937907293.0,4423259515361015.0,534748463351101.06,717424163402682.6,495080585.86580956,1272035590.9785633,28518951731.118305,820664632033.7126
0.7434283382464002,3451645884426212.0,4816092245785550.0,582216077570894.4,781107213966848.6,653376422.2378887,1678753282.4814615,37637668324.6622,1083100023565.4017
0.8582969050113283,3716823656513504.0,5186311530551386.0,626945684110991.4,841116924612462.5,829166389.9932601,2130419569.8588603,47764154651.501396,1374541573823.9944
0.9754628431115548,3969102013351141.0,5538566135794750.0,669499445501550.8,898207498510105.5,1022241965.3391576,2626498681.52084,58886397587.72086,1694643293721.3782
1.094972099973786,4210880868812556.5,5876203777765126.0,710282173965879.1,952922036000225.9,1232539156.855028,3166826200.8871,71000710233.40663,2043298910880.9856
1.2168715419732616,4443955362893648.5,6201728710002374.0,749596669792173.2,1005666777136501.0,1460100617.5854905,3751511718.8523417,84109549224.21664,2420579018490.555
1.3412089728127268,4669709379957623.0,6517071635409080.0,787676363567917.6,1056754894851623.8,1705051473.6411037,4380876728.865611,98220122250.86406,2826690981444.8413
1.4680331522689813,4889236277780944.0,6823758092830450.0,824705680491350.9,1106433815932157.0,1967583187.3481126,5055413165.632078,113343458443.37587,3261952171205.4624
1.597393815314361,5103417679910364.0,7123018351451863.0,860833330893943.4,1154903051723478.0,2247942400.3141365,5775754738.991901,129493765642.42918,3726771461298.8955
1.729341691620648,5312976842207031.0,7415861842309507.0,896181311992337.9,1202326274974962.5,2546423007.347807,6542656569.011987,146687973795.20795,4221636081802.934
1.863928525453061,5518515939447036.0,7703129162381771.0,930851197310592.9,1248839757795089.2,2863360407.2835536,7356980414.320117,164945403758.81552,4747102084479.009
2.001207095962122,5720542814776479.0,7985529382201533.0,964928648719746.2,1294558425051215.8,3199127268.2478237,8219683791.577207,184287523347.58154,5303787319686.373
2.1412312378813647,5919490611532657.0,8263667426389924.0,998486727890474.2,1339580297049314.8,3554130375.931687,9131811877.576729,204737765769.96127,5892366209465.891
2.284055862638992,6115732469539417.0,8538064570606034.0,1031588375232065.1,1383989815304597.8,3928808275.264751,10094491449.873869,226321393771.42285,6513565836449.591
2.4297369798917723,6309592719761175.0,8809174054805681.0,1064288298182142.4,1427860375890865.5,4323629505.955379,11108926353.267555,249065397988.48224,7168163017653.158
2.578331719489608,6501355544023009.0,9077393161103706.0,1096634431909347.1,1471256289134607.2,4739091291.26533,12176394130.80262,272998421412.40958,7856982129910.523
2.7298983538794,6691271766479251.0,9343072686071956.0,1128669084883365.5,1514234316523806.0,5175718578.913369,13298243559.516193,298150704138.1263,8580893519267.252
2.884496320956988,6879564245967729.0,9606524461782602.0,1160429848445484.0,1556844890997355.2,5634063360.135299,14475892900.866201,324554044136.92847,9340812371652.633
3.0421862473761276,7066432205396003.0,9868027394418278.0,1191950327079962.2,1599133096684815.2,6114704211.934748,15710828724.616787,352241770886.59064,10137697953673.766
3.2030299723236504,7252054742967110.0,1.0127832361879184e+16,1223260730679920.0,1641139463496582.5,6618246021.118976,17004605199.793371,381248729473.576,10972553154863.031
3.3670905717701234,7436593706181649.0,1.0386166222735706e+16,1254388359327739.5,1682900617510329.8,7145319858.5459795,18358843771.584335,411611273348.4662,11846424279018.438
3.5344323832055258,7620196064153458.0,1.0643235125556124e+16,1285358003452044.0,1724449817825880.8,7696582979.24745,19775233161.66256,443367264332.7282,12760401044278.807
3.7051210308696363,7802995881020906.0,1.089922726195528e+16,1316192276698447.5,1765817403148053.2,8272718929.492446,21255529643.275284,476556078785.9981,13715616760532.873
3.879223451487029,7985115969279931.0,1.1154315173299728e+16,1346911894810119.8,1807031165935781.8,8874437745.937595,22801557552.937817,511218619078.1786,14713248659528.703
4.0568079205167695,8166669284122026.0,1.1408657696258592e+16,1377535910821679.0,1848116667940739.0,9502476235.128317,24415210008.577576,547397329690.3173,15754518358222.549
4.237944078927105,8347760106567967.0,1.1662401613851404e+16,1408081914627605.2,1889097507950376.2,10157598324.02601,26098449810.168434,585136217407.0529,16840692439902.346
4.422702960505647,8528485053120986.0,1.1915683064603574e+16,1438566203288315.8,1929995550272378.2,10840595474.11654,27853310503.72984,624480875171.7822,17973083140741.258
4.61115701971576,8708933941964214.0,1.2168628751683674e+16,1469003927138478.5,1970831120755092.2,11552287153.137518,29681897593.368065,665478509261.0475,19153049131892.977
4.803380160110075,8889190539784130.0,1.242135698560722e+16,1499409215759528.2,2011623175793616.5,12293521359.639597,31586389889.067364,708177969502.5355,20381996389193.863
4.9994477633122765,9069333208673972.0,1.2673978587638472e+16,1529795287097943.5,2052389448723968.2,13065175196.541162,33569040980.363487,752629782315.4199,21661379144104.445
5.199436718578522,9249435468938920.0,1.2926597675956314e+16,1560174542397986.5,2093146577185906.2,13868155490.599394,35632180827.9929,798886186395.7859,22992700910785.95
5.403425452950093,9429566490753306.0,1.3179312352644596e+16,1590558649133355.5,2133910214384875.2,14703399455.342484,37778217467.20835,847001170905.7128,24377515585241.457
5.611493962009095,9609791525330814.0,1.3432215306376212e+16,1620958613736040.8,2174695126665810.2,15571875395.517664,40009638817.76558,897030516053.9639,25817428613295.406
5.823723841249277,9790172284435730.0,1.368539434310261e+16,1651384845611456.0,2215515279396516.5,16474583451.532381,42329014596.66593,949031835980.5259,27314098224887.277
6.040198318074262,9970767275582064.0,1.3938932854995688e+16,1681847213679091.5,2256383912823178.5,17412556382.718132,44738998330.64872,1003064623877.6041,28869236732736.3
6.261002284435747,1.0151632099066922e+16,1.419291023621445e+16,1712355096475423.8,2297313609289027.0,18386860388.5408,47242329466.18295,1059190299296.6018,30484611893926.676
6.486222330124463,1.033281971200281e+16,1.4447402252700472e+16,1742917426690369.8,2338316352984776.5,19398595967.1318,49841835575.34879,1117472257605.0188,32162048333374.992
6.715946776726952,1.0514380663710456e+16,1.4702481372084846e+16,1773542730872770.0,2379403583218077.5,20448898810.72732,52540434656.55053,1177975921569.4946,33903429028493.504
6.950265712261491,1.0696363306168328e+16,1.4958217058863028e+16,1804239164928584.5,2420586242038158.0,21538940737.784573,55341137529.46637,1240768795051.7507,35710696854669.63
7.18927102650672,1.0878813982666442e+16,1.5214676039228544e+16,1835014545942613.8,2461874816928213.0,22669930661.703884,58247050324.05177,1305920518813.1895,37585856191440.2
7.433056447036854,1.1061777197353862e+16,1.547192253931573e+16,1865876380777361.0,2503279379173941.0,23843115596.220955,61261377063.763016,1373502928432.021,39530974589469.24
7.681717575977592,1.1245295767985574e+16,1.5730018500070908e+16,1896831891838083.5,2544809618430231.0,25059781697.65676,64387422343.48112,1443590114343.6306,41548184498639.66
7.935351927497144,1.1429410963854774e+16,1.5989023771520034e+16,1927888040338888.2,2586474873935153.5,26321255344.319218,67628594102.89233,1516258484021.0962,43639685057744.2
8.194058966047088,1.1614162630624234e+16,1.624899628882607e+16,1959051547359007.0,2628284162759317.0,27628904253.445602,70988406496.32652,1591586826318.368,45807743946426.5
8.45794014536803,1.1799589303541524e+16,1.6509992232207406e+16,1990328912939722.8,2670246205426474.5,28984138636.162987,74470482860.27625,1669656378003.5186,48054699300156.195
8.72709894827539,1.198572831032898e+16,1.677206617251892e+16,2021726433439572.8,2712369449197499.0,30388412391.02077,78078558780.0248,1750550892514.032,50382961689162.805
9.0016409272409,1.2172615864872344e+16,1.7035271204065008e+16,2053250217337601.8,2754662089272130.0,31843224336.722633,81816485256.98872,1834356710970.228,52795016162365.57
9.281673745785717,1.2360287152691252e+16,1.7299659066016834e+16,2084906199650289.0,2797132088130922.0,33350119484.750298,85688231978.56114,1921162835486.7534,55293424357447.49
9.567307220701432,1.254877640905223e+16,1.7565280253636202e+16,2116700155107522.5,2839787193212246.5,34910690352.63377,89697890692.38918,2011061004825.5876,57880826678326.69
9.85865336511546,1.273811699048117e+16,1.7832184120362626e+16,2148637710215121.5,2882634953095499.5,36526578318.681725,93849678687.17981,2104145772437.4636,60559944541373.18
10.155826432417769,1.2928341440341096e+16,1.8100418971695004e+16,2180724354316364.5,2925682732341395.0,38199475019.03841,98147942382.25758,2200514586941.591,63333582691806.77
10.458942961066125,1.3119481549063408e+16,1.837003215168912e+16,2212965449751701.5,2968937725122282.0,39931123787.988594,102597161028.24384,2300267875096.69,66204631591805.086
10.768121820287448,1.3311568409553428e+16,1.8641070122799144e+16,2245366241204381.8,3012406967760399.0,41723321142.47799,107201950521.34215,2403509127319.3345,69176069881927.47
11.083484256693197,1.350463246823119e+16,1.8913578539708504e+16,2277931864309940.0,3056097350278413.5,43577918311.86894,111967067333.85214,2510344985807.9893,72250966917543.67
11.405153941827061,1.3698703572117648e+16,1.9187602317723996e+16,2310667353598595.5,3100015627055027.0,45496822813.9968,116897412563.64328,2620885335334.3735,75432485382032.1
11.733257020663602,1.3893811012331684e+16,1.946318569624378e+16,2343577649832195.0,3144168426668352.0,47482000078.6345,121998036105.44661,2735243396765.95,78723883978592.47
12.067922161076874,1.408998356432344e+16,1.9740372297756908e+16,2376667606790752.0,3188562261000677.5,49535475119.52472,127274140946.92706,2853535823386.1055,82128520202582.66
12.409280604298411,1.4287249525135056e+16,2.0019205182781436e+16,2409941997557424.0,3233203533670637.0,51659334256.17656,132731087592.6242,2975882800081.245,85649853196377.33
12.75746621638438,1.4485636747950008e+16,2.0299726901107656e+16,2443405520346267.5,3278098547851634.5,53855726886.66932,138374398618.9518,3102408145466.2646,89291446688799.88
13.112615540712067,1.4685172674164172e+16,2.0581979539674716e+16,2477062803911940.5,3323253513529607.0,56126867312.75216,144209763363.56274,3233239417022.587,93056972021268.84
13.474867851526309,1.488588436318999e+16,2.0866004767376132e+16,2510918412576937.0,3368674554247652.5,58475036618.56696,150243042752.49356,3368508019325.3364,96950211262859.19
13.844365208556836,1.5087798520181462e+16,2.115184387706075e+16,2544976850908220.0,3414367713380220.0,60902584604.36728,156480274268.61923,3508349315438.7075,100975060416554.8
14.221252512727972,1.529094152185176e+16,2.143953782496885e+16,2579242568072074.5,3460338959975616.0,63411931776.649506,162927677065.04657,3652902741561.055,105135532719040.0
14.605677562982532,1.5495339440536646e+16,2.172912726782133e+16,2613719961893069.0,3506594194201551.0,66005571396.153015,169591657227.20328,3802311925003.7163,109435762036447.88
14.997791114242183,1.5701018066643096e+16,2.202065259775804e+16,2648413382640658.5,3553139252425306.5,68686071585.23403,176478813187.47614,3956724805590.1597,113880006358557.58
15.397746936527026,1.5908002929609616e+16,2.2314153975304636e+16,2683327136564653.5,3599979911956968.0,71456077496.15613,183595941296.369,4116293760564.443,118472651394000.67
15.805701875257567,1.6116319317491294e+16,2.2609671360529116e+16,2718465489198914.0,3647121895481620.5,74318313541.88722,190950041554.2685,4281175733100.4556,123218214269115.66
16.221815912762718,1.6325992295274906e+16,2.2907244542536348e+16,2753832668450566.0,3694570875203997.5,77275585691.0387,198548323508.01382,4451532364506.333,128121347333157.2
16.64625223101797,1.6537046722017154e+16,2.3206913167433948e+16,2789432867490938.0,3742332476726849.5,80330783828.62332,206398212316.58047,4627530130220.419,133186842072646.72
17.079177275638333,1.6749507266892254e+16,2.3508716764893748e+16,2825270247462365.5,3790412282682543.5,83486884184.35559,214507354990.30972,4809340479698.324,138419633137718.19
17.5207608211511,1.6963398424226946e+16,2.3812694773419056e+16,2861348940014308.0,3838815836135488.5,86746951830.26808,222883626808.23727,4997139980293.013,143824802483400.34
17.97117603757412,1.7178744527594384e+16,2.4118886564421868e+16,2897673049680685.0,3887548643771578.5,90114143249.45396,231535137918.17447,5191110465232.331,149407583628843.28
18.430599558325603,1.739556976303193e+16,2.4427331465203104e+16,2934246656109345.0,3936616178889324.0,93591708977.80296,240470240124.34286,5391439185801.6455,155173366037578.38
18.899211549492115,1.7613898181441944e+16,2.473806878092208e+16,2971073816153920.0,3986023884206249.5,97182996320.64198,249697533867.4597,5598318967841.418,161127699621981.12
19.37719578048196,1.783375371023068e+16,2.505113781563575e+16,3008158565836954.5,4035777174492685.5,100891452146.23566,259225875402.31857,5811948372672.568,167276299375189.28
19.864739696091597,1.805516016423458e+16,2.536657789247831e+16,3045504922192984.0,4085881439044441.5,104720625758.15701,269064384178.01575,6032531862565.543,173625050133797.84
20.36203449001343,1.8278141255979732e+16,2.5684428373051108e+16,3083116884999035.5,4136342044004479.5,108674171848.58728,279222450426.1112,6260279970871.199,180180011474751.2
20.869275179813698,1.8502720605316376e+16,2.6004728676082732e+16,3120998438399778.0,4187164334543248.5,112755853534.64845,289709742962.1459,6495409476935.497,186947422749922.12
21.38666068340997,1.872892174846717e+16,2.6327518295417784e+16,3159153552433791.5,4238353636906284.5,116969545479.92989,300536217206.04846,6738143585921.715,193933708261957.72
21.91439389707817,1.895676814652406e+16,2.6652836817387044e+16,3197586184466749.5,4289915260337034.0,121319237103.4193,311712123427.12524,6988712113667.952,201145482585065.7
22.452681775019734,1.9186283193426284e+16,2.6980723937608084e+16,3236300280537163.0,4341854498882317.5,125809035878.10008,323248015219.4371,7247351676710.266,208589556034478.5
23.00173541052013,1.9417490223450076e+16,2.7311219477261948e+16,3275299776619699.5,4394176633087169.0,130443170721.5299,335154758213.51794,7514305887604.536,216272940288448.7
23.561770118730532,1.9650412518235896e+16,2.7644363398888596e+16,3314588599810556.5,4446886931585221.0,135225995480.7716,347443539030.51904,7789825555683.896,224202854166702.9
24.133005521105144,1.9885073313380436e+16,2.7980195821739908e+16,3354170669439372.0,4499990652590345.0,140161992514.09976,360125874485.01904,8074168893391.283,232386729569365.62
24.715665631527248,2.012149580461516e+16,2.8318757036727676e+16,3394049898111390.0,4553493045294959.0,145255776371.962,373213621042.85126,8367601728329.738,240832217580476.84
25.309978944157795,2.035970315359349e+16,2.866008752100033e+16,3434230192683657.0,4607399351179604.0,150512097579.72913,386718984540.4784,8670397721176.864,249547194740299.7
25.91617852304095,2.0599718493306316e+16,2.900422795218039e+16,3474715455178513.5,4661714805238526.0,155935846524.83002,400654530172.57025,8982838589612.398,258539769490716.7
26.53450209350177,2.084156493314423e+16,2.93512192222935e+16,3515509583637368.0,4716444637125151.0,161532057450.91367,415033192754.5825,9305214338411.885,267818288798112.22
27.165192135371807,2.1085265563622296e+16,2.9701102451415508e+16,3556616472917844.5,4771594072221448.0,167305912561.75137,429868287267.307,9637823495861.898,277391344958228.34
27.808495978079243,2.133084346078444e+16,3.0053919001065636e+16,3598040015436542.5,4827168332634550.0,173262746237.64322,445173519690.48444,9980973356656.719,287267782587577.2
28.464665897640828,2.157832169030039e+16,3.040971048736957e+16,3639784101860207.5,4883172638123907.0,179408049367.1474,460962998132.7513,10334980231438.732,297456705806092.9
29.133959215593645,2.1827723311269092e+16,3.076851879401535e+16,3681852621747211.5,4939612206961994.0,185747473797.03076,477251244265.3213,10700169703149.057,307967485615825.4
29.816638399905518,2.207907137974026e+16,3.1130386085025948e+16,3724249464141592.5,4996492256731277.0,192286836903.3688,494053205066.9826,11076876890357.828,318809767480524.2
30.51297116790363,2.2332388951965496e+16,3.149535481736685e+16,3766978518121442.0,5053818005059871.0,199032126286.81442,511384264888.1096,11465446717747.395,329993479111131.44
31.223230591261704,2.258769908738925e+16,3.1863467753409724e+16,3810043673303444.5,5111594670298460.0,205989504595.09695,529260257841.6104,11866234193925.303,341528838462245.8
31.947695203086937,2.2845024851389224e+16,3.223476797327117e+16,3853448820305053.5,5169827472140419.0,213165314475.87952,547697480528.8088,12279604696747.008,353426361944762.5
32.686649107148675,2.310438931777462e+16,3.260929888704283e+16,3897197851165947.5,5228521632187181.0,220566083663.17413,566712705108.4895,12705934266332.549,365696872859962.2
33.44038208929165,2.336581557105076e+16,3.2987104246930796e+16,3941294659729992.0,5287682374460687.0,228198530200.55463,586323192717.4666,13145609905964.418,378351510060457.75
34.20918973107749,2.3629326708456692e+16,3.3368228159319844e+16,3985743141988970.5,5347314925864536.0,236069567804.50427,606546707251.1815,13599029891057.88,391401736843486.5
34.993373525699035,2.3894945841783544e+16,3.3752715096777736e+16,4030547196389263.0,5407424516595493.0,244186311371.26254,627401529513.0479,14066604086398.395,404859350082153.3
35.793240996213015,2.41626960989792e+16,3.4140609910014796e+16,4075710724102540.0,5468016380506516.0,252556082630.6227,648906471741.363,14548754271844.756,418736489600331.8
36.60910581613728,2.4432600625544864e+16,3.453195783981133e+16,4121237629261339.0,5529095755422978.0,261186415950.19482,671080892522.832,15045914476699.918,433045647797022.0
37.44128793246003,2.4704682585729504e+16,3.49268045289283e+16,4167131819160512.0,5590667883412831.0,270085064293.6915,693944712101.8728,15558531322955.285,447799679526087.5
38.29011369110923,2.4978965163525984e+16,3.5325196034011744e+16,4213397204425273.5,5652738011012030.0,279260005336.8927,717518428095.0154,16087064377618.13,463011812237387.25
39.15591596493141,2.525547156347388e+16,3.5727178837505852e+16,4260037699146610.5,5715311389406309.0,288719447744.97174,741823131619.9869,16631986514334.922,478695656385402.6
40.03903428423004,2.5534225011272596e+16,3.613279985958471e+16,4307057220984725.0,5778393274569848.0,298471837614.96466,766880523849.0602,17193784284527.91,494865216111601.25
40.93981496991464,2.581524875420868e+16,3.654210647011497e+16,4354459691241070.0,5841988927361986.0,308525865087.1966,792712932996.571,17772958298264.992,511534900206848.4
41.85861126931294,2.6098566061400004e+16,3.695514650066037e+16,4402249034899559.5,5906103613582519.0,318890471129.5712,819343331750.5817,18370023615087.113,528719533360272.75
42.7957834946992,2.6384200223860384e+16,3.73719682565399e+16,4450429180637467.5,5970742603986244.0,329574854498.66235,846795355158.8561,18985510145020.984,546434367701119.6
43.751699164593184,2.6672174554386532e+16,3.779262052894855e+16,4499004060806358.5,6035911174257486.0,340588478881.64734,875093318979.468,19619963060008.65,564695094640199.4
