t(s),Total solute volume 1,Total retention volume 1,Total 1 volume 1,Total 2 volume 1,Total 3 volume 1,Total 4 volume 1,Total 5 volume 1,Total 6 volume 1
0.1,988500314890707.8,1201179625827040.0,98333854761724.14,114345456174609.27,0.0,0.0,0.0,0.0
0.202,1489069887721018.5,1809457394246776.2,148129424235087.28,172249188917555.9,11019787.394662522,22722012.14029568,366376785.0794253,8493254528.148756
0.30604000000000003,1870369814485060.2,2272809010974583.0,186060309251004.56,216356321839810.4,27959466.933795366,57650433.0156221,929579231.1329638,21550209575.082756
0.41216080000000005,2192902808793295.5,2664753629023432.5,218145187989117.16,253665549087538.4,49663730.1774648,102403091.83516455,1651193577.398392,38279893085.62543
0.5204040160000001,2479339251555223.0,3012838827564761.0,246639260510208.47,286799282736955.75,75619875.16435134,155922832.48093966,2514173350.2108555,58287046317.44148
0.6308120963200001,2740975495984898.0,3330791187967452.5,272666263395603.47,317064236279168.5,105552979.07647005,217642783.24088198,3509377896.7253995,81359734117.50311
0.7434283382464002,2984377389103812.0,3626589095494643.5,296879352786311.7,345219918616325.0,139305951.285331,287239034.23177665,4631584268.399156,107376858938.68372
0.8582969050113283,3213751196750984.0,3905343737382066.0,319696958833409.0,371752892461334.25,176790253.09857085,364529024.8965097,5877848731.613919,136270168330.7891
0.9754628431115548,3431979340037954.0,4170557662031569.5,341405818501880.2,396996583871163.6,217961618.51597148,449421481.8828466,7246699527.5266285,168005537947.13364
1.094972099973786,3641137370129288.5,4424752971878935.5,362212403094283.06,421191083662968.6,262806609.4975893,541888696.9408377,8737689861.132212,202572607226.63254
1.2168715419732616,3842777785064888.5,4669816197881820.0,382271151729212.25,444515978121646.94,311334538.016613,641949870.7589086,10351129325.96675,239978552345.11447
1.3412089728127268,4038097425196663.5,4907201706513122.0,401701123474227.7,467109712582897.06,363572313.0467833,749660487.8118589,12087912577.1741,280244113955.13513
1.4680331522689813,4228041896576731.0,5138058587431232.0,420596385156754.25,489081670680938.8,419561000.7984947,865105223.808358,13949404966.635683,323400945623.75146
1.597393815314361,4413373717290545.5,5363313459816782.0,439032790412655.6,510520057222777.0,479353446.8314749,988393042.6539285,15937363483.306717,369489780834.1138
1.729341691620648,4594718471049304.0,5583726554709106.0,457072570944928.9,531497237036928.6,543012587.0877188,1119653713.9193666,18053880598.706993,418559131047.60284
1.863928525453061,4772597052860869.0,5799930897457967.0,474767544252726.44,552073465013729.56,610610223.1165469,1259035287.440937,20301343545.81525,470664341590.6079
2.001207095962122,4947448801340134.0,6012460416303781.0,492161414783125.0,572299561951344.6,682226120.2424877,1406702233.8060358,22682404335.12065,525866896482.03424
2.1412312378813647,5119648475388939.0,6221770571108248.0,509291462734210.5,592218878344952.2,757947336.6890739,1562834061.0538728,25199957449.459755,584233901292.7047
2.284055862638992,5289518962583026.0,6428253795590537.0,526189808257699.25,611868764438207.4,837867721.9135562,1727624280.277189,27857123164.74943,645837696440.1923
2.4297369798917723,5457340959402240.0,6632251259990294.0,542884374427116.94,631281689990559.8,922087541.6124926,1901279632.4104633,30657235082.24957,710755568126.9922
2.578331719489608,5623360459359132.0,6834061970068753.0,559399632140504.44,650486110471719.8,1010713199.4175398,2084019514.3865893,33603830875.562737,779069533811.5356
2.7298983538794,5787794625586268.0,7033949903039837.0,575757184312587.5,669507146377244.8,1103857033.7284658,2276075560.2212415,36700645535.78177,850866185597.9011
2.884496320956988,5950836453590907.0,7232149673416763.0,591976229715437.6,688367122595920.4,1201637173.9156592,2477691344.5129633,39951606590.54126,926236579389.7864
3.0421862473761276,6112658514867737.0,7428871081998721.0,608073935384918.0,707086001454751.8,1304177444.177012,2689122184.2033777,43360830907.47219,1005276160778.2526
3.2030299723236504,6273415993068849.0,7624302805237070.0,624065738652229.5,725681733930022.8,1411607306.225287,2910635020.4029818,46932622788.682846,1088084720861.3114
3.3670905717701234,6433249169193777.0,7818615415102516.0,639965594365212.8,744170547123382.8,1524061834.078455,3142508366.411164,50671473132.59424,1174766376809.6267
3.5344323832055258,6592285473001964.0,8011963871867422.0,655786178958367.8,762567181560386.5,1641681715.7689755,3385032311.2412615,54582059490.7686,1265429573182.1968
3.7051210308696363,6750641189524191.0,8204489597799107.0,671539060212900.0,780885088592397.0,1764613277.9395478,3638508570.335757,58669246885.66229,1360187100883.63
3.879223451487029,6908422888833447.0,8396322214586693.0,687234839487210.0,799136595786311.8,1893008530.1629655,3903250576.951443,62938089284.16233,1459156131325.4207
4.0568079205167695,7065728631893283.0,8587581008681591.0,702883271672046.0,817333046411913.5,2027025226.489118,4179583609.065618,67393831643.8861,1562458263866.3455
4.237944078927105,7222648993806702.0,8778376174764045.0,718493366981083.6,835484917806885.9,2166826942.236023,4467844947.714518,72041912466.31116,1670219585003.448
4.422702960505647,7379267937084277.0,8968809876970836.0,734073477821725.2,853601922392712.1,2312583164.4430995,4768384063.502402,76887966804.1451,1782570738094.241
4.61115701971576,7535663560892552.0,9158977159430284.0,749631373328696.8,871693094344493.5,2464469394.721116,5081562828.671677,81937829680.85664,1899647002634.577
4.803380160110075,7691908747104775.0,9348966731405100.0,765174303631773.6,889766864323328.1,2622667263.4844646,5407755752.642587,87197539888.64308,2021588382310.3433
4.9994477633122765,7848071719974990.0,9538861647483114.0,780709055530922.8,907831124216986.1,2787364654.7532563,5747350239.347361,92673344137.82216,2148539701196.584
5.199436718578522,8004216533115574.0,9728739899438580.0,796242000939789.1,925893283471383.8,2958755840.8754935,6100746865.018664,98371701536.0436,2280650707603.3354
5.403425452950093,8160403494975311.0,9918674933369468.0,811779139211298.9,943960318308039.2,3137041626.6527276,6468359675.367658,104299288380.14702,2418076185169.8213
5.611493962009095,8316689541286836.0,1.0108736103344738e+16,827326134192890.0,962038814828942.6,3322429503.082116,6850616515.359516,110463008321.50063,2560976981738.559
5.823723841249277,8473128566619603.0,1.0298989070670936e+16,842888347188795.4,980135007281863.1,3515133806.685451,7247959306.932171,116869977555.01146,2709516509978.3716
6.040198318074262,8629771710109704.0,1.048949615683475e+16,858470865413751.5,998254811243850.2,3715375893.4352584,7660844483.437947,123527560608.07272,2863866286457.2295
6.261002284435747,8786667615756763.0,1.0680316656233112e+16,874078527866740.6,1016403853643208.6,3923384314.8023586,8089743302.354146,130443356291.226,3024202482504.048
6.486222330124463,8943862660418010.0,1.0871507114295586e+16,889715948016348.4,1034587499154968.8,4139395004.9932256,8535142243.864163,137625208874.1524,3190706960125.5244
6.715946776726952,9101401157817182.0,1.1063121575543712e+16,905387534095154.9,1052810873799772.9,4363651475.632854,8997543412.281233,145081214558.49216,3363567422134.612
6.950265712261491,9259325541005094.0,1.1255211805472282e+16,921097507250493.9,1071078886050119.4,4596405018.462325,9477464953.997856,152819728217.0908,3542977568393.1426
7.18927102650672,9417676525992900.0,1.1447827489559048e+16,936849917822337.1,1089396245758758.6,4837914916.045595,9975441491.949785,160849370399.52612,3729137258228.1685
7.433056447036854,9576493258883372.0,1.1641016412228076e+16,952648659979599.5,1107767481178199.5,5088448660.509557,10492024576.644533,169179034604.74503,3922252679040.675
7.681717575977592,9735813448494862.0,1.1834824618191524e+16,968497484913274.0,1126196954302083.5,5348282180.368668,11027783153.858997,177817894822.46732,4122536521145.752
7.935351927497144,9895673486194414.0,1.2029296558254914e+16,984400012757172.1,1144688874726964.2,5617700075.507603,11583304049.159233,186775413345.84818,4330208158901.374
8.194058966047088,1.0056108554422506e+16,1.2224475221387626e+16,1000359743383730.9,1163247312205981.2,5896995860.417471,12159192469.438053,196061348858.54547,4545493838199.142
8.45794014536803,1.021715272519371e+16,1.2420402254619254e+16,1016380066202637.0,1181876208042977.0,6186472215.799612,12756072521.706268,205685764799.99094,4768626870404.812
8.72709894827539,1.0378839049689178e+16,1.261711807211853e+16,1032464269073295.0,1200579385456191.0,6486441248.668326,13374587749.408436,215659038013.2341,4999847832850.169
9.0016409272409,1.0541199639913596e+16,1.2814661954635574e+16,1048615546427884.8,1219360559023977.8,6797224761.100299,14015401686.56699,225991867680.27042,5239404775989.741
9.281673745785717,1.0704265743266898e+16,1.3013072140342262e+16,1064837006689590.9,1238223343310930.5,7119154527.792467,14679198430.089706,236695284550.23386,5487553437347.374
9.567307220701432,1.0868067810775238e+16,1.3212385907974524e+16,1081131679060068.9,1257171260760565.8,7452572582.605062,15366683230.60327,247780660466.32132,5744557462388.758
9.85865336511546,1.1032635559636156e+16,1.3412639653073036e+16,1097502519741317.9,1276207748930263.0,7797831514.278696,16078583102.20378,259259718197.74222,6010688632465.324
10.155826432417769,1.1197998030654452e+16,1.3613868958022678e+16,1113952417649235.6,1295336167135196.0,8155294771.527361,16815647451.539577,271144541583.39395,6286227099985.546
10.458942961066125,1.1364183641077148e+16,1.3816108656509478e+16,1130484199669577.8,1314559802560066.8,8525336977.720976,17578648726.667263,283447585994.36847,6571461630977.824
10.768121820287448,1.1531220233278874e+16,1.401939289294241e+16,1147100635501034.0,1333881875890826.0,8908344255.382845,18368383086.14539,296181689122.788,6866689855218.979
11.083484256693197,1.1699135119696556e+16,1.42237551773262e+16,1163804442125264.8,1353305546512496.2,9304714560.73803,19185671088.85289,309360082104.812,7172218524110.321
11.405153941827061,1.1867955124368722e+16,1.4429228436016016e+16,1180598287939100.5,1372833917314294.8,9714858028.560465,20031358405.042652,322996400986.04834,7488363776491.887
11.733257020663602,1.2037706621395628e+16,1.463584505873964e+16,1197484796580501.8,1392470039138505.2,10139197327.576427,20906316549.16152,337104698537.95593,7815451412594.042
12.067922161076874,1.2208415570602384e+16,1.4843636942228934e+16,1214466550476256.8,1412216914905847.5,10578168026.693087,21811443634.991936,351699456434.14984,8153817176333.08
12.409280604298411,1.2380107550657718e+16,1.5052635530768876e+16,1231546094136526.2,1432077503446530.2,11032218972.331404,22747665153.68879,366795597795.898,8503807046166.353
12.75746621638438,1.2552807789873998e+16,1.5262871853938144e+16,1248725937218783.5,1452054723063023.0,11501812677.152624,23715934775.310665,382408500116.44904,8865777534729.814
13.112615540712067,1.2726541194891768e+16,1.547437656178823e+16,1266008557381316.5,1472151454848202.2,11987425720.478714,24717235174.462204,398554008574.14,9240095997489.383
13.474867851526309,1.2901332377430998e+16,1.5687179957683534e+16,1283396402944336.0,1492370545779796.2,12489549160.716503,25752578880.687973,415248449744.62,9627140950645.223
13.844365208556836,1.3077205679273356e+16,1.5901312029001184e+16,1300891895375191.5,1512714811610240.0,13008688960.107061,26823009154.280865,432508645722.84625,10027302398536.252
14.221252512727972,1.3254185195623784e+16,1.6116802475871894e+16,1318497431612299.5,1533187039569024.0,13545366422.130955,27929600888.18497,450351928665.8853,10440982170800.47
14.605677562982532,1.3432294796984574e+16,1.6333680738124238e+16,1336215386241163.5,1553789990893010.5,14100118641.91205,29073461536.70212,468796155767.8616,10868594269554.3
14.997791114242183,1.3611558149663948e+16,1.6551976020579788e+16,1354048113534501.8,1574526403198778.5,14673498969.97213,30255732071.72596,487859724678.8186,11310565226863.482
15.397746936527026,1.379199873502826e+16,1.6771717316832958e+16,1371997949367430.5,1595398992709621.8,15266077489.699886,31477587967.255424,507561589379.5452,11767334472785.031
15.805701875257567,1.3973639867597578e+16,1.699293343163636e+16,1390067213017524.5,1616410456348760.2,15878441508.909075,32740240212.95894,527921276524.8349,12239354714269.568
16.221815912762718,1.415650471207459e+16,1.7215653002002644e+16,1408258208858898.5,1637563473709216.0,16511196065.87175,34044936357.584686,548958902268.0203,12727092325220.893
16.64625223101797,1.4340616299390506e+16,1.7439904517122352e+16,1426573227958347.5,1658860708909878.5,17164964450.222876,35392961583.03668,570695189579.9498,13231027748019.334
17.079177275638333,1.452599754184121e+16,1.7665716337190186e+16,1445014549581080.8,1680304812346428.5,17840388739.146023,36785639809.95778,593151486076.0221,13751655906823.547
17.5207608211511,1.4712671247383446e+16,1.7893116711221902e+16,1463584442612886.5,1701898422345026.5,18538130349.259384,38224334835.687645,616349782365.2438,14289486632974.559
17.97117603757412,1.4900660133152854e+16,1.8122133793939644e+16,1482285166904864.5,1723644166726054.0,19258870604.635334,39710451505.486015,640312730935.6744,14845045102835.756
18.430599558325603,1.5089986838261232e+16,1.8352795661794388e+16,1501118974546480.0,1745544664284431.5,20003311321.397324,41245436917.938515,665063665591.0482,15418872288410.906
18.899211549492115,1.5280673935925316e+16,1.8585130328189652e+16,1520088111072085.8,1767602526192612.8,20772175409.350918,42830781665.485596,690626621453.7424,16011525421092.445
19.37719578048196,1.5472743944975206e+16,1.881916575796589e+16,1539194816605782.0,1789820357331843.8,21566207491.11891,44468021111.04443,717026355549.7312,16623578468901.865
19.864739696091597,1.5666219340785912e+16,1.905492988119824e+16,1558441326948852.0,1812200757556677.8,22386174539.262424,46158736701.71638,744288367991.5112,17255622627593.717
20.36203449001343,1.586112256567335e+16,1.929245060635841e+16,1577829874613923.5,1834746322897532.2,23232866531.882927,47904557320.602196,772438923775.5272,17908266826005.14
20.869275179813698,1.6057476038791076e+16,1.953175583288517e+16,1597362689809496.2,1857459646705497.8,24107097127.215305,49707160677.77577,801505075210.9568,18582138246043.098
21.38666068340997,1.6255302165562694e+16,1.9772873463206156e+16,1617042001378227.8,1880343320743445.2,25009704357.732918,51568274741.48918,831514684997.2661,19277882857711.47
21.91439389707817,1.6454623346680778e+16,2.001583141425007e+16,1636870037692160.5,1903399936226981.5,25941551344.30187,53489679210.721466,862496449968.3566,19996165969591.676
22.452681775019734,1.6655461986702194e+16,2.0260657628483436e+16,1656849027507735.8,1926632084818718.8,26903527030.934757,55473207030.19911,894479925521.5829,20737672795200.89
23.00173541052013,1.6857840502265874e+16,2.0507380084507292e+16,1676981200783294.8,1950042359578871.0,27896546940.709225,57520745949.05967,927495550750.458,21503109035662.605
23.561770118730532,1.7061781329958386e+16,2.075602680724259e+16,1697268789461534.8,1973633355875107.8,28921553953.430317,59634240124.349915,961574674300.3182,22293201479137.06
24.133005521105144,1.7267306933849942e+16,2.100662587773269e+16,1717714028219155.2,1997407672254275.8,29979519105.63249,61815691770.58677,996749580966.686,23108698617468.477
24.715665631527248,1.7474439812721788e+16,2.125920544259095e+16,1738319155185832.2,2021367911278473.2,31071442413.530613,64067162856.63805,1033053519056.6683,23950371280520.207
25.309978944157795,1.7683202507005238e+16,2.151379372311519e+16,1759086412634507.8,2045516680327665.8,32198353719.546097,66390776851.2154,1070520728534.1357,24819013288678.027
25.91617852304095,1.7893617605449502e+16,2.1770419024093344e+16,1780018047644687.0,2069856592371039.8,33361313563.049374,68788720518.29848,1109186469970.0674,25715442124017.062
26.53450209350177,1.810570775153583e+16,2.202910974232006e+16,1801116312740476.8,2094390266708952.5,34561414075.97693,71263245763.85138,1149087054319.8652,26640499620637.0
27.165192135371807,1.8319495649652596e+16,2.2289894374844388e+16,1822383466504912.2,2119120329687217.5,35799779903.99672,73816671535.2161,1190259873550.1064,27595052674685.73
27.808495978079243,1.8535004071045956e+16,2.2552801526964976e+16,1843821774171895.2,2144049415385482.8,37077569153.91169,76451385774.61241,1232743432137.631,28579993974600.926
28.464665897640828,1.8752255859558856e+16,2.28178599199904e+16,1865433508197079.5,2169180166281077.2,38395974368.01125,79169847428.19705,1276577379464.5059,29596242752115.457
29.133959215593645,1.897127393717009e+16,2.3085098398778496e+16,1887220948808920.0,2194515233889728.5,39756223526.090546,81974588512.1798,1321802543132.9377,30644745554581.8
29.816638399905518,1.919208130934365e+16,2.335454593906857e+16,1909186384540784.5,2220057279384389.8,41159581075.88358,84868216237.52122,1368460963224.7385,31726477039185.797
30.51297116790363,1.941470107019828e+16,2.362623165461805e+16,1931332112745222.8,2245808974193192.5,42607348992.66294,87853415194.77643,1416595927530.5505,32842440789632.254
31.223230591261704,1.963915640750476e+16,2.390018480415452e+16,1953660440091095.5,2271773000577554.0,44100867868.78516,90932949600.68051,1466252007774.5442,33993670155896.836
31.947695203086937,1.986547060751803e+16,2.417643479815146e+16,1976173683044238.2,2297952052191076.5,45641518033.96875,94109665608.10768,1517475096860.924,35181229117651.652
32.686649107148675,2.0093667059649108e+16,2.4455011205434916e+16,1998874168332238.5,2324348834620040.0,47230720707.11364,97386493681.0649,1570312447168.94,36406213171984.65
33.44038208929165,2.0323769260980604e+16,2.4735943759626108e+16,2021764233393603.5,2350966065905689.5,48869939180.48326,100766451036.41759,1624812709923.8652,37669750246043.2
34.20918973107749,2.055580082062756e+16,2.5019262365422976e+16,2044846226811593.0,2377806477048689.5,50560680037.08617,104252644154.07004,1681025975671.6062,38973001635242.62
34.993373525699035,2.078978546394337e+16,2.5304997104720924e+16,2068122508732597.2,2404872812495649.0,52304494402.10495,107848271357.35074,1739003815885.1821,40317162967692.89
35.793240996213015,2.1025747036568336e+16,2.559317824257062e+16,2091595451268888.0,2432167830607441.0,54102979229.2339,111556625465.37886,1798799325731.768,41703465195503.266
36.60910581613728,2.126370950831529e+16,2.5883836232965936e+16,2115267438885136.5,2459694304108683.5,55957778622.79732,115381096519.20721,1860467168029.0598,43133175613629.47
37.44128793246003,2.1503696976884164e+16,2.617700172445467e+16,2139140868767951.8,2487455020517375.0,57870585196.521645,119325174583.54561,1924063618420.2312,44607598906939.58
38.29011369110923,2.174573367139308e+16,2.6472705565555772e+16,2163218151177136.2,2515452782553448.5,59843141469.84652,123392452625.8861,1989646611796.698,46128078226171.15
39.15591596493141,2.198984395571097e+16,2.6770978809966504e+16,2187501709777188.0,2543690408524149.5,61877241302.65268,127586629474.84552,2057275789997.9556,47695996293453.695
40.03903428423004,2.2236052331569396e+16,2.7071852721533504e+16,2211993981946896.8,2572170732684117.5,63974731369.28633,131911512859.53195,2127012550817.6553,49312776538071.336
40.93981496991464,2.248438344142941e+16,2.737535877895751e+16,2236697419064500.0,2600896605566919.5,66137512672.745766,136371022531.7249,2198920098344.705,50979884263126.125
41.85861126931294,2.27348620710706e+16,2.7681528680194424e+16,2261614486765248.0,2629870894284581.0,68367542099.88198,140969193472.62878,2273063494667.717,52698827843754.81
42.7957834946992,2.2987513151863624e+16,2.799039434650526e+16,2286747665167463.5,2659096482790468.0,70666834018.44478,145710179185.90305,2349509712970.335,54471159957535.05
43.751699164593184,2.3242361762681416e+16,2.8301987926101184e+16,2312099449062674.0,2688576272100316.5,73037461916.76973,150598255078.62228,2428327692043.973,56298478847688.664
