t(s),Total solute volume 1,Total retention volume 1,Total 1 volume 1,Total 2 volume 1,Total 3 volume 1,Total 4 volume 1,Total 5 volume 1,Total 6 volume 1
0.1,1392571168361754.5,6037270240607699.0,1452613831222594.2,3192085241023349.0,0.0,0.0,0.0,-0.09582846306271511
0.202,2037562389362601.8,9008264210437786.0,2125415336425759.8,4670558807499517.0,42756932812.83808,233964494213.77768,12642582355389.664,161808373367492.5
0.30604000000000003,2511139958611147.0,1.1354547951319328e+16,2619412077042766.5,5756108020779258.0,106443923469.48462,582591884689.8309,32008839347689.96,435190019730307.8
0.41216080000000005,2892144807594283.0,1.3388053269566784e+16,3016844631152197.5,6629458816746258.0,185736239165.09027,1016670697093.9188,56256023622061.445,792146583515726.9
0.5204040160000001,3213324617674484.5,1.523422698636514e+16,3351872674413626.5,7365676723121453.0,277919188263.75183,1521330192320.1147,84502347412382.0,1217051374362612.8
0.6308120963200001,3491777831437865.5,1.6956678477179342e+16,3642331884774098.5,8003955390690946.0,381314086572.0835,2087376799048.9312,116214563920493.73,1699930115470315.8
0.7434283382464002,3737751900372463.5,1.85926378850247e+16,3898911553033719.5,8567784369875290.0,494770940283.40106,2708513164208.811,151031521324727.34,2233955256313991.8
0.8582969050113283,3957967919101521.5,2.016606964392676e+16,4128622566837105.5,9072569972191634.0,617451715679.2568,3380150652269.686,188692180973508.06,2814219402455044.5
0.9754628431115548,4157117024095108.0,2.1693476923316308e+16,4336358329922808.5,9529065370398714.0,748719614012.0017,4098802768365.5713,228999579526282.72,3437089096991008.5
1.094972099973786,4338626423245147.0,2.318681575146859e+16,4525693820665923.0,9945126518231004.0,888075921006.9312,4861739233954.583,271800436363990.47,4099818737807559.5
1.2168715419732616,4505089885786614.0,2.4655099085511816e+16,4699334643447350.0,1.0326698934025646e+16,1035121262199.3917,5666773764197.191,316972702486638.7,4800301024739171.0
1.3412089728127268,4658526966303369.0,2.61053438383786e+16,4859387429621649.0,1.0678411902673534e+16,1189530542278.1755,6512126806611.22,364417544186996.6,5536898338244177.0
1.4680331522689813,4800547501920175.0,2.7543161681833796e+16,5007531427331885.0,1.1003955541546452e+16,1351036041001.842,7396332960080.582,414053963127165.4,6308325878907031.0
1.597393815314361,4932460381056207.0,2.897314440672682e+16,5145131960042047.0,1.1306330123821696e+16,1519415596899.259,8318176262742.631,465815055458654.94,7113569294488571.0
1.729341691620648,5055347914169594.0,3.0399124692452536e+16,5273318003921708.0,1.158801655353898e+16,1694484085314.8914,9276643524054.46,519645327539063.94,7951825765673817.0
1.863928525453061,5170118144000675.0,3.1824358101112264e+16,5393036753546798.0,1.1851096272840694e+16,1876087101891.124,10270889736038.318,575498715373461.9,8822461238512698.0
2.001207095962122,5277542553197538.0,3.325165348153652e+16,5505092955361928.0,1.2097337696607526e+16,2064096168650.424,11300211823330.457,633337087383650.1,9724978880993892.0
2.1412312378813647,5378283840335586.0,3.468346855551192e+16,5610177881316007.0,1.2328259881539348e+16,2258405021263.487,12364028314249.043,693129088786027.0,1.0658995430199432e+16
2.284055862638992,5472916777637609.0,3.61219813865967e+16,5708891085902363.0,1.2545180336883334e+16,2458926683553.7812,13461863322914.021,754849233741480.6,1.1624223162425476e+16
2.4297369798917723,5561944144813347.0,3.7569144759512664e+16,5801757027015630.0,1.2749251548483152e+16,2665591127841.3633,14593333739426.863,818477181326934.8,1.2620455933006342e+16
2.578331719489608,5645809089776616.0,3.902672820521973e+16,5889237959624241.0,1.2941489312401536e+16,2878343379486.8267,15758138852431.004,883997150552645.4,1.364755821063275e+16
2.7298983538794,5724904850479088.0,4.0496350934634696e+16,5971744076779016.0,1.3122795019609838e+16,3097141963693.9326,16956051845796.486,951397442309984.0,1.4705456351647262e+16
2.884496320956988,5799582496601289.0,4.197950797505938e+16,6049641585101406.0,1.3293973401731288e+16,3321957619721.871,18186912759547.703,1020670044730531.1,1.579413157651558e+16
3.0421862473761276,5870157163881125.0,4.34775911514548e+16,6123259207916404.0,1.3455746821560108e+16,3552772226601.2417,19450622608894.477,1091810304423606.9,1.6913614258838086e+16
3.2030299723236504,5936913125939165.0,4.49919061072466e+16,6192893475758852.0,1.3608766898854456e+16,3789577897976.162,20747138429310.47,1164816650321497.2,1.8063979240045344e+16
3.3670905717701234,6000107958903441.0,4.652368624668159e+16,6258813070563460.0,1.3753624056615526e+16,4032376213533.605,22076469069481.504,1239690359954388.2,1.924534195536177e+16
3.5344323832055258,6059975990408963.0,4.807410425869116e+16,6321262423374143.0,1.3890855426988444e+16,4281177561750.6797,23438671593754.38,1316435360258159.2,2.045785520850592e+16
3.7051210308696363,6116731178515648.0,4.964428172213767e+16,6380464717391633.0,1.4020951450404214e+16,4536000574137.001,24833848185541.84,1395058056724901.5,2.1701706470341576e+16
3.879223451487029,6170569532375650.0,5.123529717534808e+16,6436624413012096.0,1.414436142430554e+16,4796871635280.652,26262143465761.324,1475567185999050.2,2.297711560455469e+16
4.0568079205167695,6221671161475252.0,5.284819294628535e+16,6489929385425797.0,1.4261498200479946e+16,5063824456175.183,27723742157738.492,1557973688013051.0,2.428433294427741e+16
4.237944078927105,6270202021510448.0,5.448398097492615e+16,6540552745769021.0,1.4372742187007066e+16,5336899700760.378,29218867043450.703,1642290594523533.0,2.562363765937187e+16
4.422702960505647,6316315410717758.0,5.614364781039966e+16,6588654401971902.0,1.4478444778192066e+16,5616144657529.612,30747777166499.965,1728532931508547.2,2.6995336366185348e+16
4.61115701971576,6360153259572323.0,5.782815892799457e+16,6634382404063982.0,1.457893131084891e+16,5901612949570.504,32310766245493.305,1816717633358886.0,2.839976194095538e+16
4.803380160110075,6401847248326364.0,5.953846248226368e+16,6677874109897285.0,1.4674503625954532e+16,6193364277608.344,33908161268096.957,1906863467171754.8,2.9837272505368012e+16
4.9994477633122765,6441519780277532.0,6.127549258999167e+16,6719257200378797.0,1.4765442299602252e+16,6491464191584.145,35540321241297.414,1998990965755206.2,3.1308250558544996e+16
5.199436718578522,6479284833478016.0,6.304017221918261e+16,6758650567902431.0,1.4852008595313802e+16,6795983887073.573,37207636077645.29,2093122368193373.5,3.2813102234330244e+16
5.403425452950093,6515248709491713.0,6.4833415746307144e+16,6796165097390064.0,1.493444618036145e+16,7107000023480.049,38910525600690.125,2189281567018078.5,3.4352256666421664e+16
5.611493962009095,6549510694531127.0,6.665613123298299e+16,6831904355934531.0,1.5012982641244678e+16,7424594561445.232,40649438655606.77,2287494061191557.0,3.592616544686405e+16
5.823723841249277,6582163645674795.0,6.8509222464393176e+16,6865965204292694.0,1.5087830827434076e+16,7748854617336.903,42424852313296.12,2387786914235155.5,3.7535302165825784e+16
6.040198318074262,6613294512738837.0,7.039359078460411e+16,6898438341258405.0,1.5159190047619576e+16,8079872333015.987,44237271158115.38,2490188716945653.5,3.918016202255056e+16
6.261002284435747,6642984804647075.0,7.231013675815232e+16,6929408790140880.0,1.5227247138736928e+16,8417744759365.923,46087226650931.78,2594729554228783.5,4.086126149898833e+16
6.486222330124463,6671311007730413.0,7.425976168254605e+16,6958956335099717.0,1.5292177424804754e+16,8762573752299.744,47975276560468.31,2701440975652290.0,4.2579138088946136e+16
6.715946776726952,6698344962224930.0,7.624336897246104e+16,6987155913876320.0,1.5354145579943682e+16,9114465880152.814,49902004456960.76,2810355969381088.5,4.433435007669794e+16
6.950265712261491,6724154202279150.0,7.82618654332204e+16,7014077972461119.0,1.5413306407750076e+16,9473532341528.25,51868019263021.17,2921508939207080.5,4.612747635991843e+16
7.18927102650672,6748802263986071.0,8.031616243851526e+16,7039788786406871.0,1.5469805547375196e+16,9839888892795.244,53873954857327.12,3034935684427953.5,4.795911631256899e+16
7.433056447036854,6772348965293367.0,8.24071770251296e+16,7064350752807606.0,1.5523780115142632e+16,10213655784550.607,55920469727362.94,3150673382363876.0,4.982988968401021e+16
7.681717575977592,6794850661091689.0,8.453583291560709e+16,7087822656385467.0,1.5575359289268476e+16,10594957706446.322,58008246667944.15,3268760573330227.5,5.174043653115686e+16
7.935351927497144,6816360476316723.0,8.6703061478262e+16,7110259912643323.0,1.562466484418378e+16,10983923739862.709,60137992522676.64,3389237147908560.5,5.3691417180947016e+16
8.194058966047088,6836928519509485.0,8.890980263265334e+16,7131714790632999.0,1.5671811640062926e+16,11380687317971.744,62310437965857.766,3512144336378572.5,5.568351222078549e+16
8.45794014536803,6856602078949041.0,9.115700570755074e+16,7152236617544618.0,1.5716908072404172e+16,11785386192788.686,64526337322622.03,3637524700190763.0,5.771742251494675e+16
8.72709894827539,6875425803191931.0,9.344563025750086e+16,7171871967030176.0,1.5760056485866574e+16,12198162408856.316,66786468425382.66,3765422125373950.0,5.979386924520403e+16
9.0016409272409,6893441867614633.0,9.577664684332158e+16,7190664832926762.0,1.5801353556022806e+16,12619162283243.854,69091632504832.68,3895881817783863.5,6.19135939741854e+16
9.281673745785717,6910690128352525.0,9.815103778118554e+16,7208656789832822.0,1.5840890642221882e+16,13048536391575.646,71442654113944.69,4028950300109315.0,6.407735873016346e+16
9.567307220701432,6927208264855678.0,1.0056979786438474e+17,7225887141810485.0,1.5878754114359236e+16,13486439559831.854,73840381083561.05,4164675410561027.5,6.628594611215488e+16
9.85865336511546,6943031912133235.0,1.030339350613789e+17,7242393060331766.0,1.5915025656010348e+16,13933030861687.17,76285684508293.95,4303106303175695.0,6.8540159414357816e+16
10.155826432417769,6958194783630447.0,1.0554447119331426e+17,7258209712453727.0,1.5949782546092744e+16,14388473621173.674,78779458761566.64,4444293449674089.0,7.084082276908051e+16
10.458942961066125,6972728785572921.0,1.0810244259383552e+17,7273370380092723.0,1.598309792096844e+16,14852935420471.299,81322621538720.45,4588288642817419.0,7.31887813074248e+16
10.768121820287448,6986664123517416.0,1.1070890075370379e+17,7287906571169417.0,1.6015041018682478e+16,15326588112644.629,83916113927197.67,4735145001210875.0,7.558490133708378e+16
11.083484256693197,7000029401766897.0,1.133649129524643e+17,7301848123310144.0,1.6045677406844472e+16,15809607839158.03,86560900502881.66,4884916975507388.0,7.80300705366934e+16
11.405153941827061,7012851716236030.0,1.1607156287917133e+17,7315223300716489.0,1.607506919549715e+16,16302175052012.988,89257969451740.1,5037660355968103.0,8.052519816624987e+16
11.733257020663602,7025156741291785.0,1.1882995124397872e+17,7328058884750157.0,1.6103275236174524e+16,16804474540361.914,92008332715975.53,5193432281339430.0,8.307121529316645e+16
12.067922161076874,7036968811039560.0,1.2164119638222363e+17,7340380258723814.0,1.6130351308227892e+16,17316695461462.31,94813026163941.92,5352291249009207.0,8.566907503359782e+16
12.409280604298411,7048310995478391.0,1.2450643485248056e+17,7352211487339897.0,1.6156350293390682e+16,17839031375844.1,97673109783126.67,5514297126407099.0,8.831975280870549e+16
12.75746621638438,7059205171907412.0,1.2742682202992299e+17,7363575391175795.0,1.6181322339458084e+16,18371680286570.785,100589667895551.69,5679511163616897.0,9.102424661558269e+16
13.112615540712067,7069672091929493.0,1.3040353269621958e+17,7374493616576521.0,1.6205315013874408e+16,18914844682482.293,103563809394979.9,5847996007170276.0,9.378357731259147e+16
13.474867851526309,7079731444366098.0,1.3343776162707976e+17,7384986701282172.0,1.6228373447948072e+16,19468731585315.71,106596668005356.23,6019815714993806.0,9.659878891889898e+16
13.844365208556836,7089401914369300.0,1.3653072417847942e+17,7395074136088672.0,1.6250540472349564e+16,20033552600605.008,109689402559949.2,6195035772482801.0,9.947094892802853e+16
14.221252512727972,7098701238991654.0,1.3968365687251422e+17,7404774422813616.0,1.6271856744490116e+16,20609523972268.637,112843197300691.97,6373723109677468.0,1.024011486352684e+17
14.605677562982532,7107646259452883.0,1.4289781798375829e+17,7414105128816509.0,1.629236086832865e+16,21196866640799.934,116059262197258.12,6555946119518481.0,1.0539050347880366e+17
14.997791114242183,7116252970322260.0,1.4617448812694512e+17,7423082938301694.0,1.6312089507108872e+16,21795806304980.43,119338833285437.75,6741774677160810.0,1.0844015339446114e+17
15.397746936527026,7124536565818054.0,1.4951497084672992e+17,7431723700614105.0,1.6331077489487968e+16,22406573487042.574,122683173024413.42,6931280160326221.0,1.1155126318397221e+17
15.805701875257567,7132511483409675.0,1.5292059321024685e+17,7440042475721360.0,1.6349357909482512e+16,23029403601214.066,126093570672563.64,7124535470676351.0,1.147250228966834e+17
16.221815912762718,7140191444893835.0,1.5639270640313357e+17,7448053577060979.0,1.6366962220624364e+16,23664537025581.11,129571342681453.23,7321615056189974.0,1.1796264822465736e+17
16.64625223101797,7147589495103368.0,1.5993268632964666e+17,7455770611918186.0,1.6383920324689862e+16,24312219177213.113,133117833107699.14,7522594934529174.0,1.2126538091112112e+17
17.079177275638333,7154718038395664.0,1.6354193421747808e+17,7463206519487618.0,1.640026065533962e+16,24972700590497.113,136734414042425.98,7727552717380991.0,1.2463448917224136e+17
17.5207608211511,7161588873057308.0,1.67221877227829e+17,7470373606761338.0,1.6416010256981604e+16,25646236998634.867,140422486058058.72,7936567635762188.0,1.2807126813220981e+17
17.97117603757412,7168213223751785.0,1.709739690712893e+17,7477283582375606.0,1.6431194859148744e+16,26333089418260.324,144183478672219.4,8149720566276372.0,1.3157704027164648e+17
18.430599558325603,7174601772128675.0,1.7479969063004138e+17,7483947588539823.0,1.6445838946661946e+16,27033524237140.375,148018850828528.8,8367094058313731.0,1.351531558893315e+17
18.899211549492115,7180764685704543.0,1.787005505868792e+17,7490376231162633.0,1.6459965825831686e+16,27747813304926.49,151930091394133.8,8588772362185445.0,1.3880099357729598e+17
19.37719578048196,7186711645118574.0,1.8267808606153126e+17,7496579608282768.0,1.6473597686934068e+16,28476234026928.8,155918719673810.75,8814841458185548.0,1.4252196070930963e+17
19.864739696091597,7192451869859230.0,1.867338632547395e+17,7502567336904928.0,1.64867556631821e+16,29219069460889.562,159986285940513.1,9045389086574644.0,1.4631749394281725e+17
20.36203449001343,7197994142552118.0,1.908694781005513e+17,7508348578334860.0,1.649945988639906e+16,29976608416736.438,164134371982266.22,9280504778480934.0,1.501890597343854e+17
20.869275179813698,7203346831893350.0,1.9508655692725376e+17,7513932062101549.0,1.6511729539586862e+16,30749145559300.61,168364591665319.78,9520279887715222.0,1.541381548687321e+17
21.38666068340997,7208517914307671.0,1.9938675712737664e+17,7519326108549103.0,1.6523582906571366e+16,31536981513988.957,172678591513506.78,9764807623497724.0,1.5816630700142326e+17
21.91439389707817,7213514994405386.0,2.0377176783717955e+17,7524538650175790.0,1.6535037418894346e+16,32340422975402.93,177078051303768.12,1.0014183084095564e+16,1.622750752153294e+17
22.452681775019734,7218345324307877.0,2.0824331062602643e+17,7529577251792753.0,1.6546109700111954e+16,33159782818901.07,181564684677827.7,1.0268503291371096e+16,1.6646605059094586e+17
23.00173541052013,7223015821907060.0,2.1280314019604538e+17,7534449129570780.0,1.6556815607649518e+16,33995380215106.105,186140239770020.7,1.052786722624177e+16,1.707408567906913e+17
23.561770118730532,7227533088120283.0,2.1745304509247155e+17,7539161169039172.0,1.6567170272353658e+16,34847540747359.78,190806499851302.8,1.0792375865054282e+16,1.7510115065730557e+17
24.133005521105144,7231903423198375.0,2.2219484842504826e+17,7543719942096916.0,1.6577188135874062e+16,35716596532133.914,195565283989479.88,1.106213221687543e+16,1.7954862282648163e+17
24.715665631527248,7236132842141233.0,2.2703040860087862e+17,7548131723092954.0,1.6586882985999528e+16,36602886342408.05,200418447725720.9,1.1337241361704088e+16,1.8408499835387264e+17
25.309978944157795,7240227089272023.0,2.319616200691012e+17,7552402504028762.0,1.6596267990065278e+16,37506755734028.19,205367883767432.53,1.1617810489609278e+16,1.8871203735662426e+17
25.91617852304095,7244191652018007.0,2.369904140777611e+17,7556538008933439.0,1.660535572654187e+16,38428557175063.63,210415522697593.88,1.1903948940800192e+16,1.934315356695949e+17
26.53450209350177,7248031773943432.0,2.4211875944325405e+17,7560543707458379.0,1.6614158214909424e+16,39368650178182.41,215563333700662.2,1.2195768246634932e+16,1.982453255164291e+17
27.165192135371807,7251752467076811.0,2.473486633327114e+17,7564424827736198.0,1.66226869439146e+16,40327401436068.88,220813325305180.1,1.2493382171575702e+16,2.031552761956668e+17
27.808495978079243,7255358523572925.0,2.526821720596924e+17,7568186368545496.0,1.6630952898302624e+16,41305184959908.61,226167546143229.6,1.2796906756098858e+16,2.0816329478206912e+17
28.464665897640828,7258854526747164.0,2.5812137189355683e+17,7571833110820995.0,1.6638966584110422e+16,42302382220971.27,231628085726890.7,1.3106460360569282e+16,2.1327132684336086e+17
29.133959215593645,7262244861517859.0,2.6366838988288272e+17,7575369628546063.0,1.6646738052602868e+16,43319382295320.555,237197075241883.7,1.3422163710088838e+16,2.1848135717258973e+17
29.816638399905518,7265533724289977.0,2.6932539469329702e+17,7578800299062626.0,1.665427692292853e+16,44356582011687.96,242876688358578.4,1.374413994033015e+16,2.237954105363154e+17
30.51297116790363,7268725132311936.0,2.7509459746008925e+17,7582129312831351.0,1.6661592403567536e+16,45414386102544.72,248669142060577.7,1.4072514644367036e+16,2.2921555243884813e+17
31.223230591261704,7271822932534975.0,2.8097825265597738e+17,7585360682673071.0,1.6668693312639324e+16,46493207358412.32,254576697491089.94,1.4407415920514024e+16,2.347438899027665e+17
31.947695203086937,7274830810003382.0,2.8697865897439715e+17,7588498252520692.0,1.6675588097134914e+16,47593466785453.08,260601660817317.7,1.4748974421187968e+16,2.403825722659473e+17
32.686649107148675,7277752295801673.0,2.930981602286859e+17,7591545705709113.0,1.6682284851133796e+16,48715593766382.81,266746384113106.97,1.5097323402805482e+16,2.4613379199535648e+17
33.44038208929165,7280590774583838.0,2.993391462675407e+17,7594506572829040.0,1.6688791333062528e+16,49860026224754.29,273013266260109.75,1.545259877673061e+16,2.519997855178499e+17
34.20918973107749,7283349491707865.0,3.057040539071204e+17,7597384239169177.0,1.6695114982048808e+16,51027210792657.25,279404753867726.6,1.5814939161287778e+16,2.5798283406824614e+17
34.993373525699035,7286031559997770.0,3.1219536788017946e+17,7600181951769768.0,1.670126293342155e+16,52217602981885.86,285923342212107.3,1.618448593485575e+16,2.640852645549408e+17
35.793240996213015,7288639966153804.0,3.188156218026132e+17,7602902826109251.0,1.6707242033404602e+16,53431667358626.945,292571576194497.25,1.6561383290058898e+16,2.703094504433334e+17
36.60910581613728,7291177576830579.0,3.255673991577967e+17,7605549852444359.0,1.67130588530491e+16,54669877721722.36,299352051319233.3,1.6945778289072818e+16,2.7665781265735904e+17
37.44128793246003,7293647144401395.0,3.3245333429911834e+17,7608125901823101.0,1.6718719701446808e+16,55932717284561.84,306267414691698.6,1.7337820920061762e+16,2.831328204994089e+17
38.29011369110923,7296051312426418.0,3.394761134710864e+17,7610633731788613.0,1.672423063826423e+16,57220678860665.34,313320366036560.2,1.773766415476627e+16,2.897369925889439e+17
39.15591596493141,7298392620840902.0,3.466384758494233e+17,7613075991791169.0,1.6729597485635438e+16,58534265053015.09,320513658736621.94,1.81454640072595e+16,2.964728978201063e+17
