t(s),Total solute volume 1,Total retention volume 1,Total 1 volume 1,Total 2 volume 1,Total 3 volume 1,Total 4 volume 1,Total 5 volume 1,Total 6 volume 1
0.1,1277535415264620.8,2216485712870468.2,368078767489456.25,570871530116391.1,0.0,0.0,0.0,3.710125213445117e-74
0.202,1863026047241778.8,3406788061446565.5,536768170081747.94,832500329166293.6,48646911707.46065,156217790803.04593,4879016590421.698,169409633663813.16
0.30604000000000003,2270363047277015.0,4369896635843929.5,654128601253072.0,1014520445819113.4,119750659245.0401,384553248670.2385,12013700437873.66,418366537148938.75
0.41216080000000005,2585630009074712.0,5230480288517082.0,744962153084597.8,1155398707920689.2,206619092688.74463,663515224229.3639,20731151323846.26,722888132796321.4
0.5204040160000001,2842464346927808.5,6034729965498957.0,818960313377667.8,1270166126713545.0,305901832303.2102,982344745870.5013,30694989287115.55,1071155942614645.0
0.6308120963200001,3058193546816850.0,6805276978121393.0,881115413367637.1,1366565556495458.0,415547175591.3904,1334453326530.978,41699269599244.67,1455953191340086.5
0.7434283382464002,3243172839652748.5,7555071821396954.0,934410963888359.5,1449224272089954.0,534169479637.72565,1715391395540.0437,53604913835421.6,1872409271055293.0
0.8582969050113283,3404188728946564.5,8292304189194724.0,980802267223210.5,1521174848655615.8,660778369269.8077,2121978700890.2014,66312518304575.586,2317043068994589.5
0.9754628431115548,3545976458080660.5,9022533016790958.0,1021653624173036.2,1584533247858063.5,794640071842.0902,2551859014994.4375,79748433868356.33,2787274753724026.5
1.094972099973786,3671992837214701.5,9749739254410402.0,1057960998088292.4,1640844158566321.5,935197830340.5824,3003244559234.6475,93856777589986.12,3281146040561525.0
1.2168715419732616,3784848974727462.5,1.0476897923674306e+16,1090476691851883.2,1691274364566013.0,1082022480047.9313,3474757292526.334,108594472377041.11,3797146640379337.0
1.3412089728127268,3886570423603120.5,1.1206311975140618e+16,1119784300293641.9,1736728991972186.2,1234779941395.072,3965324522515.065,123927984560174.05,4334100170247582.5
1.4680331522689813,3978762453558816.0,1.193981833059753e+16,1146346327784163.5,1777925361713516.8,1393208885759.6748,4474107184885.45,139831082483961.12,4891085788986427.0
1.597393815314361,4062719782419151.5,1.2678920897210872e+16,1170535803632313.0,1815442023417376.5,1557104857422.0618,5000448855120.33,156283243038506.2,5467382490990972.0
1.729341691620648,4139502099970317.5,1.3424879680515828e+16,1192658041738514.8,1849752503533082.8,1726308671510.5957,5543838491591.11,173268487315169.84,6062428400795636.0
1.863928525453061,4209987623910805.0,1.4178772372623886e+16,1212966070937048.8,1881249237013291.0,1900697743667.3972,6103882593169.755,190774510473943.62,6675790349951956.0
2.001207095962122,4274912045579329.5,1.494153806156089e+16,1231671855894958.0,1910260970361382.2,2080179488018.5752,6680283998706.358,208792019172569.03,7307140707065929.0
2.1412312378813647,4334897465872502.0,1.5714008971161856e+16,1248954634021558.5,1937065691756868.0,2264686209714.2954,7272825485961.475,227314218980766.72,7956239448834483.0
2.284055862638992,4390474296059730.5,1.649693397589746e+16,1264967225450129.0,1961900417518206.8,2454171099707.406,7881356910117.254,246336412408305.3,8622920096451265.0
2.4297369798917723,4442098103621273.0,1.7290996333488768e+16,1279840886598409.8,1984968719729917.2,2648605056837.282,8505784998986.369,265855679957129.38,9307078553526236.0
2.578331719489608,4490162754952427.5,1.809682727032904e+16,1293689096795875.0,2006446599110178.0,2847974140439.332,9146065173011.014,285870624450696.75,1.0008664155706452e+16
2.7298983538794,4535010798590650.0,1.891501653903602e+16,1306610549860692.5,2026487124795536.5,3052277510020.4634,9802194929366.805,306381164244343.94,1.0727672429105418e+16
2.884496320956988,4576941760778682.0,1.9746120729972036e+16,1318691544186659.2,2045224141245033.0,3261525745706.259,10474208448834.977,327388364650027.7,1.1464139184917098e+16
3.0421862473761276,4616218840104470.0,2.059066989275914e+16,1330007911578077.8,2062775259765633.5,3475739469565.1943,11162172168881.441,348894299557939.25,1.2218135670114576e+16
3.2030299723236504,4653074359455158.0,2.144917286969203e+16,1340626588046563.0,2079244294738764.5,3694948206985.314,11866181127620.697,370901937151145.5,1.2989764560965784e+16
3.3670905717701234,4687714242704323.0,2.2322121635851732e+16,1350606903617581.8,2094723264045084.8,3919189441261.869,12586355928245.348,393415045012572.7,1.3779156635102678e+16
3.5344323832055258,4720321718331212.0,2.32099948650771e+16,1360001649403537.5,2109294044040989.2,4148507824946.99,13322840206875.062,416438110966510.44,1.4586467994303024e+16
3.7051210308696363,4751060404649937.0,2.411326088672169e+16,1368857966508588.5,2123029748205050.8,4382954519330.62,14075798511885.373,439976276781406.8,1.5411877737545496e+16
3.879223451487029,4780076896238997.0,2.5032380158718492e+16,1377218091221130.5,2135995882893978.2,4622586639369.379,14845414521875.023,464035282457469.56,1.6255586004745696e+16
4.0568079205167695,4807502944940395.0,2.5967807353477516e+16,1385119983395210.2,2148251321930438.8,4867466785949.538,15631889544104.488,488621419281232.7,1.7117812327600156e+16
4.237944078927105,4833457308982251.0,2.6919993131559148e+16,1392597859212889.8,2159849132890616.8,5117662650914.411,16435441246619.479,513741490184825.44,1.799879423639103e+16
4.422702960505647,4858047328651171.0,2.788938566183087e+16,1399682645161121.5,2170837281199402.2,5373246683058.203,17256302586174.174,539402776225892.56,1.8898786081324036e+16
4.61115701971576,4881370275280710.0,2.887643193447594e+16,1406402366697345.2,2181259232931142.8,5634295805473.64,18094720901085.88,565613008223389.2,1.9818058034636816e+16
4.803380160110075,4903514511258153.0,2.9881578903767476e+16,1412782482466308.8,2191154473163056.0,5900891176375.737,18950957143725.08,592380342758603.2,2.075689524580123e+16
4.9994477633122765,4924560491644926.0,3.0905274490200896e+16,1418846172883291.8,2200558953553242.5,6173117986911.278,19825285231799.51,619713341889987.1,2.1715597127010756e+16
5.199436718578522,4944581632395069.0,3.194796846587913e+16,1424614590281930.0,2209505480307376.0,6451065290580.006,20717991501175.168,647620956042401.6,2.2694476750060604e+16
5.403425452950093,4963645065690390.0,3.301011324256037e+16,1430107076538656.2,2218024051703198.2,6734825859796.108,21629374245877.215,676112509621996.6,2.3693860338900452e+16
5.611493962009095,4981812299337833.0,3.409216457823741e+16,1435341353055782.8,2226142152744693.2,7024496065854.515,22559743333275.83,705197688981795.0,2.471408684471817e+16
5.823723841249277,4999139794292882.0,3.519458221529357e+16,1440333687155431.5,2233885013230715.2,7320175779167.367,23509419884391.12,734886532423316.6,2.5755507592527664e+16
6.040198318074262,5015679472039542.0,3.631783046101918e+16,1445099038263969.2,2241275834479662.8,7621968287130.479,24478736010841.484,765189421969318.2,2.681848598996872e+16
6.261002284435747,5031479161654522.0,3.746237871944967e+16,1449651186718497.2,2248335989101827.5,7929980227388.191,25468034601268.55,796117076683576.0,2.7903397290462604e+16
6.486222330124463,5046582994824983.0,3.862870198200883e+16,1454002847577890.5,2255085197514619.0,8244321534603.624,26477669151162.316,827680547347788.6,2.9010628404057776e+16
6.715946776726952,5061031755806436.0,3.9817281283235704e+16,1458165771451383.2,2261541684322592.0,8565105399123.631,27508003630914.062,859891212333892.1,3.0140577750291316e+16
6.950265712261491,5074863192246166.0,4.1028604126889656e+16,1462150834051860.2,2267722317210080.5,8892448236163.693,28559412387684.94,892760774533821.4,3.1293655148223852e+16
7.18927102650672,5088112291916113.0,4.226316488691382e+16,1465968115927120.0,2273642730600400.0,9226469664336.465,29632280077313.0,926301259228671.5,3.2470281739499828e+16
7.433056447036854,5100811529664166.0,4.3521465187069304e+16,1469626973610555.0,2279317436006940.0,9567292492514.07,30727001623017.918,960525012795934.9,3.367088994087617e+16
7.681717575977592,5112991088276495.0,4.480401426249399e+16,1473136103255201.2,2284759920726383.5,9915042714156.768,31843982198118.066,995444702167682.1,3.4895923423155932e+16
7.935351927497144,5124679056426125.0,4.611132930597574e+16,1476503597665947.8,2289982736292784.5,10269849508358.447,32983637230355.88,1031073314964610.5,3.6145837113887624e+16
8.194058966047088,5135901606446013.0,4.744393580134389e+16,1479736997518858.8,2294997577916150.0,10631845246963.178,34146392425759.062,1067424160241061.8,3.742109722154904e+16
8.45794014536803,5146683154294992.0,4.880236784605246e+16,1482843337449960.5,2299815355963863.5,11001165507193.285,35332683810241.21,1104510869784930.9,3.8722181279241304e+16
8.72709894827539,5157046503770506.0,5.018716846475973e+16,1485829187605307.0,2304446260402690.0,11377949089303.818,36542957787386.98,1142347399923793.2,4.004957820618068e+16
9.0016409272409,5167012976754778.0,5.159888991546967e+16,1488700691166994.2,2308899818999757.0,11762338038842.67,37777671211071.61,1180948033795070.2,4.140378838550311e+16
9.281673745785717,5176602531051418.0,5.303809398960985e+16,1491463598303826.8,2313184949978361.5,12154477673150.605,39037291471743.055,1220327384043538.5,4.278532375708778e+16
9.567307220701432,5185833867174018.0,5.450535230724936e+16,1494123296938848.8,2317310009736818.5,12554516611783.0,40322296595344.875,1260500395914327.5,4.419470792427821e+16
9.85865336511546,5194724525278994.0,5.600124660851698e+16,1496684840677278.0,2321282836163293.5,12962606810576.094,41633175353994.04,1301482350713606.5,4.563247627351932e+16
10.155826432417769,5203290973289812.0,5.752636904216053e+16,1499152974196530.5,2325110788014470.5,13378903599116.973,42970427387640.56,1343288869612845.0,4.709917610606013e+16
10.458942961066125,5211548687134066.0,5.9081322452078824e+16,1501532156363828.8,2328800780769772.0,13803565721406.725,44334563336036.19,1385935917775604.5,4.859536678097805e+16
10.768121820287448,5219512223905866.0,6.0666720662572696e+16,1503826581315491.0,2332359319324277.0,14236755379534.082,45726104980426.41,1429439808788535.0,5.012161986887852e+16
11.083484256693197,5227195288671509.0,6.228318876297962e+16,1506040197704711.0,2335792527841107.5,14678638280200.277,47145585394457.914,1473817209380699.2,5.167851931570683e+16
11.405153941827061,5234610795554254.0,6.393136339228994e+16,1508176726301101.0,2339106177047357.0,15129383683956.652,48593549103858.14,1519085144417366.2,5.3266661616182056e+16
11.733257020663602,5241770923661939.0,6.5611893024289064e+16,1510239676104345.0,2342305709225621.0,15589164457034.793,50070552254503.99,1565261002156313.5,5.488665599642935e+16
12.067922161076874,5248687168358705.0,6.732543825371078e+16,1512232359116397.5,2345396261124908.0,16058157125665.373,51577162788548.586,1612362539756237.2,5.653912460544029e+16
12.409280604298411,5255370388326836.0,6.907267208385414e+16,1514157903900807.2,2348382684990461.0,16536541932795.422,53113960628318.95,1660407889028372.5,5.822470271504655e+16
12.75746621638438,5261830848816721.0,7.085428021606926e+16,1516019268043703.5,2351269567890136.0,17024502897127.227,54681537867740.555,1709415562423627.5,5.99440389281302e+16
13.112615540712067,5268078261440274.0,7.267096134148838e+16,1517819249618928.5,2354061249496246.0,17522227874412.498,56280498971077.93,1759404459248677.5,6.169779539483887e+16
13.474867851526309,5274121820825725.0,7.452342743535133e+16,1519560497748917.0,2356761838464921.5,18029908620945.344,57911460978815.72,1810393872105479.8,6.348664803660658e+16
13.844365208556836,5279970238418998.0,7.641240405424346e+16,1521245522343369.8,2359375227540374.0,18547740859206.992,59575053720527.36,1862403493549574.5,6.531128677781142e+16
14.221252512727972,5285631773687120.0,7.83386306365506e+16,1522876703089519.2,2361905107498265.5,19075924345622.645,61271920034612.445,1915453422963212.5,6.7172415784932264e+16
14.605677562982532,5291114262953799.0,8.030286080640824e+16,1524456297760092.5,2364354980031003.5,19614662940397.758,63002715994798.02,1969564173640314.0,6.9070753713087944e+16
14.997791114242183,5296425146073971.0,8.230586268141128e+16,1525986449898699.5,2366728169667333.0,20164164679407.945,64768111143324.89,2024756680080584.2,7.10070339598681e+16
15.397746936527026,5301571491133818.0,8.434841918433278e+16,1527469195936295.5,2369027834809695.0,20724641848121.69,66568788730757.43,2081052305490956.8,7.298200492638307e+16
15.805701875257567,5306560017344582.0,8.643132835908902e+16,1528906471787299.0,2371256977964379.0,21296311057541.18,68405445962369.766,2138472849492930.2,7.499643028548005e+16
16.221815912762718,5311397116282433.0,8.855540369117747e+16,1530300118969094.8,2373418455232644.5,21879393322149.586,70278794251080.5,2197040556034836.2,7.705108925708518e+16
16.64625223101797,5316088871611955.0,9.072147443280149e+16,1531651890284722.5,2375514985124217.0,22474114139859.625,72189559476917.36,2256778121508514.0,7.914677689065531e+16
17.079177275638333,5320641077417908.0,9.293038593289277e+16,1532963455104566.0,2377549156748994.0,23080703573959.47,74138482253008.3,2317708703070357.0,8.128430435472374e+16
17.5207608211511,5325059255258746.0,9.518299997222795e+16,1534236404279712.5,2379523437437367.0,23699396337058.2,76126318198106.53,2379855927166825.5,8.346449923355003e+16
17.97117603757412,5329348670044293.0,9.7480195103838e+16,1535472254716599.0,2381440179835270.5,24330431877033.61,78153838215667.3,2443243898265130.5,8.568820583088389e+16
18.430599558325603,5333514344831257.0,9.982286699889494e+16,1536672453639835.0,2383301628515632.5,24974054464990.652,80221828779503.66,2507897207789833.5,8.79562854808738e+16
18.899211549492115,5337561074621591.0,1.022119287982637e+17,1537838382567740.0,2385109926144223.5,25630513285238.84,82331092226055.47,2573840943266588.0,9.026961686615197e+16
19.37719578048196,5341493439241293.0,1.0464831146989494e+17,1538971361022926.5,2386867119234562.0,26300062527302.42,84482447053321.08,2641100697674348.5,9.262909634314123e+16
19.864739696091597,5345315815370217.0,1.0713296417224174e+17,1540072649998278.8,2388575163523518.0,26982961479975.832,86676728226495.64,2709702579007742.5,9.503563827463552e+16
20.36203449001343,5349032387787668.0,1.0966685462386779e+17,1541143455197015.5,2390235928996437.5,27679474627443.215,88914787490384.97,2779673220051406.0,9.74901753697174e+16
20.869275179813698,5352647159892720.0,1.1225096947942238e+17,1542184930063742.8,2391851204588188.5,28389871747478.996,91197493688650.0,2851039788368386.5,9.999365903107312e+16
21.38666068340997,5356163963553272.0,1.148863147121533e+17,1543198178622137.5,2393422702584264.0,29114428011750.46,93525733089961.58,2923829996504827.0,1.0254705970978723e+17
21.91439389707817,5359586468333457.0,1.1757391600312296e+17,1544184258133521.8,2394952062744053.5,29853424088245.152,95900409721141.98,2998072112413415.5,1.0515136726768901e+17
22.452681775019734,5362918190144656.0,1.2031481913729666e+17,1545144181589340.0,2396440856166631.0,30607146245845.906,98322445707370.31,3073794970098195.0,1.0780759134734445e+17
23.00173541052013,5366162499361844.0,1.2311009040667115e+17,1546078920049632.5,2397890588917540.5,31375886461079.645,100792781619548.89,3151027980483508.0,1.1051676174977806e+17
23.561770118730532,5369322628443487.0,1.2596081702060846e+17,1546989404838436.5,2399302705433754.0,32159942527066.85,103312376828917.3,3229801142509929.5,1.132799288200268e+17
24.133005521105144,5372401679090051.0,1.2886810752353954e+17,1547876529606286.2,2400678591722581.0,32959618164699.12,105882209869015.33,3310145054460477.0,1.1609816384062629e+17
24.715665631527248,5375402628973854.0,1.3183309222020752e+17,1548741152269164.0,2402019578368779.0,33775223136075.473,108503278805096.31,3392090925520061.0,1.1897255943313451e+17
25.309978944157795,5378328338069503.0,1.348569236086147e+17,1549584096832443.8,2403326943363473.5,34607073360227.438,111176601611098.42,3475670587571748.5,1.2190422996780611e+17
25.91617852304095,5381181554612869.0,1.3794077682083936e+17,1550406155107722.0,2404601914766865.0,35455491031165.37,113903216554283.48,3560916507233150.5,1.2489431198153325e+17
26.53450209350177,5383964920713714.0,1.4108585007189363e+17,1551208088329959.5,2405845673216294.5,36320804738278.445,116684182587660.77,3647861798136750.0,1.2794396460417096e+17
27.165192135371807,5386680977645407.0,1.4429336511678653e+17,1551990628681480.2,2407059354289937.5,37203349589124.41,119520579750313.58,3736540233457679.0,1.310543699933725e+17
27.808495978079243,5389332170833344.0,1.4756456771596397e+17,1552754480729259.0,2408244050735945.0,38103467334641.93,122413509575751.16,3826986258693042.0,1.3422673377806187e+17
28.464665897640828,5391920854562061.0,1.509007281092969e+17,1553500322781094.0,2409400814575798.5,39021506496823.75,125364095508412.56,3919235004696561.5,1.3746228551067635e+17
29.133959215593645,5394449296419558.0,1.5430314149878864e+17,1554228808166105.5,2410530659090284.5,39957822498888.25,128373483328453.12,4013322300972751.5,1.407622791283124e+17
29.816638399905518,5396919681495934.0,1.577731285401699e+17,1554940566444407.2,2411634560695681.0,40912777797986.24,131442841584948.88,4109284689234836.5,1.441279934229161e+17
30.51297116790363,5399334116352167.0,1.613120358435681e+17,1555636204550606.2,2412713460717203.0,41886742020483.66,134573362037651.61,4207159437230620.5,1.4756073252065936e+17
31.223230591261704,5401694632773922.0,1.6492123648341293e+17,1556316307875312.5,2413768267066434.0,42880092099860.05,137766260107440.9,4306984552840820.5,1.510618263706486e+17
31.947695203086937,5404003191323809.0,1.6860213051776496e+17,1556981441288614.8,2414799855828649.5,43893212417264.33,141022775335611.78,4408798798454348.0,1.546326312431168e+17
32.686649107148675,5406261684704998.0,1.7235614551724614e+17,1557632150109197.5,2415809072765849.5,44926494944769.01,144344171852149.28,4512641705625238.0,1.5827453023724413e+17
33.44038208929165,5408471940947863.0,1.761847371037499e+17,1558268961022442.2,2416796734740749.0,45980339391367.31,147731738853140.2,4618553590015827.0,1.6198893379877837e+17
34.20918973107749,5410635726430627.0,1.8008938949911443e+17,1558892382950748.0,2417763631066530.0,47055153351755.516,151186791087470.47,4726575566631171.0,1.6577728024759658e+17
34.993373525699035,5412754748744250.0,1.840716160839544e+17,1559502907878943.8,2418710524787095.5,48151352457946.01,154710669352976.66,4836749565349512.0,1.696410363153837e+17
35.793240996213015,5414830659411063.0,1.8813295996681795e+17,1560101011637568.5,2419638153891819.0,49269360533756.55,158304741002196.53,4949118346753908.0,1.735816976935876e+17
36.60910581613728,5416865056465953.0,1.922749945638815e+17,1560687154646556.5,2420547232468997.5,50409609752221.98,161970400457897.62,5063725518270208.0,1.7760078959181952e+17
37.44128793246003,5418859486908353.0,1.964993241893572e+17,1561261782621699.8,2421438451801553.0,51572540795975.15,165709069738538.4,5180615550616451.0,1.8169986730687437e+17
38.29011369110923,5420815449032897.0,2.0080758465681373e+17,1561825327246134.0,2422312481408452.0,52758603020645.055,169522198993839.56,5299833794569248.0,1.8588051680254243e+17
39.15591596493141,5422734394645594.0,2.052014438916048e+17,1562378206808875.0,2423169970035055.5,53968254621321.445,173411267050632.6,5421426498052380.0,1.9014435530039114e+17
40.03903428423004,5424617731172690.0,2.0968260255460534e+17,1562920826812382.8,2424011546595411.0,55201962802134.805,177377781969167.38,5545440823553317.0,1.9449303188169984e+17
40.93981496991464,5426466823667935.0,2.1425279467744797e+17,1563453580550939.8,2424837821069285.5,56460203949002.05,181423281610053.2,5671924865873152.0,1.9892822810072723e+17
41.85861126931294,5428282996724720.0,2.189137883094783e+17,1563976849661517.5,2425649385356562.5,57743463805588.48,185549334212016.8,5800927670215838.0,2.034516586095023e+17
