t(s),Total solute volume 1,Total retention volume 1,Total 1 volume 1,Total 2 volume 1,Total 3 volume 1,Total 4 volume 1,Total 5 volume 1,Total 6 volume 1
0.1,821307387244814.4,914309965951331.9,46537842289353.97,46464736417161.86,0.0,0.0,0.0,0.0
0.202,1237549845759182.0,1377756724992045.0,70123440385995.0,70013284278923.68,194577693.78624174,317339421.17077744,3599758428.5479536,66042892400.802185
0.30604000000000003,1554495424519559.5,1730700192801639.0,88082567030612.81,87944199158071.94,493696257.03473777,805176116.9678074,9133570782.503107,167569650235.02603
0.41216080000000005,1822554266623317.8,2029251453871361.0,103271618448412.73,103109390278741.86,876932397.9725735,1430201499.2173316,16223595150.200432,297647791842.24445
0.5204040160000001,2060586892227241.5,2294403473192088.5,116759290635478.92,116575874842455.78,1335221372.4225614,2177631799.7684784,24702130248.22155,453200503490.96515
0.6308120963200001,2277988410438227.0,2536613482267813.5,129077939825125.28,128875172812136.31,1863699016.830845,3039534035.127419,34479187519.78286,632576771753.9955
0.7434283382464002,2480218872929412.5,2761958810535493.5,140536949602741.53,140316181766729.22,2459582388.6019316,4011369514.3231864,45503281921.401634,834832002782.4207
0.8582969050113283,2670775851733654.0,2974332518496289.0,151334503326311.8,151096773740555.88,3121299112.0283666,5090573877.92678,57745324432.317184,1059432498338.8899
0.9754628431115548,2852055962820935.5,3176402323181711.5,161606400743830.5,161352535155499.16,3848058428.041357,6275857517.731803,71190686292.54414,1306109859204.962
1.094972099973786,3025784832466565.0,3370089167077313.0,171450421230978.53,171181091786827.75,4639613649.64738,7566818162.485277,85834804331.18292,1574780356802.7856
1.2168715419732616,3193253129328682.0,3556829926356081.5,180939698106020.1,180655462068569.06,5496119425.268512,8963708087.064085,101680540281.77716,1865496485016.4727
1.3412089728127268,3355455769565796.0,3737732346364166.5,190130606426644.25,189831932499517.1,6418040671.682805,10467285590.273214,118736496007.11456,2178416049936.3564
1.4680331522689813,3513178751770049.0,3913671687579307.5,199067683328565.2,198754970252534.78,7406091771.004483,12078715830.659988,137015888621.42259,2513781531939.102
1.597393815314361,3667055823716113.5,4085353793985973.5,207786838940541.28,207460429045590.16,8461194524.671006,13799502253.377605,156535772624.99625,2871905814335.229
1.729341691620648,3817606860418595.0,4253357806185444.5,216317531005004.56,215977720346296.84,9584448275.828983,15631437862.653418,177316487159.28537,3253162042252.7256
1.863928525453061,3965264676934210.5,4418166002589062.5,224684284175193.6,224331330282409.56,10777108230.0498,17576569865.026222,199381254934.5245,3657976264221.7085
2.001207095962122,4110394263002333.0,4580185206376088.0,232907779909978.78,232541907824539.28,12040569478.9998,19637173613.615505,222755886664.453,4086822009472.0815
2.1412312378813647,4253306898562407.5,4739762495730009.0,241005656304838.5,240627063364418.5,13376355103.417822,21815733231.250496,247468566215.67004,4540216843790.036
2.284055862638992,4394270722665599.0,4897196963907961.0,248993106952659.75,248601966619823.44,14786107255.568705,24114926963.7785,273549664686.05576,5018716970976.598
2.4297369798917723,4533518779193204.0,5052748677257682.0,256883336849566.16,256479801847278.28,16271580491.898878,26537616461.15318,301031648434.432,5522918522242.126
2.578331719489608,4671255245089531.0,5206645604507863.0,264687915299073.2,264272120176212.9,17834636796.26806,29086838558.10912,329948966120.8275,6053453501570.383
2.7298983538794,4807660312578118.0,5359089051122640.0,272417052555489.2,271989115821764.06,19477241935.26334,31765799356.0526,360337986500.6544,6610989139482.118
2.884496320956988,4942894065929591.0,5510257974126395.0,280079819493693.94,279639845409478.84,21201462857.925606,34577869982.5941,392236950322.8599,7196227010475.733
3.0421862473761276,5077099593950832.0,5660312446407503.0,287684323972497.4,287232404061623.56,23009465934.264812,37526583719.08936,425685937746.2067,7809902435166.306
3.2030299723236504,5210405514224186.0,5809396466406549.0,295237853865918.9,294774068203783.1,24903515876.511887,40615634241.683754,460726848386.68823,8452784114162.025
3.3670905717701234,5342928039196297.0,5957640257977603.0,302746994134234.94,302271412451991.06,26885975224.08683,43848874781.746414,497403391794.1508,9125673953280.314
3.5344323832055258,5474772681569643.0,6105162168878173.0,310217723456791.0,309730406093759.0,28959304300.517506,47230318056.038475,535761086660.45734,9829407048955.951
3.7051210308696363,5606035672897736.0,6252070250131063.0,317655494614038.9,317156493343827.7,31126061570.881004,50764136850.117386,575847267437.7383,10564851809597.129
3.879223451487029,5736805152058874.0,6398463579330750.0,325065301830169.25,324554660581018.9,33388904343.701653,54454665163.54613,617711097329.5121,11332910193859.834
4.0568079205167695,5867162167525959.0,6544433376768824.0,332451737564855.2,331929493050763.8,35750589772.984566,58306399844.61983,661403586834.7345,12134518050796.092
4.237944078927105,5997181527792545.0,6690063952616680.0,339819040701043.6,339285222977197.7,38213976125.132576,62324002657.119965,706977617192.5967,12970645549912.168
4.422702960505647,6126932527076685.0,6835433515348291.0,347171137665605.5,346625770619215.2,40782024282.57194,66512302733.1487,754487968206.8755,13842297691572.39
4.61115701971576,6256479567889037.0,6980614865425686.0,354511677705991.9,353954779491703.94,43457799461.4904,70876299375.18817,803991350031.7877,14750514890080.06
4.803380160110075,6385882697778400.0,7125675993513921.0,361844063303905.5,361275646731449.06,46244473125.51493,75421165177.75255,855546438583.1552,15696373623266.414
4.9994477633122765,6515198074240911.0,7270680598790842.0,369171476518513.44,368591549398959.25,49145325080.71099,80152249444.78816,909213914304.5061,16680987143626.861
5.199436718578522,6644478369167489.0,7415688540009608.0,376496901903705.75,375905467359722.3,52163745740.14872,85075081883.66104,965056504070.6246,17705506247014.44
5.403425452950093,6773773122139647.0,7560756229675046.0,383823146526933.5,383220203271600.75,55303238548.620026,90195376560.3646,1023139026054.3439,18771120095694.266
5.611493962009095,6903129050238229.0,7705936979863435.0,391152857523941.1,390538400111982.5,58567422559.99618,95519036103.71562,1083528437417.7639,19879057093210.97
5.823723841249277,7032590320710985.0,7851281306748743.0,398488537548965.75,397862556603718.94,61960035161.308846,101052156148.87454,1146293884718.326,21030585809059.523
6.040198318074262,7162198791781432.0,7996837199713302.0,405832558419720.2,405195040838657.75,65484934938.94168,106801030012.68056,1211506756944.4958,22227015951595.04
6.261002284435747,7291994226016741.0,8142650359960348.0,413187173207476.0,412538102348749.06,69146104683.42958,112772153595.08694,1279240741116.2844,23469699387992.348
6.486222330124463,7422014479967986.0,8288764412761263.0,420554526982684.56,419893882834779.25,72947654530.29063,118972230502.49736,1349571880402.9636,24760031210381.285
6.715946776726952,7552295673217963.0,8435221096826705.0,427936666393744.4,427264425730089.6,76893825235.10814,125408177390.09781,1422578634725.001,26099450847552.492
6.950265712261491,7682872339493695.0,8582060433759615.0,435335548229511.9,434651684749640.8,80988991581.75291,132087129521.3835,1498341943819.7961,27489443221858.945
7.18927102650672,7813777562106308.0,8729320880108826.0,442753047093749.75,442057531552403.9,85237665923.22607,139016446544.02615,1576945292761.582,28931539951134.86
7.433056447036854,7945043095651344.0,8877039464174742.0,450190962301044.5,449483762626440.25,89644501855.10474,146203718482.06207,1658474779935.1191,30427320595626.98
7.681717575977592,8076699475627587.0,9025251909413752.0,457651024088149.06,456932105490496.25,94214298022.01665,153656771945.0945,1743019187471.3037,31978413950084.008
7.935351927497144,8208776117400946.0,9173992746029394.0,465134899221590.4,464404224292795.5,98952002057.9638,161383676555.85544,1830670054159.6575,33586499381281.043
8.194058966047088,8341301405746194.0,9323295412122852.0,472644196071382.6,471901724876781.75,103862714661.65706,169392751598.02103,1921521750859.4167,35253308211375.4
8.45794014536803,8474302776033493.0,9473192345591714.0,480180469211308.0,479426159374176.25,108951693808.34074,177692572886.69583,2015671558436.5266,36980625147594.34
8.72709894827539,8607806787987269.0,9623715067809466.0,487745223598326.1,486979030377819.2,114224359099.85916,186291979864.4295,2113219748259.0269,38770289758851.39
9.0016409272409,8741839192825886.0,9774894259987276.0,495339918376914.56,494561794740037.3,119686296254.9781,195200082926.05292,2214269665288.0796,40624197999973.27
9.281673745785717,8876424994488215.0,9926759833003888.0,502965970348365.2,502175867036483.4,125343261742.2029,204426270975.98404,2318927813806.2217,42544303784299.5
9.567307220701432,9011588505566186.0,1.0079340991394846e+16,510624757140089.3,509822622730471.4,131201187557.54938,213980219222.03143,2427303945828.293,44532620605488.12
9.85865336511546,9147353398486878.0,1.0232666292106198e+16,518317620105758.2,517503401068558.44,137266186149.93002,223871897210.0217,2539511152244.267,46591223209432.375
10.155826432417769,9283742752423190.0,1.0386763698547642e+16,526045866983407.9,525219507734468.3,143544555496.9952,234111577103.90054,2655665956746.754,48722249317250.81
10.458942961066125,9420779096355460.0,1.054166063041572e+16,533810774335447.25,532972217285273.56,150042784334.4504,244709842216.23492,2775888412598.98,50927901400379.984
10.768121820287448,9558484448658468.0,1.0697384009705706e+16,541613589791776.06,540762775390985.94,156767557542.04504,255677595794.32605,2900302202302.37,53210448508848.21
11.083484256693197,9696880353544796.0,1.0853960303281766e+16,549455534114784.5,548592400896316.7,163725761689.56537,267026070067.3889,3029034740225.6914,55572228153871.88
11.405153941827061,9835987914659978.0,1.101141556233474e+16,557337803102956.5,556462287721281.94,170924490746.34747,278766835560.5183,3162217278260.5596,58015648245956.21
11.733257020663602,9975827826090958.0,1.1169775459021346e+16,565261569347909.2,564373606615491.2,178371051957.9442,290911810681.3913,3299985014570.852,60543189089745.375
12.067922161076874,1.0116420401022876e+16,1.1329065320546312e+16,573227983858166.9,572327506779363.9,186072971893.74728,303473271585.89886,3442477205506.2705,63157405436903.75
12.409280604298411,1.0257785598252238e+16,1.1489310160921944e+16,581238177561493.6,580325117364103.1,194038002669.48685,316463862329.1085,3589837280752.7256,65860928598365.83
12.75746621638438,1.0399943046744966e+16,1.165053471061521e+16,589293262696423.6,588367548861036.1,202274128348.675,329896605308.221,3742212961794.9243,68656468617332.82
13.112615540712067,1.0542912068406428e+16,1.1812763444270448e+16,597394334102472.6,596455894389813.9,210789571527.1987,343784912004.3399,3899756383768.872,71546816504442.8
13.474867851526309,1.0686711699214862e+16,1.1976020606678002e+16,605542470417639.8,604591230894012.6,219592800105.3783,358142594030.1513,4062624220784.531,74534846536583.81
13.844365208556836,1.0831360708853782e+16,1.2140330237140828e+16,613738735190828.6,612774620251824.0,228692534251.9669,372983874490.7857,4230977814801.01,77623518620863.0
14.221252512727972,1.0976877618966022e+16,1.2305716192377618e+16,621984177916184.2,621007110308749.8,238097753564.66064,388323399665.3306,4404983308139.543,80815880725290.7
14.605677562982532,1.1123280720139404e+16,1.2472202168086474e+16,630279834995550.9,629289735838570.9,247817704431.84354,404176251016.71075,4584811779721.229,84115071377774.83
14.997791114242183,1.127058808772415e+16,1.2639811719282418e+16,638626730634745.6,637623519438181.1,257861907600.39542,420557957537.8282,4770639385119.207,87524322235072.3
15.397746936527026,1.1418817596572194e+16,1.2808568279510672e+16,647025877678714.4,646009472361471.2,268240165954.5243,437484508442.0299,4962647500517.108,91046960723376.78
15.805701875257567,1.1567986934779662e+16,1.2978495179028344e+16,655478278390246.2,654448595296780.8,278962572510.69836,454972366206.2324,5161022870667.853,94686412752268.12
16.221815912762718,1.1718113616506746e+16,1.3149615662038626e+16,663984925176369.1,662941879092174.9,290039518633.87933,473038479975.15796,5365957760948.928,98446205503786.03
16.64625223101797,1.1869214993941588e+16,1.332195290305403e+16,672546801266272.8,671490305432305.0,301481702480.3658,491700299335.37366,5577650113612.701,102329970298433.66
17.079177275638333,1.2021308268468768e+16,1.3495530022457606e+16,681164881344147.2,680094847470240.6,313300137672.6678,510975788467.9881,5796303708332.15,106341445539949.83
17.5207608211511,1.2174410501096942e+16,1.3670370101325158e+16,689840132140036.2,688756470417395.6,325506162211.9494,530883440689.0195,6022128327144.351,110484479740725.77
17.97117603757412,1.2328538622194406e+16,1.384649619556494e+16,698573512981501.0,697476132094337.9,338111447633.6588,551442293386.653,6255339923896.176,114763034629781.88
18.430599558325603,1.2483709440577166e+16,1.4023931349425986e+16,707365976308567.8,706254783444912.4,351128008412.0917,572671943364.7152,6496160798298.342,119181188345241.33
18.899211549492115,1.2639939651988498e+16,1.4202698608420878e+16,716218468154205.5,715093369015976.8,364568211619.658,594592562601.8685,6744819774694.808,123743138713275.28
19.37719578048196,1.2797245847004168e+16,1.4382821031703514e+16,725131928592266.1,723992827404628.5,378444786846.7688,617224914436.0887,7001552385657.212,128453206615511.89
19.864739696091597,1.295564451839393e+16,1.4564321703937242e+16,734107292154608.5,732954091674677.9,392770836388.24176,640590370184.1532,7266601060513.405,133315839446921.03
20.36203449001343,1.3115152067964468e+16,1.474722374668414e+16,743145488218835.0,741978089743776.0,407559845702.20325,664710926205.8414,7540215318921.2,138335614666199.34
20.869275179813698,1.3275784812904616e+16,1.4931550329340712e+16,752247441367837.9,751065744742393.1,422825694147.4561,689609221422.6276,7822651969597.552,143517243440682.03
21.38666068340997,1.3437558991649394e+16,1.5117324679640474e+16,761414071722073.0,760217975345575.6,438582666005.27106,715308555300.5933,8114175314313.819,148865574387801.78
21.91439389707817,1.3600490769274494e+16,1.5304570093738302e+16,770646295245227.6,769435696078127.6,454845461791.49335,741832906307.1726,8415057357266.254,154385597415097.4
22.452681775019734,1.3764596242427144e+16,1.549330994588572e+16,779945024023615.2,778719817593569.4,471629209864.7751,769206950851.2434,8725578019929.263,160082447660735.5
23.00173541052013,1.3929891443794804e+16,1.5683567697700158e+16,789311166519391.4,788071246926953.2,488949478336.57733,797456082715.7805,9046025361496.377,165961409536475.0
23.561770118730532,1.4096392346106838e+16,1.5875366907025558e+16,798745627797293.0,797490887721255.4,506822287288.40173,826606432991.9836,9376695805009.76,172027920874909.7
24.133005521105144,1.4264114865658554e+16,1.6068731236373484e+16,808249309724334.9,806979640426740.6,525264121301.427,856684890523.3662,9717894369274.59,178287577182756.7
24.715665631527248,1.443307486534022e+16,1.626368446092761e+16,817823111141426.1,816538402472330.6,544291942303.38403,887719122867.6625,10069934906647.678,184746136001828.4
25.309978944157795,1.460328815714664e+16,1.64602504760863e+16,827467928005586.6,826168068407582.9,563923202737.0566,919737597783.8052,10433140346782.006,191409521379173.56
25.91617852304095,1.4774770504136104e+16,1.6658453304508914e+16,837184653500931.2,835869530013494.9,584175859054.2937,952769605250.2489,10807842946399.06,198283828447706.9
26.53450209350177,1.4947537621798188e+16,1.6858317102623404e+16,846974178116188.5,845643676379925.0,605068385538.7317,986845280019.9515,11194384545148.74,205375328118416.88
27.165192135371807,1.5121605178783868e+16,1.7059866166542548e+16,856837389686059.1,855491393946863.2,626619788459.7194,1021995624716.057,11593116827602.82,212690471884989.8
27.808495978079243,1.5296988796939992e+16,1.7263124937326366e+16,866775173393180.5,865413566506393.8,648849620559.0035,1058252533470.851,12004401591411.44,220235896741385.78
28.464665897640828,1.547370405058358e+16,1.7468118005518372e+16,876788411726998.1,875411075161646.6,671777995870.7135,1095648816108.9517,12428611021632.885,228018430212547.72
29.133959215593645,1.565176646494098e+16,1.7674870114871782e+16,886877984395321.9,885484798238475.0,695425604874.0344,1134218222873.668,12866127971225.324,236045095498028.53
29.816638399905518,1.5831191513667434e+16,1.788340616517154e+16,897044768183780.9,895635611145145.8,719813729976.5455,1173995469693.3577,13317346247664.053,244323116727868.84
30.51297116790363,1.6011994615354148e+16,1.809375121404724e+16,907289636757911.0,905864386174721.8,744964261324.7743,1215016263982.1013,13782670905619.928,252859924329530.56
31.223230591261704,1.6194191128920342e+16,1.830593047766036e+16,917613460402031.2,916171992244363.6,770899712936.734,1257317330966.2754,14262518545603.334,261663160504132.38
31.947695203086937,1.6377796347778278e+16,1.8519969330139904e+16,928017105688640.4,926559294565236.1,797643239149.4385,1300936440525.56,14757317618444.45,270740684809599.25
32.686649107148675,1.656282549265226e+16,1.873589330162903e+16,938501435071505.8,937027154236240.2,825218651372.2673,1345912434533.5552,15267508735440.344,280100579847631.34
33.44038208929165,1.674929370292376e+16,1.895372807479779e+16,949067306395251.0,947576427754362.2,853650435134.8477,1392285254679.5896,15793544983961.213,289751157050647.75
34.20918973107749,1.6937216026368162e+16,1.917349947966648e+16,959715572313814.2,958207966434064.1,882963767415.7103,1440095970749.2993,16335892248260.502,299700962564048.25
34.993373525699035,1.7126607407143864e+16,1.939523348657848e+16,970447079609868.4,968922615727751.1,913184534235.3557,1489386809337.3315,16895029535187.826,309958783218231.06
35.793240996213015,1.7317482671888154e+16,1.9618956197154124e+16,981262668406970.6,979721214439169.5,944339348494.6349,1540201182961.1147,17471449304450.865,320533652583891.44
36.60910581613728,1.7509856513773548e+16,1.984469383305479e+16,992163171266141.5,990604593821411.9,976455568036.3981,1592583719539.7214,18065657803019.63,331434857103128.75
37.44128793246003,1.770374347437456e+16,2.00724727223811e+16,1003149412158390.2,1001573576551040.9,1009561313905.3164,1646580292196.9731,18678175403208.824,342671942287838.4
38.29011369110923,1.7899157923197738e+16,2.030231928353036e+16,1014222205304810.4,1012628975570010.6,1043685488777.5382,1702238049342.622,19309536943915.4,354254718975782.1
39.15591596493141,1.8096114034728024e+16,2.0534260006339656e+16,1025382353875958.2,1023771592787104.5,1078857795528.6227,1759605444980.1287,19960292074426.332,366193269633617.7
40.03903428423004,1.829462576285082e+16,2.0768321430344424e+16,1036630648542529.1,1035002217630861.9,1115108755904.671,1818732269183.9492,20631005600150.434,378497954695001.1
40.93981496991464,1.8494706812514744e+16,2.1004530119989124e+16,1047967865869688.0,1046321625446448.2,1152469729258.1958,1879669678683.6216,21322257829561.367,391179418920704.75
41.85861126931294,1.869637060851043e+16,2.1242912636634576e+16,1059394766547953.6,1057730575729319.1,1190972931306.7573,1942470227486.1853,22034644921576.918,404248597766507.1
42.7957834946992,1.8899630261249876e+16,2.1483495507219584e+16,1070912093454186.6,1069229810189246.1,1230651452868.8298,2007187897462.8337,22768779232532.88,417716723743414.0
43.751699164593184,1.910449852944804e+16,2.172630518944687e+16,1082520569536979.0,1080820050639030.8,1271539278527.9202,2073878128819.9028,23525289661845.184,431595332753587.75
44.72673314788505,1.9310987779620564e+16,2.1971368033380476e+16,1094220895521682.2,1092501996703134.6,1313671305172.5107,2142597850368.71,24304821995391.67,445896270384194.9
