t(s),Total solute volume 1,Total retention volume 1,Total 1 volume 1,Total 2 volume 1,Total 3 volume 1,Total 4 volume 1,Total 5 volume 1,Total 6 volume 1
0.1,919935341976466.9,1072551036543860.6,72903600131805.52,79712094435588.67,0.0,0.0,0.0,0.0
0.202,1385961987715893.2,1615943437271560.2,109835565758365.75,120093150651380.17,90514540.98670298,169767030.40060887,2374910090.0853033,50097954262.13563
0.30604000000000003,1740881464871120.5,2029824512696416.0,137962442219425.9,150846806781600.75,229656282.83791956,430738213.0031977,6025712960.140135,127112716813.61981
0.41216080000000005,2041076183551130.8,2379924885383677.0,161752457438251.75,176858580523700.5,407930054.55292994,765104597.3831779,10703266577.065794,225787569365.31546
0.5204040160000001,2307657510756426.0,2690855806536286.5,182878657986603.66,199957764927107.66,621121663.2664092,1164962139.458636,16296997805.311014,343789784538.022
0.6308120963200001,2551143436595994.5,2974878865650401.0,202174579998869.25,221055740386859.9,866970469.4893851,1626070838.8068283,22747591610.109882,479868035765.0139
0.7434283382464002,2777647003533305.5,3239120495310625.0,220124673614835.97,240682200026363.34,1144183830.1970065,2146006248.4756873,30021131482.912746,633306814558.193
0.8582969050113283,2991084236439057.0,3488145957138520.0,237039278375949.62,259176466114906.5,1452032200.2706087,2723400055.934083,38098475583.314255,803702300768.2083
0.9754628431115548,3194138570538306.0,3725083650454314.5,253131052803153.94,276771057433423.75,1790149647.6872153,3357565933.716434,46970022610.06077,990851941235.8752
1.094972099973786,3388742205784749.0,3952186258153129.0,268553121063711.25,293633398473195.1,2158423384.735533,4048292346.614288,56632813300.396126,1194693302442.6443
1.2168715419732616,3576340359069226.5,4171138799228735.0,283420014592359.2,309888716803016.7,2556927391.8630266,4795718058.050164,67088788842.042404,1415267329840.3577
1.3412089728127268,3758047116899993.0,4383240312474193.5,297820023200135.94,325633547652789.6,2985880072.00726,5600252707.503701,78343679801.72594,1652694908694.5745
1.4680331522689813,3934742656757978.5,4589517190222111.0,311822899731985.3,340944158112030.56,3445615980.318209,6462523787.432909,90406264366.23923,1907161215983.0398
1.597393815314361,4107136692695776.0,4790797138071314.0,325484888042512.06,355882044670192.4,3936566277.668552,7383339982.3414955,103287855479.61919,2178904901091.849
1.729341691620648,4275811444889552.0,4987759264922814.0,338852128273389.8,370497656514219.4,4459244843.773607,8363665122.886165,117001936477.9897,2468210399212.7114
1.863928525453061,4441251660542960.0,5180969078431062.0,351963035968375.2,384832996830017.3,5014238203.559538,9404599292.029682,131563896776.93866,2775402355440.1265
2.001207095962122,4603866150072559.0,5370903589681918.0,364850008786134.75,398923488905841.5,5602198106.264966,10507364906.60296,146990837161.6683,3100841517200.1846
2.1412312378813647,4764003592311273.0,5557969737233838.0,377540679040709.56,412799345647977.44,6223836001.490602,11673296356.743183,163301424849.52283,3444921676669.8247
2.284055862638992,4921964365883759.0,5742518178889442.0,390058851321605.44,426486594765542.44,6879918904.873843,12903832251.682444,180515785013.67294,3808067382373.988
2.4297369798917723,5078009561341091.0,5924853797125055.0,402425216692978.06,440007859668985.8,7571266303.847374,14200509616.297417,198655419596.6713,4190732226484.294
2.578331719489608,5232367952432123.0,6105243825543630.0,414657905157208.5,453382963528460.4,8298747857.126964,15564959576.361538,217743146949.9871,4593397571457.776
2.7298983538794,5385241463293612.0,6283924222081357.0,426772918922153.4,466629403004059.6,9063281710.8121,16998904200.30456,237803057652.32156,5016571617979.006
2.884496320956988,5536809509276394.0,6461104729272108.0,438784476405593.9,479762724376972.4,9865833301.512754,18504154254.42969,258860483106.59564,5460788742477.634
3.0421862473761276,5687232482041429.0,6636972937045157.0,450705288424265.4,492796825531907.94,10707414550.210049,20082607690.984947,280941974389.091,5926609050922.096
3.2030299723236504,5836654576017553.0,6811697577803312.0,462546782186716.4,505744200868738.44,11589083374.310284,21736248733.033424,304075289447.40643,6414618108737.335
3.3670905717701234,5985206101888455.0,6985431223582102.0,474319284633944.56,518616141765380.8,12511943462.57414,23467147452.368668,328289387195.8106,6925426816227.465
3.5344323832055258,6133005394707109.0,7158312512563635.0,486032173657983.3,531422901927587.44,13477144270.52003,25277459801.35405,353614439592.063,7459673227299.03
3.7051210308696363,6280160408515726.0,7330468000979308.0,497694004460558.44,544173835512641.6,14485881201.664703,27169427791.934708,380081787800.1333,8018015393586.814
3.879223451487029,6426770037996947.0,7502013715231385.0,509312614311418.56,556877511725019.2,15539395952.264416,29145380382.83272,407724023848.2564,8601142397834.87
4.0568079205167695,6572925247046829.0,7673056460662256.0,520895211973200.2,569541812556426.0,16638976994.001871,31207734225.156944,436574955065.14923,9209767419520.117
4.237944078927105,6718710019585678.0,7843694932279110.0,532448453055135.25,582174015185943.2,17785960182.034863,33358994842.716156,466669632049.6645,9844629865278.303
4.422702960505647,6864202172288808.0,8014020662734418.0,543978504420841.06,594780862402912.2,18981729473.840866,35601757980.33989,498044367533.0063,10506495766860.818
4.61115701971576,7009474051845073.0,8184118835735780.0,555491099445096.56,607368623024144.5,20227717748.647255,37938711140.86086,530736757880.128,11196158234701.08
4.803380160110075,7154593136128009.0,8354068987481578.0,566991585655814.1,619943143985204.8,21525407719.049774,40372635295.00464,564785707010.0048,11914437962508.828
4.9994477633122765,7299622554939661.0,8523945614376021.0,578484966002272.8,632509895462693.6,22876332928.07253,42906406751.53838,600231452557.8168,12662183779156.846
5.199436718578522,7444621543063445.0,8693818701870500.0,589975934758924.2,645074010131123.8,24282078826.261276,45542999177.53205,637115594137.1155,13440273244868.582
5.403425452950093,7589645836049802.0,8863754186580865.0,601468908890858.1,657640317457620.4,25744283924.489017,48285485760.62718,675481123588.5795,14249613289312.344
5.611493962009095,7734748017317078.0,9033814361685638.0,612968055561069.5,670213373778104.0,27264641019.0452,51137041506.88572,715372457125.4574,15091140889707.068
5.823723841249277,7879977823673025.0,9204058233887166.0,624477316342603.6,682797488770619.9,28844898486.319958,54100945669.17409,756835469305.1136,15965823787448.863
6.040198318074262,8025382415171306.0,9374541838830786.0,636000428604327.2,695396748838317.5,30486861645.008083,57180584302.19101,799917528772.2374,16874661242112.145
6.261002284435747,8171006614250002.0,9545318520747844.0,647540944462303.0,708015037830723.9,32192394184.275833,60379452941.22012,844667535732.8838,17818684821961.15
6.486222330124463,8316893118309835.0,9716439181170302.0,659102247626343.1,720656055463584.4,33963419656.76681,63701159402.49834,891135961129.8557,18798959230352.152
6.715946776726952,8463082689242452.0,9887952500808544.0,670687568419832.9,733323333741413.6,35801923035.69823,67149426703.797966,939374887499.776,19816583167610.43
6.950265712261491,8609614322884400.0,1.0059905138061844e+16,682299997208752.2,746020251640626.6,37709952335.6147,70728096104.40857,989438051500.5172,20872690228142.54
7.18927102650672,8756525400929948.0,1.023234190711461e+16,693942496440538.2,758750048272750.0,39689620296.643,74441130264.22894,1041380888104.8892,21968449832698.734
7.433056447036854,8903851827467846.0,1.0405305938142518e+16,705617911464443.1,771515834715275.8,41743106132.33229,78292616522.12366,1095260576462.7743,23105068195830.105
7.681717575977592,9051628151998050.0,1.0578838821793296e+16,717328980280427.1,784320604671021.0,43872657341.37283,82286770294.09784,1151136087439.4373,24283789328704.98
7.935351927497144,9199887680526618.0,1.0752980739804944e+16,729078342343293.1,797167244094461.6,46080591583.67556,86427938592.19225,1209068232842.6453,25505896077548.535
8.194058966047088,9348662576118416.0,1.0927770583371052e+16,740868546531335.2,810058539904602.1,48369298621.45552,90720603665.30815,1269119716355.5227,26772711198066.33
8.45794014536803,9497983950103054.0,1.1103246060646836e+16,752702058374287.4,822997187887928.9,50741242326.120735,95169386763.46457,1331355186196.1235,28085598466290.176
8.72709894827539,9647881944972646.0,1.1279443794607676e+16,764581266622852.2,835985799881477.1,53198962751.89345,99779052027.22333,1395841289528.045,29445963826362.9
9.0016409272409,9798385809876516.0,1.1456399412315814e+16,776508489231562.0,849026910314422.8,55745078277.22282,104554510504.27644,1462646728649.9707,30855256575847.445
9.281673745785717,9949523969503992.0,1.1634147626518654e+16,788485978817625.0,862122982176755.1,58382287815.156456,109500824295.37816,1531842318994.66,32314970589206.2
9.567307220701432,1.0101324087048236e+16,1.1812722310387128e+16,800515927650753.6,875276412475074.0,61113373093.94929,114623210832.02547,1603501048971.0042,33826645580158.273
9.85865336511546,1.025381312186059e+16,1.1992156566104716e+16,812600472222150.4,888489537228312.4,63941201009.28286,119927047288.4591,1677698141685.1829,35391868403675.11
10.155826432417769,1.0407017382330952e+16,1.2172482787934202e+16,824741697435245.0,901764636049811.6,66868726049.56481,125417875130.74556,1754511118579.4775,37012274398428.07
10.458942961066125,1.0560962574468558e+16,1.235373272031417e+16,836941640455618.4,915103936356818.0,69898992795.86652,131101404805.86029,1834019865029.6208,38689548770549.8
10.768121820287448,1.0715673846601164e+16,1.2535937511474844e+16,849202294253380.4,928509617243674.8,73035138498.14058,136983520573.8547,1916306697943.8228,40425428019619.086
11.083484256693197,1.0871175830565064e+16,1.27191277630078e+16,861525610867404.8,941983813050900.4,76280395729.44499,143070285486.3406,2001456435408.6506,42221701407823.65
11.405153941827061,1.1027492679715404e+16,1.290333357577514e+16,873913504417589.4,955528616658783.9,79638095119.97247,149367946514.67456,2089556468429.2144,44080212473298.99
11.733257020663602,1.1184648104050942e+16,1.308858459250182e+16,886367853888465.6,969146082530922.0,83111668172.77301,155882939831.37653,2180696834812.8687,46002860588684.65
12.067922161076874,1.1342665402715736e+16,1.327491003735875e+16,898890505704896.1,982838229530493.8,86704650163.11917,162621896248.44357,2274970295247.9424,47991602565980.67
12.409280604298411,1.15015674941119e+16,1.3462338752810294e+16,911483276118469.5,996607043529513.5,90420683123.54373,169591646816.36902,2372472411630.5024,50048454308826.11
12.75746621638438,1.1661376943833854e+16,1.3650899233973014e+16,924147953421253.9,1010454479829318.2,94263518916.6595,176799228587.81247,2473301627694.6704,52175492513367.016
13.112615540712067,1.18221159906118e+16,1.3840619660706014e+16,936886300001777.1,1024382465408575.1,98237022397.92651,184251890550.0047,2577559352003.1704,54374856418913.33
13.474867851526309,1.1983806570434268e+16,1.403152792763187e+16,949700054256723.5,1038392901013486.2,102345174670.61925,191957099730.08594,2685350043357.4644,56648749609631.01
13.844365208556836,1.2146470339001964e+16,1.4223651672266866e+16,962590932370343.5,1052487663103394.5,106592076435.30835,199922547477.74945,2796781298687.9404,58999441868551.695
14.221252512727972,1.2310128692650034e+16,1.4417018301422356e+16,975560629972528.1,1066668605663717.5,110981951436.24652,208156155929.64325,2911963943487.0493,61429271085221.63
14.605677562982532,1.2474802787863036e+16,1.4611655016023132e+16,988610823685345.8,1080937561896887.5,115519150007.11908,216666084660.16962,3031012124849.964,63940645218350.22
14.997791114242183,1.2640513559494744e+16,1.4807588834475064e+16,1001743172566931.1,1095296345801102.5,120208152718.68631,225460737523.41376,3154043407188.9507,66536044314862.2
15.397746936527026,1.2807281737794184e+16,1.5004846614701878e+16,1014959319460775.0,1109746753645633.9,125053574130.92679,234548769691.09045,3281178870690.0254,69218022586790.45
15.805701875257567,1.2975127864330224e+16,1.520345507496026e+16,1028260892257731.4,1124290565350676.8,130060166652.34691,243939094891.52615,3412543212581.9595,71989210547492.75
16.221815912762718,1.314407230689823e+16,1.540344081353192e+16,1041649505077335.1,1138929545779000.0,135232824509.21417,253640892854.82797,3548264851289.6646,74852317208710.0
16.64625223101797,1.331413527348444e+16,1.5604830327383256e+16,1055126759374480.1,1153665445945974.0,140576587827.52234,263663616969.5255,3688476033546.0767,77810132340028.06
17.079177275638333,1.3485336825358072e+16,1.580765002987487e+16,1068694244976939.1,1168500004153993.2,146096646830.59088,274017002156.1227,3833312944538.3193,80865528792344.33
17.5207608211511,1.3657696889353384e+16,1.6011926267596054e+16,1082353541058689.4,1183434947056686.8,151798346155.25638,284711072963.11206,3982915821166.161,84021464886979.69
17.97117603757412,1.383123526939949e+16,1.621768533639294e+16,1096106217053659.2,1198471990658009.5,157687189289.70908,295756151891.1707,4137429068492.4824,87280986872119.88
18.430599558325603,1.400597165735055e+16,1.6424953496654068e+16,1109953833513986.6,1213612841250660.8,163768843136.0793,307162867951.37317,4297001379467.58,90647231448311.52
18.899211549492115,1.4181925643164352e+16,1.6633756987910026e+16,1123897942916666.8,1228859196298042.5,170049142700.97278,318942165463.42395,4461785858011.102,94123428364779.27
19.37719578048196,1.435911672447274e+16,1.6844122042801188e+16,1137940090421979.8,1244212745263542.8,176534095917.2262,331105313100.0309,4631940145537.429,97712903088369.83
19.864739696091597,1.4537564315584504e+16,1.7056074900461946e+16,1152081814586986.8,1259675170390646.5,183229888600.2211,343663913183.7095,4807626551012.313,101419079546981.1
20.36203449001343,1.4717287755957392e+16,1.726964181936609e+16,1166324648036895.0,1275248147437007.8,190142889542.19324,356629911242.42926,4989012184630.726,105245482949365.69
20.869275179813698,1.4898306318172776e+16,1.7484849089675338e+16,1180670118097054.8,1290933346365469.5,197279655748.0261,370015605830.6955,5176269095207.582,109195742683245.33
21.38666068340997,1.508063921544382e+16,1.7701723045127974e+16,1195119747387970.8,1306732431994641.0,204646937816.1217,383833658622.7536,5369574411375.745,113273595293721.36
21.91439389707817,1.5264305608685582e+16,1.7920290074503622e+16,1209675054385590.5,1322647064611509.2,212251685467.99823,398097104784.81476,5569110486686.984,117482887544003.58
22.452681775019734,1.5449324613172262e+16,1.814057663269557e+16,1224337553948895.8,1338678900548307.0,220101053230.36133,412819363633.2923,5775065048714.019,121827579560521.33
23.00173541052013,1.5635715304805596e+16,1.8362609251420536e+16,1239108757816639.2,1354829592725643.2,228202406273.4571,428014249586.2212,5987631352254.136,126311748064530.61
23.561770118730532,1.5823496726015176e+16,1.8586414549592864e+16,1253990175074966.2,1371100791163785.2,236563326409.6036,443695983415.15454,6207008336736.002,130939589692366.75
24.133005521105144,1.6012687891310082e+16,1.8812019243387652e+16,1268983312597357.5,1387494143463688.8,245191618255.86823,459879203804.9909,6433400787934.244,135715424406536.78
24.715665631527248,1.6203307792498778e+16,1.903945015601518e+16,1284089675458294.5,1404011295259314.0,254095315564.92648,476578979229.29736,6667019504097.493,140643698999883.36
25.309978944157795,1.6395375403592492e+16,1.9268734227226412e+16,1299310767321858.5,1420653890642483.0,263282687728.21896,493810820148.8623,6908081466597.9795,145728990695092.06
25.91617852304095,1.6588909685404392e+16,1.9499898522567096e+16,1314648090806203.0,1437423572561426.5,272762246455.57516,511590691541.2865,7156810015212.065,150976010841847.34
26.53450209350177,1.6783929589856434e+16,1.973297024239575e+16,1330103147824853.8,1454321983193938.0,282542752635.5383,529935025769.5664,7413435028142.93,156389608713980.2
27.165192135371807,1.6980454064001218e+16,1.996797673067762e+16,1345677439905459.2,1471350764295876.8,292633223380.6811,548860735797.72296,7678193106897.696,161974775408965.66
27.808495978079243,1.7178502053765812e+16,2.020494548356417e+16,1361372468486467.8,1488511557525591.2,303042939262.23584,568385228761.5701,7951327766132.8125,167736647852172.97
28.464665897640828,1.737809250742046e+16,2.0443904157765416e+16,1377189735192012.5,1505806004744447.5,313781451738.3964,588526419902.8243,8233089628581.88,173680512908261.88
29.133959215593645,1.7579244378773202e+16,2.0684880578716876e+16,1393130742085092.2,1523235748293649.0,324858590780.6681,609302746874.7487,8523736625180.618,179811811602149.62
29.816638399905518,1.7781976630087054e+16,2.0927902748542452e+16,1409196991898760.5,1540802431247037.0,336284472702.6403,630733184427.546,8823534200504.104,186136143451956.22
30.51297116790363,1.798630823471442e+16,2.1172998853806212e+16,1425389988244865.2,1558507697639320.0,348069508195.528,652837259481.6573,9132755523629.836,192659270916335.88
31.223230591261704,1.8192258179437664e+16,2.1420197273046424e+16,1441711235799582.0,1576353192668907.5,360224410574.7787,675635066597.0295,9451681704540.162,199387123958556.2
31.947695203086937,1.8399845466501708e+16,2.1669526584074132e+16,1458162240464455.8,1594340562874036.2,372760204241.9795,699147283846.3052,9780602016174.262,206325804729668.9
32.686649107148675,1.860908911531905e+16,2.192101557101883e+16,1474744509501544.8,1612471456280488.0,385688233366.1728,723395189099.6182,10119814122238.123,213481592373031.22
33.44038208929165,1.8820008163821652e+16,2.217469323109165e+16,1491459551640533.5,1630747522518748.5,399020170788.5212,748400676728.4424,10469624310875.875,220860947952362.03
34.20918973107749,1.9032621669428948e+16,2.243058878103394e+16,1508308877155477.0,1649170412907878.0,412768027154.10846,774186274735.5388,10830347734301.648,228470519505406.16
34.993373525699035,1.9246948709594216e+16,2.2688731663207364e+16,1525293997908078.8,1667741780502847.5,426944160274.35767,800775162317.5999,11202308654483.428,236317147225137.3
35.793240996213015,1.9463008381883468e+16,2.294915155127659e+16,1542416427353925.0,1686463280101382.5,441561284723.27484,828191187866.5424,11585840694963.084,244407868770262.44
36.60910581613728,1.9680819803534776e+16,2.321187835542272e+16,1559677680507616.0,1705336568205784.8,456632481670.3284,856458887414.8132,11981287098886.484,252749924706572.0
37.44128793246003,1.990040211043632e+16,2.347694222701858e+16,1577079273861712.2,1724363302934347.5,472171208952.3357,885603503529.0664,12389000993305.812,261350764080447.3
38.29011369110923,2.0121774455451868e+16,2.3744373562683596e+16,1594622725254090.0,1743545143876289.2,488191311386.17773,915651004655.7216,12809345659801.836,270218050125515.66
39.15591596493141,2.0344956006015244e+16,2.40142030076266e+16,1612309553677252.5,1762883751883305.5,504707031323.5677,946628104920.646,13242694811458.594,279359666103135.0
40.03903428423004,2.056996594090255e+16,2.4286461458171972e+16,1630141279022574.0,1782380788789881.8,521733019448.36334,978562284383.9138,13689432876203.129,288783721276955.7
40.93981496991464,2.0796823446083076e+16,2.4561180063351812e+16,1648119421751482.5,1802037917053770.2,539284345816.09155,1011481809749.0419,14149955286501.855,298498557021387.3
41.85861126931294,2.1025547709538136e+16,2.4838390225435324e+16,1666245502484819.8,1821856799307036.5,557376511134.4509,1045415755524.3535,14624668775381.148,308512753063265.44
42.7957834946992,2.125615791492644e+16,2.51181235992526e+16,1684521041500895.0,1841839097807192.0,576025458282.4968,1080394025632.2075,15113991678711.895,318835133855447.3
43.751699164593184,2.1488673233965828e+16,2.540041209015814e+16,1702947558131696.0,1861986473777046.0,595247584065.0505,1116447375459.6208,15618354243667.65,329474775080419.25
44.72673314788505,2.172311281738939e+16,2.568528785046676e+16,1721526570046210.0,1882300586621061.8,615059751197.6268,1153607434341.416,16138198943232.582,340441010281296.6
