t(s),Total solute volume 1,Total retention volume 1,Total 1 volume 1,Total 2 volume 1,Total 3 volume 1,Total 4 volume 1,Total 5 volume 1,Total 6 volume 1
0.1,1373795654025336.8,3540173632894849.0,759959875137435.1,1406418103732074.5,0.0,0.0,0.0,-1.66771727949885e-108
0.202,1350213122973223.5,6963547390694913.0,746914546109930.9,1382276881498947.5,537619421730.16205,2264717739995.789,103299352577938.72,3378041150373148.5
0.30604000000000003,1317350822479356.0,1.0543083979455746e+16,728735689886937.1,1348634194135213.5,1059543542886.4685,4463615308747.429,204349201112660.62,6938490912989944.0
0.41216080000000005,1302660521470371.8,1.4217837542833214e+16,720609267063197.6,1333595013235257.2,1587330866149.6504,6687239477296.603,306500005410155.5,1.0546198165310794e+16
0.5204040160000001,1294905534212384.8,1.7975426658790868e+16,716319341013539.8,1325655853180778.2,2124977680285.2214,8952438591248.646,410549049705893.1,1.4216919464406738e+16
0.6308120963200001,1290175154646142.8,2.1812988458220496e+16,713702576122344.1,1320813132269234.8,2673192440593.15,11262202272507.676,516641245709641.8,1.7957720954760022e+16
0.7434283382464002,1287011628854533.2,2.5730181874330308e+16,711952567877885.0,1317574476158455.0,3232320944171.7583,13617990510856.566,624845547523801.9,2.1771947342460604e+16
0.8582969050113283,1284759476601047.5,2.9727601684773052e+16,710706715847390.4,1315268837653495.0,3802627697496.428,16020920585929.986,735214078352368.2,2.5661829028035316e+16
0.9754628431115548,1283081824854000.8,3.3806277407620132e+16,709778667646133.5,1313551343378125.2,4384352226782.9253,18472004531040.695,847793741019715.0,2.9629215473964336e+16
1.094972099973786,1281788465576544.5,3.796747509042642e+16,709063203450162.2,1312227268080504.0,4977727292322.132,20972225943379.023,962629954465335.5,3.367581624561817e+16
1.2168715419732616,1280764201115373.8,4.221260691897881e+16,708496597893310.6,1311178678300144.0,5582985705117.716,23522568736535.95,1079768060807519.2,3.7803293826420824e+16
1.3412089728127268,1279935353670487.2,4.65431857343109e+16,708038093680126.6,1310330146476221.2,6200363114020.522,26124028901970.426,1199253906239306.0,4.201330384222882e+16
1.4680331522689813,1279252695683031.0,5.096080044044637e+16,707660458969192.4,1309631275952658.5,6830099234503.475,28777619698802.52,1321134100270168.8,4.630751419063799e+16
1.597393815314361,1278682135484285.0,5.546710198316001e+16,707344834833906.2,1309047165422633.0,7472438432777.186,31484374124774.047,1445456140678968.0,5.068761489418268e+16
1.729341691620648,1278199345613270.0,6.006379504897832e+16,707077763739929.5,1308552909675340.2,8127630030142.348,34245346207213.047,1572268479458747.2,5.5155323574253656e+16
1.863928525453061,1277786519489979.2,6.475263303513936e+16,706849395392450.4,1308130279244171.0,8795928482557.153,37061611767667.59,1701620561976989.8,5.971238873878558e+16
2.001207095962122,1277430335879533.2,6.953541497903875e+16,706652360712667.2,1307765636529376.0,9477593504452.025,39934268951426.664,1833562853849281.2,6.4360591929612e+16
2.1412312378813647,1277120638360543.0,7.441398370955763e+16,706481041342336.1,1307448583905375.8,10172890168628.09,42864438656270.56,1968146862300398.8,6.9101749254824136e+16
2.284055862638992,1276849553724605.0,7.939022478773146e+16,706331081957493.9,1307171061183310.5,10882088997248.076,45853264923807.99,2105425155262678.8,7.393771258168224e+16
2.4297369798917723,1276610888463351.0,8.446606597381934e+16,706199056415439.8,1306926727765361.8,11605466051047.572,48901915323510.2,2245451379793358.5,7.887037054000726e+16
2.578331719489608,1276399706381179.0,8.964347705586382e+16,706082234097342.6,1306710530226268.5,12343303020111.457,52011581343587.35,2388280280580971.0,8.39016494202144e+16
2.7298983538794,1276212027101887.2,9.492446993343488e+16,705978413127281.4,1306518393659852.2,13095887317717.844,55183478795075.586,2533967718908213.5,8.903351401452491e+16
2.884496320956988,1276044607045517.8,1.0031109888636442e+17,705885799212390.9,1306346997454301.2,13863512177851.64,58418848231701.86,2682570692237245.0,9.426796843000542e+16
3.0421862473761276,1275894777774734.0,1.0580546098111829e+17,705802916218842.2,1306193609799458.0,14646476756557.676,61718955386268.41,2834147354482856.5,9.960705689069955e+16
3.2030299723236504,1275760324959873.2,1.1140969658225611e+17,705728539217395.2,1306055963777424.5,15445086237104.553,65085091623455.82,2988757036989978.5,1.0505286453945091e+17
3.3670905717701234,1275639396566416.2,1.171259899462283e+17,705661643694273.9,1305932163369586.0,16259651938848.414,68518574408601.305,3146460270209411.5,1.1060751824604126e+17
3.5344323832055258,1275530432374577.0,1.2295656988137378e+17,705601366562609.8,1305820611302365.0,17090491429662.238,72020747791902.53,3307318806056641.0,1.1627318742585592e+17
3.7051210308696363,1275432324608371.5,1.2890371034997122e+17,705547095019666.4,1305720173490730.5,17937931670022.418,75592995656612.25,3471396188988579.5,1.220520836405372e+17
3.879223451487029,1275343472311861.2,1.3496973161379067e+17,705497943444119.9,1305629210958436.5,18802296554701.957,79236689281645.45,3638755507090827.0,1.279464664941491e+17
4.0568079205167695,1275263167999294.8,1.4115700063531358e+17,705453520466895.2,1305546999416783.8,19683926610522.68,82953270277707.69,3809462945223077.0,1.3395863680531938e+17
4.237944078927105,1275190577896117.8,1.4746793200681197e+17,705413364858195.8,1305472685289935.5,20583165623522.105,86744194306676.6,3983585386616037.5,1.4009094263222142e+17
4.422702960505647,1275124977107270.2,1.5390498884712474e+17,705377075618485.0,1305405526467189.5,21500364201500.176,90610946088941.11,4161191047672600.5,1.4634577890996877e+17
4.61115701971576,1275065734653751.8,1.604706837054499e+17,705344303700981.4,1305344876984317.0,22435879943936.062,94555040133533.9,4342349513836087.5,1.5272558835619725e+17
4.803380160110075,1275012299093022.2,1.6716757948880022e+17,705314744057109.1,1305290172302466.0,23390077577629.1,98578021323527.14,4527131766567042.0,1.5923286240787942e+17
4.9994477633122765,1274964186658068.5,1.73998290414581e+17,705288129075235.4,1305240917165540.0,24363329094486.46,102681465511034.11,4715610210729754.0,1.6587014217634688e+17
5.199436718578522,1274920971448586.8,1.809654829881712e+17,705264223154603.6,1305196675558442.8,25356013892210.223,106866980125020.95,4907858702567129.0,1.726400194214252e+17
5.403425452950093,1274882277276791.0,1.880718770051067e+17,705242818194565.6,1305157062359212.5,26368518917984.48,111136204792372.27,5103952578284479.0,1.7954513754528125e+17
5.611493962009095,1274847770853363.5,1.9532024657748992e+17,705223729825173.1,1305121736363154.2,27401238815205.848,115490811972422.62,5303968683251994.0,1.865881926064086e+17
5.823723841249277,1274817156064744.0,2.0271342118435606e+17,705206794241471.4,1305090394424234.0,28454576073287.08,119932507605103.16,5507985401833224.0,1.9377193435411405e+17
6.040198318074262,1274790169144005.2,2.1025428674583376e+17,705191865532108.6,1305062766511239.5,29528941180562.38,124463031772851.34,5716082687846555.0,2.0109916728384634e+17
6.261002284435747,1274766574577248.8,2.1794578672104634e+17,705178813414824.0,1305038611516981.8,30624752780326.22,129084159376445.75,5928342095667442.0,2.085727517137132e+17
6.486222330124463,1274746161618590.8,2.2579092322978486e+17,705167521308599.9,1305017713690502.5,31742437830039.75,133797700824939.23,6144846811979671.0,2.161956048825325e+17
6.715946776726952,1274728741311117.2,2.337927581980526e+17,705157884685702.6,1304999879587280.8,32882431763744.383,138605502739888.84,6365681688184933.0,2.2397070206978003e+17
6.950265712261491,1274714233734272.0,2.4195441252927853e+17,705149859335392.2,1304985027388106.8,34045181055931.957,143509458765734.16,6590933685870016.0,2.3190107508312915e+17
7.18927102650672,1274702302608276.5,2.502790739051128e+17,705143259233562.4,1304972812828046.5,35231133771276.86,148511469825459.28,6820690255231774.0,2.399898226716144e+17
7.433056447036854,1274692906516774.5,2.5876999040717363e+17,705138061469322.4,1304963193506355.5,36440754267130.35,153613506012150.7,7055041871059916.0,2.482401001143418e+17
7.681717575977592,1274685920438766.2,2.6743047502447302e+17,705134196883196.6,1304956041432900.0,37674513552792.945,158817566045803.16,7294080378828905.0,2.566551264072907e+17
7.935351927497144,1274681231736227.2,2.762639066937093e+17,705131603165755.4,1304951241294566.5,38932891982893.11,164125688631221.1,7537899460889855.0,2.6523818457600877e+17
8.194058966047088,1274678738820792.5,2.8527373156646326e+17,705130224120049.5,1304948689090309.0,40216379439036.92,169539953249240.12,7786594674279093.0,2.739926229074649e+17
8.45794014536803,1274678349935210.5,2.944634643188044e+17,705130008987536.2,1304948290883683.2,41525475513248.69,175062480955999.6,8040263487545885.0,2.8292185622498282e+17
8.72709894827539,1274679982130508.2,3.038366894922248e+17,705130911882259.1,1304949961755707.2,42860689696402.03,180695435204311.38,8299005318576662.0,2.920293671929786e+17
9.0016409272409,1274683560387933.5,3.1339706286359584e+17,705132891305125.2,1304953624905955.5,44222541570990.5,186441022684430.6,8562921573306929.0,3.0131870764943424e+17
9.281673745785717,1274689016855184.2,3.231483128434173e+17,705135909721399.8,1304959210870650.2,45611561007972.22,192301494183155.53,8832115685274938.0,3.1079349996550394e+17
9.567307220701432,1274696290176667.2,3.3309424190225984e+17,705139933190213.5,1304966656837013.0,47028288367595.4,198279145460909.56,9106693156003264.0,3.2045743843222374e+17
9.85865336511546,1274705324902996.2,3.4323872802559366e+17,705144931037913.4,1304975906038741.8,48473274704193.09,204376318146804.72,9386761596209024.0,3.303142906745536e+17
10.155826432417769,1274716070968325.0,3.535857261973492e+17,705150875568925.1,1304986907220923.2,49947081974974.164,210595400651856.94,9672430767851154.0,3.4036789909311334e+17
10.458942961066125,1274728483226238.5,3.6413926991262586e+17,705157741809021.6,1304999614164912.0,51450283252857.91,216938829100596.97,9963812627026482.0,3.5062218233404595e+17
10.768121820287448,1274742521036600.8,3.749034727200139e+17,705165507276771.8,1305013985265360.8,52983462943410.16,223409088281381.4,1.0261021367728738e+16,3.610811367874812e+17
11.083484256693197,1274758147896914.0,3.8588252979403584e+17,705174151779614.1,1305029983152825.5,54547217005944.95,230008712615733.56,1.056417346648582e+16,3.7174883811509894e+17
11.405153941827061,1274775331112712.0,3.9708071953822144e+17,705183657231525.9,1305047574356328.5,56142153178861.27,236740287147056.34,1.0873387727891584e+16,3.8262944280730336e+17
11.733257020663602,1274794041502345.0,4.085024052193558e+17,705194007489714.1,1305066729001139.0,57768891209285.664,243606448549088.06,1.1188785331049128e+16,3.93727189770555e+17
12.067922161076874,1274814253132076.8,4.2015203663345344e+17,705205188208076.1,1305087420537571.8,59428063087095.19,250609886154472.94,1.151048987694284e+16,4.050464019453913e+17
12.409280604298411,1274835943078045.0,4.3203415180403206e+17,705217186705519.1,1305109625497297.0,61120313283396.29,257753343003833.88,1.183862743675762e+16,4.165914879557063e+17
12.75746621638438,1274859091212019.8,4.441533787132586e+17,705229991847448.5,1305133323274009.8,62846298993537.84,265039616915744.78,1.2173326601163106e+16,4.283669437898527e+17
13.112615540712067,1274883680008355.5,4.565144370665647e+17,705243593938970.2,1305158495925800.0,64606690384736.0,272471561578004.28,1.251471853058235e+16,4.4037735451414675e+17
13.474867851526309,1274909694369784.2,4.6912214009133766e+17,705257984628533.0,1305185127996810.5,66402170848393.19,280052087660632.16,1.2862937006463788e+16,4.5262739601937e+17
13.844365208556836,1274937121470081.8,4.8198139637030086e+17,705273156820882.6,1305213206356152.0,68233437257192.08,287784163951004.7,1.321811848357646e+16,4.651218368008691e+17
14.221252512727972,1274965950611779.2,4.950972117102119e+17,705289104598360.2,1305242720052257.0,70101200227048.29,295670818511567.25,1.3580402143348488e+16,4.778655397728624e+17
14.605677562982532,1274996173097402.5,5.0847469104652224e+17,705305823149665.6,1305273660181044.5,72006184384006.45,303715139860560.0,1.3949929948269382e+16,4.9086346411757997e+17
14.997791114242183,1275027782112834.0,5.221190403846439e+17,705323308705342.1,1305306019766518.2,73949128636165.95,311920278176216.6,1.4326846697377118e+16,5.0412066716987014e+17
15.397746936527026,1275060772621583.5,5.3603556877849146e+17,705341558479286.2,1305339793652527.2,75930786450723.06,320289446524880.56,1.4711300082851426e+16,5.176423063379113e+17
15.805701875257567,1275095141268919.2,5.502296903469697e+17,705360570615711.1,1305374978404617.8,77951926136219.16,328825922113523.44,1.510344074773498e+16,5.3143364106069555e+17
16.221815912762718,1275130886294850.8,5.647069263290948e+17,705380344141017.6,1305411572220950.5,80013331130083.95,337533047567132.06,1.5503422344804956e+16,5.455000348029359e+17
16.64625223101797,1275168007455170.8,5.794729071784472e+17,705400878920108.9,1305449574851467.0,82115800291566.36,346414232231460.06,1.5911401596617526e+16,5.598469570880805e+17
17.079177275638333,1275206505949762.8,5.945333746976643e+17,705422175616735.1,1305488987524496.2,84260148200144.0,355472953501631.56,1.6327538356748406e+16,5.744799855701227e+17
17.5207608211511,1275246384357515.2,6.098941842136891e+17,705444235657489.6,1305529812880120.2,86447205459507.03,364712758177113.3,1.6751995672253276e+16,5.89404808144904e+17
17.97117603757412,1275287646577246.8,6.255613067945217e+17,705467061199126.8,1305572054909693.5,88677819007210.23,374137263843568.56,1.7184939847371942e+16,6.04627225101614e+17
18.430599558325603,1275330297774084.5,6.41540831508202e+17,705490655098900.8,1305615718900963.5,90952852430090.7,383750160282116.44,1.7626540508501002e+16,6.201531513152141e+17
18.899211549492115,1275374344330847.5,6.578389677247837e+17,705515020887674.9,1305660811388276.0,93273186285548.48,393555210906535.5,1.807697067045993e+16,6.359886184805239e+17
19.37719578048196,1275419793803973.2,6.744620474620806e+17,705540162745531.2,1305707340107469.5,95639718428790.3,403556254228966.8,1.8536406804076204e+16,6.521397773886903e+17
19.864739696091597,1275466654883606.2,6.914165277759508e+17,705566085479709.4,1305755313955017.5,98053364346135.05,413757205354660.25,1.9005028905115612e+16,6.686129002468165e+17
20.36203449001343,1275514937357524.5,7.087089931959176e+17,705592794504633.0,1305804742951091.8,100515057494485.6,424162057506345.56,1.9483020564583988e+16,6.854143830415191e+17
20.869275179813698,1275564652078565.0,7.263461582069263e+17,705620295823899.8,1305855638206215.0,103025749647066.53,434774883578801.44,1.9970569040427936e+16,7.025507479471642e+17
21.38666068340997,1275615810935260.8,7.443348697780741e+17,705648596014039.2,1305908011891205.5,105586411245535.34,445599837724217.9,2.0467865330661944e+16,7.200286457796024e+17
21.91439389707817,1275668426825477.8,7.626821099391105e+17,705677702209923.9,1305961877210178.2,108198031758571.11,456641156968951.5,2.0975104247949692e+16,7.378548584961875e+17
22.452681775019734,1275722513632763.8,7.813949984055789e+17,705707622091686.9,1306017248376343.2,110861620047047.0,467903162862286.94,2.1492484495669076e+16,7.560363017428996e+17
23.00173541052013,1275778086205247.0,8.004807952534426e+17,705738363873055.6,1306074140590394.2,113578204735897.72,479390263157836.25,2.2020208745489372e+16,7.745800274493908e+17
23.561770118730532,1275835160336877.0,8.199469036440547e+17,705769936290965.4,1306132570021312.2,116348834592786.81,491106953528208.4,2.255848371649112e+16,7.934932264727939e+17
24.133005521105144,1275893752750839.8,8.398008726003712e+17,705802348596391.2,1306192553789375.5,119174578913688.5,503057819313597.7,2.3107520255858684e+16,8.127832312911483e+17
24.715665631527248,1275953881084998.2,8.600503998352778e+17,705835610546289.8,1306254109951265.5,122056527915494.06,515247537304965.25,2.366753342117655e+16,8.324575187472987e+17
25.309978944157795,1276015563879204.8,8.807033346329576e+17,705869732396584.6,1306317257487075.2,124995793135756.23,527680877562474.4,2.4238742564361296e+16,8.525237128441353e+17
25.91617852304095,1276078820564376.8,9.017676807841958e+17,705904724896121.4,1306382016289120.2,127993507839686.2,540362705269871.8,2.4821371417261364e+16,8.729895875920748e+17
26.53450209350177,1276143671453222.2,9.232515995765686e+17,705940599281534.8,1306448407152445.8,131050827434517.52,553297982625530.25,2.541564817895721e+16,8.938630699096641e+17
27.165192135371807,1276210137732471.5,9.451634128404593e+17,705977367272956.1,1306516451766876.8,134168929891356.27,566491770770840.5,2.602180560479575e+16,9.151522425782285e+17
27.808495978079243,1276278241456574.8,9.675116060518444e+17,706015041070521.2,1306586172710570.8,137349016174631.6,579949231756709.1,2.664008109719309e+16,9.368653472514821e+17
28.464665897640828,1276348005542743.5,9.903048314928335e+17,706053633351635.5,1306657593444924.5,140592310679269.33,593675630548881.8,2.7270716798240564e+16,9.590107875210255e+17
29.133959215593645,1276419453767268.5,1.0135519114709449e+18,706093157268925.2,1306730738310817.2,143900061675705.44,607676337072861.6,2.7913959684149028e+16,9.815971320386995e+17
29.816638399905518,1276492610763031.5,1.0372618415980991e+18,706133626448874.5,1306805632526068.0,147273541762863.1,621956828299186.6,2.8570061661568492e+16,1.0046331176967308e+18
30.51297116790363,1276567502018168.0,1.0614437941303555e+18,706175054991077.6,1306882302184057.5,150714048329212.56,636522690369856.2,2.9239279665819092e+16,1.0281276528666438e+18
31.223230591261704,1276644153875808.2,1.086107121369403e+18,706217457468091.8,1306960774253456.0,154222904022041.34,651379620766700.4,2.992187576107174e+16,1.0520898206979456e+18
31.947695203086937,1276722593534820.8,1.1112613591268383e+18,706260848925862.5,1307041076579005.8,157801457225052.2,666533430522507.9,3.0618117242516204e+16,1.0765288824775345e+18
32.686649107148675,1276802849051562.0,1.1369162302522848e+18,706305244884676.8,1307123237883293.2,161451082544421.75,681990046475751.2,3.1328276740556268e+16,1.1014542810508891e+18
33.44038208929165,1276884949342534.0,1.1630816482264105e+18,706350661340639.6,1307207287769477.0,165173181303438.72,697755513569748.5,3.2052632327071276e+16,1.1268756443060129e+18
34.20918973107749,1276968924187939.8,1.1897677208199084e+18,706397114767644.2,1307293256724929.8,168969182045853.1,713835997197106.4,3.2791467623784964e+16,1.1528027887211996e+18
34.993373525699035,1277054804236088.5,1.2169847538195392e+18,706444622119800.5,1307381176125742.8,172840541048060.53,730237785590367.2,3.3545071912782984e+16,1.1792457229776356e+18
35.793240996213015,1277142621008626.0,1.244743254822319e+18,706493200834336.8,1307471078242088.5,176788742840253.06,746967292259702.5,3.431374024922109e+16,1.206214651637912e+18
36.60910581613728,1277232406906546.2,1.2730539370989693e+18,706542868834919.4,1307562996244360.2,180815300736663.78,764031058478599.4,3.509777357626724e+16,1.2337199788915018e+18
37.44128793246003,1277324195216968.2,1.30192772352776e+18,706593644535403.5,1307656964210126.5,184921757375032.9,781435755818450.6,3.589747884232112e+16,1.261772312368283e+18
38.29011369110923,1277418020120649.5,1.3313757505998538e+18,706645546843992.1,1307753017131814.2,189109685265429.84,799188188733002.1,3.671316912055612e+16,1.2903824670212017e+18
39.15591596493141,1277513916700208.0,1.3614093724973233e+18,706698595167778.6,1307851190925127.2,193380687348559.25,817295297193614.0,3.754516373082897e+16,1.3195614690791588e+18
40.03903428423004,1277611920949050.8,1.392040165244999e+18,706752809417690.8,1307951522438183.0,197736397563679.94,835764159376320.2,3.83937883640035e+16,1.3493205600712494e+18
40.93981496991464,1277712069780954.0,1.423279930937286e+18,706808210013791.5,1308054049461334.8,202178481426273.6,854601994401683.0,3.925937520873597e+16,1.3796712009234644e+18
