t(s),Total solute volume 1,Total retention volume 1,Total 1 volume 1,Total 2 volume 1,Total 3 volume 1,Total 4 volume 1,Total 5 volume 1,Total 6 volume 1
0.1,1063829490026819.8,1368988609462191.8,135960145783138.03,169198973652234.8,0.0,0.0,0.0,0.0
0.202,1447389677626246.8,2217954307634603.5,184980125728806.78,230203107252641.6,307461952927.73096,703786677750.3545,13270266269097.7,341099882127130.75
0.30604000000000003,1666547785454656.8,2971248607002198.5,212989096172556.75,265059566433455.5,715054428711.9683,1636850873503.2476,30864377814167.008,793435875825146.6
0.41216080000000005,1810869740369743.8,3691207339535321.0,231433813594271.16,288013553306663.44,1177060198543.6738,2694568770621.684,50809262770381.766,1306209340525097.2
0.5204040160000001,1913519352013441.5,4399045115314085.0,244552698263792.25,304339675327525.75,1674925062543.3406,3834483859510.1665,72304317358621.8,1858819663428652.0
0.6308120963200001,1990302783380918.2,5104482156620436.0,254365818503415.72,316551856693791.9,2199466973727.9717,5035589313259.731,94953422196730.16,2441073219558594.0
0.7434283382464002,2049859848364724.2,5812795830488807.0,261977364769853.66,326024234640581.1,2745635551981.455,6286334442674.099,118538773139460.17,3047363639579533.5
0.8582969050113283,2097351435771935.0,6527200592120663.0,268046911938215.5,333577633501083.6,3310467291976.388,7579944964581.844,142932635342769.28,3674401563310102.5
0.9754628431115548,2136062094572616.5,7249831393932457.0,272994233822401.06,339734451223348.75,3892152797693.204,8912288281258.83,168057088976120.34,4320179084259015.5
1.094972099973786,2168185303833928.2,7982208468388223.0,277099662694106.62,344843554265735.75,4489564951939.49,10280793661799.686,193863667148747.78,4983445921831954.0
1.2168715419732616,2195242800236810.2,8725479310580410.0,280557680418853.88,349146970416772.2,5102001601857.937,11683863366683.27,220322251495891.03,5663423743043532.0
1.3412089728127268,2218323618030542.5,9480554273739320.0,283507468377497.3,352817907403506.4,5729036849662.949,13120532327318.543,247414654744046.56,6359641056006747.0
1.4680331522689813,2238227594465846.2,1.024818709189672e+16,286051247829984.8,355983577012573.8,6370431017329.297,14590262107715.04,275130735429971.5,7071833244033302.0
1.597393815314361,2255555239905511.5,1.1029025009224592e+16,288265765546832.06,358739488669501.94,7026074005734.975,16092811293622.387,303465953815837.75,7799879675987538.0
1.729341691620648,2270766040060713.0,1.1823641238818608e+16,290209744985014.4,361158722239575.3,7695948496229.016,17628151293986.06,332419784150425.3,8543762847592660.0
1.863928525453061,2284217430687838.5,1.2632556692780092e+16,291928867354551.1,363298126839856.6,8380105378224.699,19196410123845.47,361994654582773.06,9303541097812996.0
2.001207095962122,2296191534889376.5,1.3456254955023386e+16,293459188714390.25,365202573329027.7,9078646948314.209,20797833974110.754,392195222488986.44,1.0079329954679162e+16
2.1412312378813647,2306913924348657.5,1.4295192862109178e+16,294829537706508.3,366907938227147.1,9791715185050.17,22432760398499.684,423027868869146.4,1.0871289117374166e+16
2.284055862638992,2316567048632240.0,1.514980815044941e+16,296063231855333.6,368443239607097.2,10519483418633.176,24101599271061.6,454500339278800.75,1.167961320838625e+16
2.4297369798917723,2325300019613988.5,1.6020525096553696e+16,297179328042325.56,369832193278747.7,11262150319860.674,25804819052587.56,486621484874134.0,1.2504525101372048e+16
2.578331719489608,2333235854249877.0,1.6907758754961896e+16,298193548151247.2,371094364731201.56,12019935503793.062,27542936753510.062,519401073165394.4,1.3346271042406864e+16
2.7298983538794,2340476913138549.5,1.78119181977713e+16,299118974130208.44,372246034120025.3,12793076276989.71,29316510515050.14,552849648145731.56,1.420511704144474e+16
2.884496320956988,2347109037584054.5,1.8733409031298096e+16,299966576718931.0,373300854255039.6,13581825207301.186,31126134073972.46,586978425942079.5,1.5081346177516738e+16
3.0421862473761276,2353204734007178.0,1.967263538142672e+16,300745622424717.9,374270357071669.0,14386448293767.547,32972432601879.5,621799216388351.5,1.5975256570639124e+16
3.2030299723236504,2358825651711809.5,2.0630001483106508e+16,301463990187376.25,375164347712473.56,15207223580078.275,34856059560816.676,657324363765649.0,1.6887159846588308e+16
3.3670905717701234,2364024530061115.5,2.1605912971290184e+16,302128420233344.4,375991214219856.4,16044440099867.607,36777694319529.82,693566701888434.2,1.7817379970468072e+16
3.5344323832055258,2368846742767308.5,2.2600777944192684e+16,302744711439899.94,376758173150857.4,16898397073067.791,38738040345550.62,730539520051360.9,1.876625235936463e+16
3.7051210308696363,2373331533083142.0,2.361500785118464e+16,303317879195816.0,377471466030765.94,17769403294219.035,40737823837896.29,768256537286974.5,1.9734123208455824e+16
3.879223451487029,2377513009568789.0,2.4649018244399532e+16,303852282662930.2,378136517726947.56,18657776669015.098,42777792700370.805,806731883048342.4,2.0721348982023164e+16
4.0568079205167695,2381420954745815.0,2.5703229423571348e+16,304351728124205.75,378758065062903.56,19563843866409.977,44858715780740.44,845980082907462.4,2.172829603308381e+16
4.237944078927105,2385081486304048.5,2.6778066996630316e+16,304819553487669.56,379340261981302.75,20487940061634.332,46981382319417.21,886016048206595.8,2.275534032426965e+16
4.422702960505647,2388517601216087.5,2.7873962373416388e+16,305258697825652.75,379886766083815.0,21430408751357.434,49146601564765.02,926855068853822.6,2.3802867229120924e+16
4.61115701971576,2391749626189271.5,2.899135320600791e+16,305671758943705.6,380400810274176.44,22391601626595.45,51355202522129.484,968512808642548.0,2.4871271397809424e+16
4.803380160110075,2394795592685890.0,3.013068378624914e+16,306061041309155.06,380885262404075.0,23371878492229.062,53608033811165.78,1011005302615505.9,2.5960956674931044e+16
4.9994477633122765,2397671550804800.0,3.1292405408844412e+16,306428596165973.6,381342675195103.8,24371607224456.496,55905963611677.42,1054348956100224.4,2.7072336059742184e+16
5.199436718578522,2400391833310116.0,3.2476976706680892e+16,306776255278334.4,381775328231753.8,25391163759379.1,58249879682460.56,1098560545123654.6,2.8205831701295244e+16
5.403425452950093,2402969278778045.5,3.368486396372567e+16,307105659449343.06,382185263452272.94,26430932107352.152,60640689440941.24,1143657217975696.5,2.936187492252201e+16
5.611493962009095,2405415421038210.0,3.4916541409813684e+16,307418282732135.5,382574315278758.4,27491304388839.02,63079320093922.516,1189656497739177.5,3.054090626854263e+16
5.823723841249277,2407740650684491.5,3.617249150083758e+16,307715453071374.8,382944136304984.2,28572680888368.453,65566718811734.18,1236576285640983.5,3.174337557543569e+16
6.040198318074262,2409954353329305.5,3.745320518720908e+16,307998369972503.56,383296219285340.94,29675470123865.875,68103852939616.63,1284434865108171.8,3.2969742056450304e+16
6.261002284435747,2412065028404124.0,3.8759182172956184e+16,308268119684755.56,383631916029717.44,30800088929158.42,70691710241386.67,1333250906435739.2,3.4220474403231292e+16
6.486222330124463,2414080391616514.5,4.009093116741363e+16,308525688295435.06,383952453698993.25,31946962547874.504,73331299171392.55,1383043471990875.0,3.5496050900092536e+16
6.715946776726952,2416007463619674.0,4.144897013113555e+16,308771973062102.1,384258948907664.56,33116524737287.215,76023649171528.72,1433832021892989.8,3.6796959549744296e+16
6.950265712261491,2417852647004582.5,4.283382651739557e+16,309007792252379.06,384552419969235.6,34309217880921.582,78769810990700.95,1485636420120283.5,3.81236982091775e+16
7.18927102650672,2419621793364938.5,4.424603751042389e+16,309233893715014.44,384833797562689.1,35525493108955.53,81570857024615.14,1538476941003023.0,3.947677473464466e+16
7.433056447036854,2421320261892049.5,4.5686150261354584e+16,309450962368459.56,385103934051836.75,36765810425621.26,84427881674168.08,1592374276071161.2,4.085670713487129e+16
7.681717575977592,2422952970718152.0,4.715472212271231e+16,309659626762685.44,385363611651329.06,38030638842949.15,87342001721046.83,1647349541230039.2,4.226402373178611e+16
7.935351927497144,2424524442031004.0,4.865232088214777e+16,309860464844935.56,385613549601997.8,39320456520314.23,90314356719392.75,1703424284242988.8,4.369926332818716e+16
8.194058966047088,2426038841821222.5,5.017952499603274e+16,310054009039542.94,385854410492550.8,40635750909335.95,93346109402625.56,1760620492503669.8,4.516297538186379e+16
8.45794014536803,2427500014990800.0,5.1736923823443816e+16,310240750734886.56,386086805843487.25,41977018903759.69,96438446104681.33,1818960601084393.2,4.66557201857818e+16
8.72709894827539,2428911516440745.5,5.332511786099473e+16,310421144256474.4,386311301051489.25,43344766994010.01,99592577195079.8,1878467501049519.0,4.8178069054007384e+16
9.0016409272409,2430276638663637.5,5.494471897891972e+16,310595610393335.2,386528419777939.25,44739511426159.46,102809737527352.42,1939164548025303.2,4.973060451310597e+16
9.281673745785717,2431598436290048.0,5.65963506587632e+16,310764539535130.0,386738647852961.2,46161778365098.484,106091186900474.7,2001075571019535.5,5.131392049880005e+16
9.567307220701432,2432879747973351.5,5.828064823298939e+16,310928294469070.75,386942436756132.94,47612104061726.21,109438210533018.62,2064224881485976.2,5.292862255771012e+16
9.85865336511546,2434123215942893.5,5.999825912678902e+16,311087212878873.7,387140206726359.6,49091035024016.96,112852119549831.02,2128637282629964.5,5.4575328054037016e+16
10.155826432417769,2435331303509951.5,6.17498431023371e+16,311241609582065.94,387332349546146.25,50599128191834.45,116334251481092.52,2194338078952716.5,5.625466638107325e+16
10.458942961066125,2436506310771894.5,6.353607250572227e+16,311391778537017.56,387519231039301.9,52136951115393.07,119885970773670.64,2261353086032935.0,5.796727917745203e+16
10.768121820287448,2437650388727150.5,6.535763251675533e+16,311537994646866.1,387701193315879.5,53705082137279.055,123508669314724.08,2329708640545104.0,5.971382054806831e+16
11.083484256693197,2438765551985293.5,6.721522140183853e+16,311680515383908.6,387878556793684.56,55304110577960.46,127203766967557.98,2399431610514604.5,6.149495728961551e+16
11.405153941827061,2439853690232933.5,6.910955077006901e+16,311819582254959.44,388051622021886.7,56934636924725.63,130972712119755.53,2470549405810580.0,6.3311369120704136e+16
11.733257020663602,2440916578595132.0,7.104134583272945e+16,311955422125575.0,388220671328969.6,58597273024001.9,134816982243649.56,2543089988877778.5,6.5163748916534376e+16
12.067922161076874,2441955887014771.0,7.301134566631192e+16,312088248418757.4,388385970314501.7,60292642277012.65,138738084469219.45,2617081885709319.0,6.705280294810831e+16
12.409280604298411,2442973188756999.0,7.50203034792087e+16,312218262201846.06,388547769201737.2,62021379838738.055,142737556169518.34,2692554197062722.5,6.897925112597707e+16
12.75746621638438,2443969968132751.5,7.706898688219462e+16,312345653173600.44,388706304066018.7,63784132820153.59,146816965558765.16,2769536609921847.5,7.094382724852151e+16
13.112615540712067,2444947627524056.5,7.915817816282053e+16,312470600562058.3,388861797952137.6,65581560493719.05,150977912303243.25,2848059409207766.5,7.294727925477768e+16
13.474867851526309,2445907493784088.0,8.128867456382504e+16,312593273942473.0,389014461892239.06,67414334502102.5,155222028145169.12,2928153489742116.5,7.499036948181683e+16
13.844365208556836,2446850824076253.5,8.346128856567392e+16,312713833983565.5,389164495834511.4,69283139070117.51,159550977539713.16,3009850368466361.5,7.70738749267033e+16
14.221252512727972,2447778811209287.0,8.567684817332074e+16,312832433129366.94,389312089491721.25,71188671219863.86,163966458305360.0,3093182196921041.5,7.919858751304421e+16
14.605677562982532,2448692588518872.5,8.79361972072901e+16,312949216223093.56,389457423117616.5,73131640989055.53,168470202287809.88,3178181773989200.5,8.136531436216437e+16
14.997791114242183,2449593234340496.0,9.024019559916714e+16,313064321078802.4,389600668218326.3,75112771652526.98,173063976037646.47,3264882558908309.0,8.357487806893112e+16
15.397746936527026,2450481776113517.0,9.258971969158509e+16,313177879005887.75,389741988205097.94,77132799946904.27,177749581501984.1,3353318684555400.0,8.582811698225643e+16
15.805701875257567,2451359194151828.0,9.49856625427906e+16,313290015290990.06,389881538994006.44,79192476298433.77,182528856730343.06,3443524971010224.5,8.812588549031474e+16
16.221815912762718,2452226425112878.0,9.742893423586787e+16,313400849641346.4,390019469557703.3,81292565053954.52,187403676594987.34,3535536939401416.0,9.046905431050578e+16
16.64625223101797,2453084365193366.5,9.992046219270074e+16,313510496593200.94,390155922433665.5,83433844715007.67,192375953525991.7,3629390826040990.0,9.285851078419848e+16
17.079177275638333,2453933873076820.0,1.0246119149274122e+17,313619065888522.56,390291034193019.1,85617108175067.23,197447638261295.72,3725123596852468.5,9.529515917629419e+16
17.5207608211511,2454775772656032.5,1.0505208519666333e+17,313726662822931.7,390424935873516.2,87843162959881.16,202620720612014.3,3822772962098320.0,9.777992097964064e+16
17.97117603757412,2455610855550431.0,1.0769412467496542e+17,313833388567429.44,390557753379930.5,90112831470911.61,207897230243294.8,3922377391412383.5,1.0031373522434123e+17
18.430599558325603,2456439883437027.5,1.1038830994159283e+17,313939340466299.5,390689607854775.1,92426951231854.16,213279237471003.12,4023976129143272.5,1.028975587919885e+17
18.899211549492115,2457263590211193.5,1.1313565999263986e+17,314044612313262.75,390820616021979.4,94786375138223.66,218768854074537.62,4127609210014859.5,1.0553236673486578e+17
19.37719578048196,2458082683992337.5,1.1593721315020126e+17,314149294607802.8,390950890505878.1,97191971709983.88,224368234126074.53,4233317475110011.5,1.0821915260014906e+17
19.864739696091597,2458897848987804.0,1.1879402741142651e+17,314253474793380.6,391080540127660.9,99644625347203.38,230079574836562.88,4341142588184176.0,1.1095892875914982e+17
20.36203449001343,2459709747227167.0,1.2170718080283971e+17,314357237479080.2,391209670181207.44,102145236588709.77,235905117418780.3,4451127052315267.0,1.1375272674162931e+17
20.869275179813698,2460519020177913.5,1.2467777173997773e+17,314460664646099.5,391338382690059.3,104694722373718.7,241847147967787.88,4563314226896693.0,1.166015975752255e+17
21.38666068340997,2461326290252489.0,1.2770691939240613e+17,314563835840350.8,391466776647106.6,107294016306410.27,247907998359110.2,4677748344980474.0,1.1950661213002021e+17
21.91439389707817,2462132162215676.5,1.3079576405415824e+17,314666828352333.06,391594948238431.6,109944068923413.02,254090047164990.38,4794474530977471.0,1.2246886146828568e+17
22.452681775019734,2462937224500619.5,1.3394546751965154e+17,314769717385316.75,391722991052613.9,112645847964169.56,260395720589070.03,4913538818722108.0,1.254894571994376e+17
23.00173541052013,2463742050440841.5,1.3715721346512838e+17,314872576212801.75,391850996276684.6,115400338644137.11,266827493419849.9,5034988169908900.0,1.2856953184022538e+17
23.561770118730532,2464547199425102.0,1.4043220783566454e+17,314975476326114.0,391979052879801.94,118208543930783.9,273387890003299.06,5158870492908564.0,1.317102391801909e+17
24.133005521105144,2465353217981337.0,1.4377167923778805e+17,315078487572929.25,392107247785643.75,121071484822332.42,280079485234988.72,5285234661971308.0,1.3491275465241984e+17
24.715665631527248,2466160640795237.5,1.4717687933775302e+17,315181678287457.3,392235666034415.7,123990200629202.27,286904905572130.75,5414130536825447.0,1.38178275709609e+17
25.309978944157795,2466969991668670.5,1.5064908326549834e+17,315285115412926.6,392364390935281.8,126965749258090.16,293866830065909.25,5545608982679385.0,1.4150802220547832e+17
25.91617852304095,2467781784422721.0,1.5418959002433693e+17,315388864616992.5,392493504209990.2,129999207498635.86,300967991414502.56,5679721890635215.0,1.449032367815387e+17
26.53450209350177,2468596523749540.0,1.577997229063931e+17,315492990400612.8,392623086128362.3,133091671312601.86,308211177037210.4,5816522198522679.0,1.4836518525924192e+17
27.165192135371807,2469414706017120.5,1.614808299138344e+17,315597556200896.3,392753215636283.4,136244256125501.14,315599230170088.7,5956063912161978.0,1.518951570375224e+17
27.808495978079243,2470236820030517.0,1.6523428418590858e+17,315702624488386.6,392883970476776.7,139458097120595.3,323135050983513.8,6098402127064309.0,1.5549446549574445e+17
28.464665897640828,2471063347752898.0,1.6906148443182035e+17,315808256859217.7,393015427304679.25,142734349535184.28,330821597722121.0,6243593050579482.0,1.5916444840206672e+17
29.133959215593645,2471894764989459.0,1.7296385536945686e+17,315914514122518.7,393147661795427.7,146074188959099.53,338661887867541.6,6391694024499429.0,1.629064683272233e+17
29.816638399905518,2472731542037113.5,1.7694284816998845e+17,316021456383447.1,393280748748373.94,149478811635307.6,346658999324389.06,6542763548127548.0,1.6672191306373194e+17
30.51297116790363,2473574144302410.0,1.809999409083481e+17,316129143122159.0,393414762185079.6,152949434762528.88,354816071629959.06,6696861301823346.0,1.7061219605052243e+17
31.223230591261704,2474423032890241.0,1.851366390196041e+17,316237633269043.8,393549775442932.44,156487296799758.12,363136307188091.9,6854048171032075.0,1.7457875680298176e+17
31.947695203086937,2475278665165410.5,1.893544757612237e+17,316346985276503.56,393685861264478.4,160093657772582.16,371622972527690.56,7014386270809941.0,1.7862306134840682e+17
32.686649107148675,2476141495289222.5,1.9365501268123507e+17,316457257187521.7,393823091882746.44,163769799581171.7,380279399586361.2,7177938970854712.0,1.82746602666853e+17
33.44038208929165,2477011974732879.0,1.980398400922747e+17,316568506701280.56,393961539102921.5,167517026309819.84,389108987019670.44,7344770921052559.0,1.8695090113735606e+17
34.20918973107749,2477890552769564.0,2.02510577551522e+17,316680791236049.2,394101274380593.56,171336664537889.75,398115201536535.1,7514948077551744.0,1.9123750498950954e+17
34.993373525699035,2478777676946668.0,2.0706887434648794e+17,316794167989537.44,394242368896873.2,175230063652035.1,407301579261227.3,7688537729374180.0,1.9560799076036733e+17
35.793240996213015,2479673793539842.0,2.1171640998666198e+17,316908693996921.25,394384893630604.06,179198596159537.2,416671727122542.75,7865608525576066.0,2.000639637566365e+17
36.60910581613728,2480579347990162.0,2.164548947009705e+17,317024426186716.4,394528919427891.0,183243658002598.25,426229324270643.06,8046230502969017.0,2.0460705852212326e+17
37.44128793246003,2481494785325663.5,2.212860699410296e+17,317141421434654.25,394674517069149.7,187366668873422.94,435978123522113.25,8230475114413420.0,2.0923893931039142e+17
38.29011369110923,2482420550568678.0,2.2621170889014832e+17,317259736615732.6,394821757333886.1,191569072529911.62,445921952833794.44,8418415257695903.0,2.139613005625705e+17
39.15591596493141,2483357089129820.5,2.3123361697804173e+17,317379428654575.8,394970711063360.9,195852337111771.84,456064716805930.0,8610125305003041.0,2.1877586739027306e+17
40.03903428423004,2484304847189849.0,2.3635363240120163e+17,317500554574232.1,395121449221322.8,200217955456855.78,466410398215217.06,8805681133003853.0,2.2368439606354022e+17
40.93981496991464,2485264272070326.0,2.415736266488723e+17,317623171543549.4,395274042952967.06,204667445417511.8,476963059578319.56,9005160153553673.0,2.2868867450375587e+17
41.85861126931294,2486235812594069.0,2.4689550503456045e+17,317747336923239.06,395428563642253.06,209202350176727.3,487726844746442.8,9208641345032186.0,2.337905227814455e+17
42.7957834946992,2487219919436079.5,2.523212072330157e+17,317873108310725.75,395585082967729.9,213824238563840.62,498705980531574.7,9416205284329380.0,2.389917936188759e+17
