t(s),Total solute volume 1,Total retention volume 1,Total 1 volume 1,Total 2 volume 1,Total 3 volume 1,Total 4 volume 1,Total 5 volume 1,Total 6 volume 1
0.1,964857416365797.9,1154672529873703.2,88762465329957.31,101052648177948.16,0.0,0.0,0.0,0.0
0.202,1453519086983626.5,1739505183605474.2,133717102347193.05,152231772088591.3,51594331.37560322,102973599.77877437,1581217136.7159576,35486400996.44936
0.30604000000000003,1825717680900932.0,2184983133012891.2,167957669246289.38,191213339158337.88,130905457.10244486,261265313.13801232,4011893668.484028,90039642895.94815
0.41216080000000005,2140539316696022.8,2561812525835505.0,196919818625348.53,224185631063716.16,232522774.2062287,464076461.75283605,7126200324.399525,159936650859.27548
0.5204040160000001,2420117675954804.5,2896479640711276.0,222639747886508.62,253466780189386.3,354044961.30628973,706614408.7993535,10850541648.645756,243525479553.52667
0.6308120963200001,2675481090469315.5,3202181469175266.5,246132013075050.06,280211819538233.75,494184083.7708276,986308652.9777888,15145445379.263742,339920154554.5614
0.7434283382464002,2913039468316916.0,3486588400783939.5,267986296393369.78,305092079595560.6,652203924.7144547,1301689829.8014238,19988348194.451267,448614236139.1269
0.8582969050113283,3136899107300151.0,3754614260217012.5,288580358442853.9,328537626261819.75,827689225.8454615,1651929154.6600995,25366523413.41178,569322070395.1581
0.9754628431115548,3349873879409073.0,4009626338680885.0,308173062566069.0,350843165485652.3,1020431996.934471,2036611515.4630501,31273596631.66802,701900579954.4578
1.094972099973786,3553989940536012.5,4254049349067570.5,326950805830321.25,372220903151295.4,1230368557.989329,2455609819.3290205,37707616207.67351,846305955357.3573
1.2168715419732616,3750762810555442.0,4489696988335883.5,345053009126700.25,392829564575030.7,1457541711.3219104,2909009494.354631,44669893925.13122,1002567633574.2715
1.3412089728127268,3941360794219395.5,4717967490570232.0,362587151144411.8,412791510106144.06,1702076609.5162878,3397060326.1177373,52164265403.50304,1170771697943.8232
1.4680331522689813,4126706924686794.0,4939965614101181.0,379638146708833.3,432203412003739.4,1964164645.571018,3920144305.1015506,60196596369.53026,1351049796506.623
1.597393815314361,4307545491291810.0,5156582249156993.0,396274467031673.4,451143222105891.6,2244052315.1572704,4478753397.631858,68774441312.39893,1543571480594.7117
1.729341691620648,4484487096821043.5,5368548333490238.0,412552284774219.1,469674890824564.06,2542033304.614176,5073473754.847058,77906801000.0856,1748538762352.133
1.863928525453061,4658040137173282.0,5576472520848731.0,428518370031937.4,487851664112573.9,2858442752.3800836,5704974259.483308,87603946606.308,1966182167319.188
2.001207095962122,4828633384111583.0,5780868203352807.0,444212167844291.94,505718448628524.4,3193653022.4472446,6373998090.406099,97877290177.35735,2196757827104.2488
2.1412312378813647,4996632558594652.0,5982173343006698.0,459667322865365.2,523313547515599.3,3548070559.0984864,7081356445.200214,108739288237.60683,2440545315843.3164
2.284055862638992,5162352737198227.0,6180765317121033.0,474912820697837.75,540669959766360.94,3922133533.7919893,7827923843.755313,120203369672.44179,2697846031557.888
2.4297369798917723,5326067802305950.0,6376972226357003.0,489973857267285.25,557816369971907.25,4316310084.987211,8614634615.26336,132283881783.39519,2968981985380.9395
2.578331719489608,5488017752265025.0,6571081642055860.0,504872511323034.06,574777913938200.5,4731097010.514524,9442480288.417902,144996050212.64627,3254294902074.788
2.7298983538794,5648414434370907.0,6763347466376150.0,519628271846520.2,591576779120180.6,5167018811.553024,10312507683.36539,158355949643.45837,3554145562410.011
2.884496320956988,5807446096752100.0,6953995379175560.0,534258456803841.8,608232681355421.0,5624627014.370627,11225817558.023535,172380483013.3549,3868913336608.426
3.0421862473761276,5965281042940293.0,7143227211211007.0,548778549349491.44,624763247619128.6,6104499714.956362,12183563699.256334,187087367558.39886,4198995871106.802
3.2030299723236504,6122070595795740.0,7331224490955639.0,563202470493916.6,641184326445665.9,6607241305.212089,13186952376.41188,202495126421.8352,4544808900209.447
3.3670905717701234,6277951523534172.0,7518151347805561.0,577542802286898.4,657510242014234.2,7133482349.187906,14237242094.322344,218623084861.20715,4906786160950.8545
3.5344323832055258,6433048042273294.0,7704156908585960.0,591810972042654.8,673754003882062.6,7683879585.070527,15335743597.28764,235491370309.50507,5285379394459.767
3.7051210308696363,6587473481864057.0,7889377291177729.0,606017405588692.8,689927481452319.9,8259116034.027078,16483820086.324213,253120915711.17587,5681058420825.34
3.879223451487029,6741331681548236.0,8073937274885799.0,620171655659927.0,706041550145870.5,8859901201.079403,17682887620.093052,271533465678.6581,6094311277268.094
4.0568079205167695,6894718167005464.0,8257951709247995.0,634282510181600.5,722106214677232.6,9486971356.299355,18934415676.135338,290751585110.5601,6525644411560.738
4.237944078927105,7047721149131271.0,8441526709555445.0,648358084152316.2,738130713659831.6,10141089887.020746,20239927853.846306,310798669986.34454,6975582924298.843
4.422702960505647,7200422376389900.0,8624760677187618.0,662405898056569.1,754123608875699.0,10823047713.642036,21601002704.366726,331698960109.92236,7444670854913.512
4.61115701971576,7352897866086342.0,8807745175088120.0,676432945138441.4,770092861863942.4,11533663763.073727,23019274675.524242,353477553619.9224,7933471507335.455
4.803380160110075,7505218532769590.0,8990565682802239.0,690445749216001.9,786045899753074.6,12273785494.89043,24496435204.545612,376160438466.00977,8442570404427.837
4.9994477633122765,7657450742910046.0,9173302250222818.0,704450415692287.9,801989673283407.2,13044289477.34678,26034233698.22355,399774448959.69354,8972565364946.701
5.199436718578522,7809656777318449.0,9356030067055854.0,718452674121060.8,817930705344417.0,13846082007.786823,27634479024.187786,424347376005.0887,9524082334884.354
5.403425452950093,7961895254879674.0,9538819960024634.0,732457917171395.4,833875135282193.6,14680099778.147367,29299040671.2741,449907926968.593,10097765623941.178
5.611493962009095,8114221494513526.0,9721738829128880.0,746471233930688.2,849828756826783.2,15547310581.29771,31029850201.06596,476485762389.22736,10694280934700.514
5.823723841249277,8266687835695776.0,9904850031760244.0,760497439391118.8,865797051661379.1,16448714057.62377,32828902737.97883,504111518860.1095,11314315876319.25
6.040198318074262,8419343921585275.0,1.0088213722095462e+16,774541100496057.2,881785219075153.8,17385342480.544815,34698258537.04819,532816833102.9974,11958580504852.848
6.261002284435747,8572236949944729.0,1.0271887151974536e+16,788606559223619.6,897798202243003.9,18358261580.09621,36640044627.692444,562634367209.4985,12627807889764.895
6.486222330124463,8725411896215198.0,1.045592493848174e+16,802697953108502.1,913840711588864.2,19368571403.96278,38656456532.22306,593597835030.0713,13322754706197.775
6.715946776726952,8878911712425080.0,1.0640379302633564e+16,816819233540702.1,929917245618095.0,20417407215.56095,40749760058.29933,625742029698.5028,14044201852727.602
6.950265712261491,9032777505054140.0,1.0825300282908436e+16,830974182128190.4,946032109545761.2,21505940428.949318,42922293164.88687,659102852285.1056,14792955094452.027
7.18927102650672,9187048694509228.0,1.1010735926796634e+16,845166425367944.4,962189431999029.2,22635379580.505775,45176467901.60092,693717341576.7637,15569845731369.23
7.433056447036854,9341763158481426.0,1.1196732463087894e+16,859399447834156.4,978393180031446.5,23806971337.449265,47514772421.583244,729623704986.1843,16375731292099.932
7.681717575977592,9496957361131814.0,1.1383334457225828e+16,873676604062730.6,994647172652967.2,25022001543.402363,49939773068.31175,766861350596.4083,17211496253089.541
7.935351927497144,9652666469781322.0,1.1570584951735486e+16,888001129286203.5,1010955093051268.6,26281796301.30203,52454116536.9517,805470920349.9774,18078052783500.332
8.194058966047088,9808924460551526.0,1.1758525593455274e+16,902376149152235.9,1027320499655853.2,27587723094.060184,55060532111.0501,845494324395.0569,18976341516070.133
8.45794014536803,9965764214210414.0,1.194719674907447e+16,916804688540968.5,1043746836176289.9,28941191943.4622,57761833975.55157,886974776603.5216,19907332344274.457
8.72709894827539,1.012321760331192e+16,1.2136637610279668e+16,931289679581462.8,1060237440728613.0,30343656607.87288,60560923607.2672,929956831278.4124,20872025246182.01
9.0016409272409,1.028131557157869e+16,1.2326886289647188e+16,945833968954555.8,1076795554149338.5,31796615819.388832,63460792244.07638,974486421070.373,21871451135444.94
9.281673745785717,1.044008820635776e+16,1.2517979908274208e+16,960440324558444.5,1093424327583993.1,33301614561.14523,66464523434.27201,1020610896124.7684,22906672739909.188
9.567307220701432,1.059956480487604e+16,1.2709954676020066e+16,975111441603896.2,1110126829426254.0,34860245385.546814,69575295667.58582,1068379064483.0527,23978785508375.69
9.85865336511546,1.0759773934934526e+16,1.2902845965121712e+16,989849948197833.9,1126906051674653.5,36474149774.25108,72796385089.5486,1117841233763.8193,25088918546081.586
10.155826432417769,1.0920743490603578e+16,1.309668837785784e+16,1004658410467039.6,1143764915765730.8,38145019540.788025,76131168300.9472,1169049254150.5647,26238235579509.37
10.458942961066125,1.1082500743415934e+16,1.3291515808856664e+16,1019539337267687.1,1160706277935626.8,39874598276.75301,79583125244.25073,1222056562714.9548,27427935951169.15
10.768121820287448,1.1245072389496974e+16,1.3487361502573458e+16,1034495184521110.6,1177732934156220.5,41664682842.56018,83155842178.97534,1276918229105.7874,28659255645031.945
11.083484256693197,1.1408484593022044e+16,1.3684258106405862e+16,1049528359211670.9,1194847624686536.2,43517124903.79439,86853014748.05917,1333691002635.4856,29933468343329.695
11.405153941827061,1.157276302634698e+16,1.3882237719861198e+16,1064641223078588.8,1212053038275721.2,45433832514.24413,90678451137.40993,1392433360797.3499,31251886515464.637
11.733257020663602,1.1737932907120522e+16,1.4081331940146744e+16,1079836096030107.2,1229351816049994.2,47416771746.74871,94636075330.88264,1453205559248.2146,32615862539809.246
12.067922161076874,1.1904019032653436e+16,1.4281571904512302e+16,1095115259305316.8,1246746555112212.0,49467968373.034325,98729930463.04007,1516069683292.5984,34026789859204.5
12.409280604298411,1.2071045811791026e+16,1.4482988329641008e+16,1110480958406243.2,1264239811879972.5,51589509593.76334,102964182272.12863,1581089700905.8076,35486104170996.91
12.75746621638438,1.223903729450874e+16,1.4685611548352818e+16,1125935405820533.5,1281834105185273.2,53783545820.0611,107343122655.80621,1648331517334.7722,36995284652486.91
13.112615540712067,1.2408017199428844e+16,1.4889471543857998e+16,1141480783552873.2,1299531919156427.8,56052292507.83239,111871173332.22878,1717863031316.8767,38555855222689.19
13.474867851526309,1.2578008939436268e+16,1.509459798177458e+16,1157119245481496.0,1317335705900869.2,58398032046.223915,116552889609.21068,1789754192958.23,40169385841337.53
13.844365208556836,1.2749035645552654e+16,1.53010202401021e+16,1172852919554508.2,1335247888005587.2,60823115701.628914,121392964264.24297,1864077063314.3467,41837493846097.1
14.221252512727972,1.2921120189214016e+16,1.5508767437325502e+16,1188683909839326.8,1353270860870314.2,63329965618.681725,126396231538.26065,1940905875717.4443,43561845328976.8
14.605677562982532,1.3094285203081162e+16,1.5717868458805374e+16,1204614298437144.8,1371406994887090.5,65921076879.72731,131567671246.11967,2020317098895.9697,45344156552966.41
14.997791114242183,1.326855310050155e+16,1.5928351981597986e+16,1220646147273335.5,1389658637478556.5,68599019624.30019,136912413006.85216,2102389501933.3933,47186195409951.266
15.397746936527026,1.344394609372906e+16,1.6140246497832714e+16,1236781499773568.2,1408028115006150.8,71366441230.1911,142435740596.84344,2187204221114.5747,49089782920991.69
15.805701875257567,1.3620486210997758e+16,1.6353580336764416e+16,1253022382434542.8,1426517734558356.5,74226068557.7229,148143096429.17545,2274844828709.486,51056794780082.63
16.221815912762718,1.3798195312538946e+16,1.6568381685607308e+16,1269370806297486.0,1445129785628145.5,77180710258.9087,154040086162.46463,2365397403745.471,53089162942543.1
16.64625223101797,1.397709510562018e+16,1.6784678609246542e+16,1285828768331622.5,1463866541688117.2,80233259153.20407,160132483442.62656,2458950604820.645,55188877259214.6
17.079177275638333,1.4157207158679446e+16,1.7002499068916944e+16,1302398252734533.2,1482730261670804.5,83386694671.61899,166426234781.07703,2555595745012.439,57357987157681.23
17.5207608211511,1.4338552914621362e+16,1.7221870939928522e+16,1319081232155280.2,1501723191361207.5,86644085371.0,172927464572.99088,2655426868936.7793,59598603371757.71
17.97117603757412,1.4521153703334918e+16,1.7442822028513106e+16,1335879668846012.8,1520847564707845.8,90008591520.33987,179642480259.3253,2758540832014.9336,61912899720523.805
18.430599558325603,1.4705030753489102e+16,1.7665380087859972e+16,1352795515747110.2,1540105605058136.5,93483467761.02391,186577777636.41745,2865037382006.45,64303114938214.81
18.899211549492115,1.489020520365649e+16,1.7889572833401718e+16,1369830717510474.2,1559499526323400.5,97072065842.97008,193740046317.06122,2975019242868.1816,66771554556318.87
19.37719578048196,1.5076698112811046e+16,1.8115427957407696e+16,1386987211465313.5,1579031534078351.5,100777837438.66913,201136175347.0734,3088592201000.9834,69320592839256.54
19.864739696091597,1.5264530470243042e+16,1.834297314293778e+16,1404266928530255.2,1598703826599484.0,104604337037.18687,208773258981.4575,3205865193947.074,71952674775063.72
20.36203449001343,1.5453723204929486e+16,1.8572236077203096e+16,1421671794075386.5,1618518595846511.8,108555224920.23636,216658602624.3782,3326950401602.945,74670318122524.23
20.869275179813698,1.5644297194396666e+16,1.8803244464380124e+16,1439203728737545.0,1638478028390528.2,112634270222.48282,224799728937.26328,3451963340013.8984,77476115516244.22
21.38666068340997,1.5836273273106306e+16,1.9036026037917668e+16,1456864649191845.0,1658584306292338.0,116845354078.30186,233204384119.46158,3581022957818.3022,80372736631188.02
21.91439389707817,1.6029672240397086e+16,1.9270608572374416e+16,1474656468882238.8,1678839607934218.8,121192472857.25607,241880544365.98337,3714251735411.1733,83362930408239.19
22.452681775019734,1.6224514868008302e+16,1.9507019894823092e+16,1492581098713651.2,1699246108807838.0,125679741490.62158,250836422506.97098,3851775786898.153,86449527342385.33
23.00173541052013,1.6420821907211386e+16,1.974528789585246e+16,1510640447708061.2,1719805982261216.2,130311396891.33914,260080474833.64944,3993724964913.144,89635441835160.4
23.561770118730532,1.6618614095572988e+16,1.9985440540197668e+16,1528836423626680.5,1740521400207032.5,135091801469.83218,269621408115.62177,4140232968374.1143,92923674613023.97
24.133005521105144,1.6817912163371228e+16,2.0227505877026264e+16,1547170933560193.0,1761394533794603.2,140025446748.18478,279468186814.4885,4291437453253.498,96317315213384.45
24.715665631527248,1.7018736839684876e+16,2.0471512049905516e+16,1565645884488961.8,1782427554047633.8,145116957075.2281,289630040498.88556,4447480146441.534,99819544540026.34
25.309978944157795,1.72211088581735e+16,2.0717487306475228e+16,1584263183814755.0,1803622632469600.0,150371093445.14734,300116471466.1426,4608506962782.339,103433637489729.31
25.91617852304095,1.7425048962565688e+16,2.096546000784709e+16,1603024739865649.0,1824981941618526.0,155792757422.27405,310937262575.89355,4774668125364.478,107162965651908.61
26.53450209350177,1.7630577911870088e+16,2.121545863775108e+16,1621932462375413.8,1846507655652772.0,161386995174.7928,322102485301.0726,4946118289149.65,111011000083155.64
27.165192135371807,1.7837716485323304e+16,2.1467511811447464e+16,1640988262938688.0,1868201950849231.8,167159001620.1358,333622508001.8553,5123016668024.661,114981314158577.39
27.808495978079243,1.8046485487086376e+16,2.1721648284421024e+16,1660194055443055.8,1890067006095211.2,173114124684.9178,345508004428.19855,5305527165363.601,119077586501894.16
28.464665897640828,1.8256905750701452e+16,2.1977896960872264e+16,1679551756479025.8,1912105003355204.5,179257869682.2929,357769962456.78546,5493818508189.191,123303603996275.75
29.133959215593645,1.8468998143317624e+16,2.223628690201966e+16,1699063285728783.8,1934318128113452.2,185595903809.6988,370419693068.2403,5688064385023.603,127663264877943.08
29.816638399905518,1.868278356969324e+16,2.2496847334223252e+16,1718730566334419.5,1956708569793153.5,192134060769.97226,383468839570.61774,5888443587520.524,132160581914592.72
30.51297116790363,1.8898282975982096e+16,2.275960765694053e+16,1738555525246179.5,1979278522152953.5,198878345518.9068,396929387075.2542,6095140155972.426,136799685670736.64
31.223230591261704,1.9115517353306396e+16,2.302459745052104e+16,1758540093551208.5,2002030183661202.8,205834939142.33435,410813672231.1661,6308343528787.382,141584827862081.1
31.947695203086937,1.9334507741119892e+16,2.3291846483845268e+16,1778686206782947.2,2024965757848157.8,213010203865.87646,425134393224.2534,6528248696032.093,146520384801094.66
32.686649107148675,1.9555275230360916e+16,2.3561384721809584e+16,1798995805211156.8,2048087453636213.5,220410688200.5276,439904620047.6418,6755056357137.662,151610860935931.6
33.44038208929165,1.9777840966392844e+16,2.383324233265827e+16,1819470834112471.0,2071397485647881.2,228043132227.27274,455137805049.52795,6988973082866.589,156860892484910.62
34.20918973107749,2.0002226151726976e+16,2.410744969515595e+16,1840113244020856.5,2094898074490932.5,235914473023.94687,470847793764.9484,7230211481638.726,162275251168732.12
34.993373525699035,2.0228452048519188e+16,2.43840374055957e+16,1860924990957309.8,2118591447019932.0,244031850237.54224,487048836037.8903,7478990370315.224,167858848042646.72
35.793240996213015,2.0456539980828532e+16,2.466303628462841e+16,1881908036637627.5,2142479836572702.0,252402611805.17365,503755597440.1037,7735534949537.899,173616737430756.25
36.60910581613728,2.0686511336620624e+16,2.4944477383896732e+16,1903064348656739.2,2166565483180256.0,261034319826.8661,520983170992.98035,8000076983721.685,179554120964618.28
37.44128793246003,2.0918387569496628e+16,2.5228391992452068e+16,1924395900647712.0,2190850633747784.2,269934756593.284,538747089198.69684,8272854985795.187,185676351728291.78
38.29011369110923,2.115219020011951e+16,2.5514811642922372e+16,1945904672413003.0,2215337542204057.5,279111930771.4455,557063336386.7181,8554114406783.175,191988938511897.8
39.15591596493141,2.1387940817306744e+16,2.580376811739876e+16,1967592650024963.2,2240028469615901.8,288574083751.3679,575948361381.522,8844107830320.445,198497550175712.1
40.03903428423004,2.1625661078750684e+16,2.609529345299199e+16,1989461825892119.5,2264925684263597.5,298329696156.44214,595419090497.145,9143095172183.545,205208020126699.38
40.93981496991464,2.1865372711320388e+16,2.6389419947009384e+16,2011514198786925.2,2290031461672496.5,308387494520.17206,615492940863.8171,9451343884920.734,212126350909292.7
41.85861126931294,2.210709751089072e+16,2.6686180161687892e+16,2033751773830057.2,2315348084595154.0,318756458131.7031,636187834091.501,9769129167654.205,219258718912065.38
42.7957834946992,2.235085734163772e+16,2.698560692841003e+16,2056176562425581.8,2340877842937500.0,329445826052.28937,657522210274.659,10096734181120.89,226611479191763.88
43.751699164593184,2.259667413472696e+16,2.7287733351319308e+16,2078790582140278.0,2366623033621468.0,340465104304.5549,679515042341.9314,10434450268008.42,234191170415966.12
44.72673314788505,2.2844569886314268e+16,2.7592592810237596e+16,2101595856519737.5,2392585960375603.0,351824073236.0325,702185850753.6989,10782577178631.484,242004519925364.22
