t(s),Total solute volume 1,Total retention volume 1,Total 1 volume 1,Total 2 volume 1,Total 3 volume 1,Total 4 volume 1,Total 5 volume 1,Total 6 volume 1
0.1,919935341976466.9,1072551036543860.6,72903600131805.52,79712094435588.67,0.0,0.0,0.0,0.0
0.202,1384961521608431.5,1616783022824887.8,109756280207134.34,120006460594145.5,3533784595.9823055,6627901457.086216,92719254958.58817,1955879474163.0408
0.30604000000000003,1738344864297366.8,2031953100628024.2,137761420142313.84,150627011180050.16,8959415494.072304,16804137224.900013,235077663471.7066,4958963792106.005
0.41216080000000005,2036574789492847.8,2383703917942812.5,161395728202554.72,176468536215254.75,15902328606.65767,29826192245.917927,417247256839.4472,8801888254462.596
0.5204040160000001,2300810743296167.0,2696607425423223.5,182336061161685.7,199364494787454.84,24194649746.87481,45379214650.431786,634823444514.2328,13391728869004.494
0.6308120963200001,2541597081916673.5,2982903987114009.0,201418044630985.94,220228551905601.78,33744926298.016453,63291687148.60213,885406813451.3529,18677865233852.223
0.7434283382464002,2765062486243045.0,3249707768094146.5,219127368073750.78,239591755757489.03,44499514657.863106,83463006353.13269,1167589994571.0215,24630605504278.266
0.8582969050113283,2975132406724509.5,3501576969152648.5,235775117995452.47,257794245335678.6,56426702964.43352,105833703842.33348,1480541071834.428,31232397618369.14
0.9754628431115548,3174495718531373.5,3741636285500278.5,251574384025152.3,275069010790565.53,69508879765.0932,130370757981.84465,1823798103388.6125,38473494412048.56
1.094972099973786,3365087311808123.5,3972137027256236.0,266678503524002.3,291583709717574.25,83738190557.15477,157059447501.24414,2197155158164.618,46349549410315.37
1.2168715419732616,3548353088667149.0,4194764555195096.0,281202062229596.34,307463629059722.6,99113922428.28485,185898446245.09332,2600593694575.434,54860169175373.69
1.3412089728127268,3725406292997130.0,4410819570422893.5,295233283176538.56,322805231034200.1,115640830642.18692,216896684609.12766,3034238654054.851,64007987045716.86
1.4680331522689813,3897125052193583.0,4621331184581170.0,308841756743348.56,337684605091300.9,133328016935.771,250071245750.55002,3498329030438.7065,73798042259814.89
1.597393815314361,4064216046022096.0,4827130696910286.0,322083486321594.44,352162984800505.44,152188149673.22983,285445902975.58563,3993197409010.1826,84237348304432.67
1.729341691620648,4227257636488061.0,5028901554078208.0,335004306298265.06,366290485039535.0,172236905654.1244,323050072855.5636,4519255321321.67,95334583952521.92
1.863928525453061,4386730006709333.0,5227214250752800.0,347642270519647.56,380108713517764.94,193492561114.73544,362918048166.5741,5076982514569.478,107099866882193.7
2.001207095962122,4543036785676029.0,5422551363960216.0,360029366023548.25,393652644554553.44,215975686355.69913,405088425188.8506,5666918939935.938,119544584654599.44
2.1412312378813647,4696520921077227.0,5615325924350450.0,372192770938806.3,406951994454465.2,239708914302.94604,449603669674.82355,6289658680817.724,132681266615158.3
2.284055862638992,4847476563021900.0,5805895168025844.0,384155796253701.06,420032251227784.0,264716763055.99377,496509784076.0048,6945845297600.79,146523485677735.44
2.4297369798917723,4996158117154992.0,5994571011613018.0,395938603262841.75,432915459040048.3,291025498668.51373,545856050230.2772,7636168228078.593,161085782378145.38
2.578331719489608,5142787248308817.0,6181628155653088.0,407558758596837.6,445620825076134.2,318663028455.36194,597694829305.8074,8361359988855.125,176383605824680.4
2.7298983538794,5287558373462106.0,6367310440392771.0,419031669531680.8,458165195503368.0,347658817837.65076,652081405894.5,9122193994372.957,192433267677498.62
2.884496320956988,5430643023184491.0,6551835893073618.0,430370929627177.3,470563433389244.0,378043825602.95215,709073866646.7074,9919482859153.553,209251906321285.84
3.0421862473761276,5572193343288320.0,6735400781296802.0,441588596227994.2,482828722118409.1,409850453764.4358,768733006289.8933,10754077083122.916,226857459118889.44
3.2030299723236504,5712344934603918.0,6918182901532787.0,452695415511919.6,494972811458258.75,443112509134.8509,831122255622.0043,11626864044352.04,245268641149567.1
3.3670905717701234,5851219177177237.0,7100344272058937.0,463701006679292.1,507006218949889.5,477865174406.9692,896307627337.7635,12538767241270.87,264504929209494.44
3.5344323832055258,5988925148494852.0,7282033357116600.0,474614013969682.1,518938396121677.25,514144987029.3251,964357676478.6384,13490745739460.617,284586550127405.6
3.7051210308696363,6125561218865771.0,7463386918426823.0,485442233093681.4,530777866728576.7,551989824536.8195,1035343472992.5115,14483793787856.543,305534472653425.8
3.879223451487029,6261216387722413.0,7644531567787824.0,496192717132909.06,542532342542168.8,591438895275.6388,1109338584414.1724,15518940576536.742,327370402334111.2
4.0568079205167695,6395971410259137.0,7825585077876767.0,506871865824546.8,554208820973516.25,632532733675.6316,1186419067078.3489,16597250113879.705,350116778904936.6
4.237944078927105,6529899753077803.0,8006657495944220.0,517485501294928.4,565813667879534.5,675313199388.0975,1266663464586.27,17719821205197.7,373796775822766.6
4.422702960505647,6663068409369803.0,8187852095672016.0,528038932661580.7,577352688198252.8,719823479735.3066,1350152812487.5042,18887787518320.77,398434301631825.0
4.61115701971576,6795538597937059.0,8369266195265655.0,538537011429674.75,588831186518745.4,766108095018.911,1436970648327.8423,20102317724253.203,424054002912574.4
4.803380160110075,6927366365547630.0,8550991864293427.0,548984179227869.5,600254019275060.2,814212906314.3594,1527203026364.062,21364615703119.855,450681268607061.7
4.9994477633122765,7058603108378217.0,8733116537457934.0,559384509131908.2,611625639929025.1,864185125442.0883,1620938536365.8196,22675920807293.598,478342235549683.25
5.199436718578522,7189296025357523.0,8915723550089685.0,569741741591444.4,622950138252313.9,916073326857.6545,1718268326021.2463,24037508174940.84,507063795060589.5
5.403425452950093,7319488513900454.0,9098892607466698.0,580059315791442.5,634231274616675.6,969927461244.3881,1819286126540.523,25450689088309.25,536873600482010.8
5.611493962009095,7449220516672142.0,9282700197925952.0,590340397132730.6,645472510040930.9,1025798870625.9658,1924088281115.2075,26916811371970.098,567800075556444.2
5.823723841249277,7578528826535829.0,9467219958017854.0,600587901398711.5,656677032614596.0,1083740304843.9567,2032773775942.9204,28437259826954.656,599872423560962.8
6.040198318074262,7707447355641523.0,9652522996570800.0,610804516080248.5,667847780814338.2,1143805939268.2322,2145444273569.7827,30013456697318.547,633120637124539.2
6.261002284435747,7836007373639150.0,9838678183411792.0,620992719253749.1,678987464145057.0,1206051393626.9758,2262204148338.4424,31646862166168.867,667575508665735.8
6.486222330124463,7964237719207164.0,1.0025752407571408e+16,631154796344493.9,690098581468777.5,1270533751858.7056,2383160523758.9883,33338974878595.496,703268641396758.5
6.715946776726952,8092164988435315.0,1.0213810809050036e+16,641292855055722.2,701183437327948.8,1337311582901.9407,2508423311644.5957,35091332489297.86,740232460847205.5
6.950265712261491,8219813703063667.0,1.0402916987603386e+16,651408838701335.0,712244156523295.5,1406444962349.108,2638105252874.5635,36905512232983.31,778500226866909.1
7.18927102650672,8347206461134272.0,1.0593133191489684e+16,661504538144836.5,723282697167751.2,1477995494900.4827,2772321959664.7935,38783131515859.77,818106046072395.0
7.433056447036854,8474364072241570.0,1.0784520488694602e+16,671581602517730.8,734300862405849.5,1552026337562.1611,2911191959240.5747,40725848526753.945,859084884705912.1
7.681717575977592,8601305679257302.0,1.0977138922793064e+16,681641548866069.2,745300310961144.8,1628602223538.2705,3054836738818.9336,42735362866555.984,901472581879614.5
7.935351927497144,8728048868145853.0,1.1171047655304832e+16,691685770853141.2,756282566651680.9,1707789486773.8525,3203380791818.946,44813416194850.055,945305863180718.6
8.194058966047088,8854609767265763.0,1.1366305096150382e+16,701715546629008.9,767249026994443.2,1789656087109.3625,3356951665227.1836,46961792892713.01,990622354616113.5
8.45794014536803,8981003137368957.0,1.156296902359764e+16,711732045962793.6,778200971003748.8,1874271636012.229,3515680008053.689,49182320740776.71,1037460596877288.1
8.72709894827539,9107242453349798.0,1.1761096694909618e+16,721736336721190.9,789139566274773.2,1961707422854.3416,3679699620820.713,51476871611745.58,1085860059908448.5
9.0016409272409,9233339978663038.0,1.1960744948747746e+16,731729390765998.8,800065875431858.2,2052036441707.7617,3849147506032.1406,53847362176644.5,1135861157762443.5
9.281673745785717,9359306833214898.0,1.2161970300253516e+16,741712089334358.1,810980862011232.1,2145333418633.48,4024163919577.2974,56295754624145.37,1187505263730685.0
9.567307220701432,9485153055431370.0,1.2364829029617646e+16,751685227957622.8,821885395839225.8,2241674839440.67,4204892423026.828,58824057392383.836,1240834725734557.5
9.85865336511546,9610887659125816.0,1.2569377264848084e+16,761649520967997.9,832780257959809.4,2341138977895.9478,4391479936782.7827,61434325912734.836,1295892881967059.8
10.155826432417769,9736518685711514.0,1.2775671059364598e+16,771605605636349.8,843666145158826.0,2443805924364.005,4584076794048.454,64128663365068.3,1352724076774428.0
10.458942961066125,9862053252245000.0,1.2983766464974356e+16,781554045979530.1,854543674126885.5,2549757614862.922,4782836795586.792,66909221444045.55,1411373676768461.2
10.768121820287448,9987497595727304.0,1.3193719600719598e+16,791495336271236.9,865413385298102.1,2659077860518.64,4987917265239.219,69778201136064.766,1471888087161123.5
11.083484256693197,1.0112857114046322e+16,1.3405586718034444e+16,801429904286601.1,876275746397692.8,2771852377404.808,5199479106178.962,72737853506495.44,1534314768313771.0
11.405153941827061,1.0238136403898108e+16,1.3619424262598962e+16,811358114307416.0,887131155727874.6,2888168816755.412,5417686857876.085,75790480496878.88,1598702252494063.8
11.733257020663602,1.0363339295991502e+16,1.383528893323727e+16,821280269912044.9,897979945218323.8,3008116795538.525,5642708753752.843,78938435731799.84,1665100160834289.2
12.067922161076874,1.0488468887806166e+16,1.4053237738169736e+16,831196616571463.4,908822383264645.4,3131787927381.114,5874716779510.678,82184125335167.03,1733559220485392.8
12.409280604298411,1.0613527574147534e+16,1.42733280488974e+16,841107344070683.4,919658677375957.4,3259275853835.282,6113886732111.935,85530008755667.31,1804131281961635.8
12.75746621638438,1.0738517075716352e+16,1.449561765196758e+16,851012588772857.1,930488976650428.6,3390676275977.9033,6360398279401.175,88978599601179.86,1876869336671343.8
13.112615540712067,1.0863438465889484e+16,1.4720164798845352e+16,860912435741612.8,941313374095821.0,3526086986336.0605,6614435020352.886,92532466481971.0,1951827534629746.8
13.474867851526309,1.098829219588828e+16,1.49470282540941e+16,870806920735620.5,952131908810325.4,3665607901131.936,6876184545933.989,96194233862500.67,2029061202350317.2
13.844365208556836,1.1113078118494436e+16,1.517626734204681e+16,880696032088041.2,962944568037540.2,3809341092841.5273,7145838500571.466,99966582921715.66,2108626860911648.8
14.221252512727972,1.1237795510457826e+16,1.5407941992134576e+16,890579712482306.5,973751289108093.0,3957390823062.5483,7423592644216.779,103852252421704.56,2190582244197384.2
14.605677562982532,1.1362443093726364e+16,1.5642112783022538e+16,900457860634561.4,984551961279202.8,4109863575687.6333,7709646915000.853,107854039584632.16,2274986317307074.5
14.997791114242183,1.1487019055617144e+16,1.5878840985689008e+16,910330332892201.5,995346427482494.6,4266868090379.9805,8004205492474.487,111974800977883.14,2361899295136457.5
15.397746936527026,1.161152106803557e+16,1.6118188605573144e+16,920196944756965.0,1006134485989359.2,4428515396349.257,8307476861431.361,116217453407373.6,2451382661126082.5
15.805701875257567,1.1735946305841252e+16,1.6360218423903432e+16,930057472340393.9,1016915892002313.8,4594918846426.709,8619673876311.9795,120584974819008.12,2543499186177741.0
16.221815912762718,1.1860291464448402e+16,1.6604994038311598e+16,939911653758648.4,1027690359180097.5,4766194151439.073,8941013826188.736,125080405208289.81,2638312947738521.0
16.64625223101797,1.198455277674275e+16,1.6852579902825798e+16,949759190473149.2,1038457561103511.8,4942459414881.917,9271718500334.389,129706847538107.98,2735889349053052.5
17.079177275638333,1.2108726029388172e+16,1.710304136733121e+16,959599748582855.8,1049217132688368.9,5123835167894.065,9612014254377.146,134467468664760.25,2836295138584773.0
17.5207608211511,1.2232806578590332e+16,1.7356444716576876e+16,969432960073507.6,1059968671551433.5,5310444404535.392,9962132077048.63,139365500272284.33,2939598429607726.5
17.97117603757412,1.2356789365378988e+16,1.7612857208803376e+16,979258424028725.5,1070711739334601.5,5502412617371.673,10322307657531.273,144404239815205.66,3045868719970940.0
18.430599558325603,1.2480668930464346e+16,1.7872347114058378e+16,989075707807367.9,1081445862992215.1,5699867833370.659,10692781453415.299,149587051469831.1,3155176912037840.0
18.899211549492115,1.2604439428718988e+16,1.8134983752263664e+16,998884348191199.5,1092170536045916.0,5902940650115.159,11073798759275.648,154917367094245.72,3267595332803947.5
19.37719578048196,1.2728094643331586e+16,1.8400837531091056e+16,1008683852506536.9,1102885219811054.1,6111764272339.274,11465609775882.69,160398687197201.38,3383197754196462.5
19.864739696091597,1.2851627999674586e+16,1.8669979983701164e+16,1018473699723269.6,1113589344598319.8,6326474548795.611,11868469680061.793,166034581916104.66,3502059413560042.5
20.36203449001343,1.297503257892472e+16,1.8942483806395704e+16,1028253341534245.2,1124282310893955.4,6547210009461.958,12282638695218.691,171828692004355.16,3624257034333737.0
20.869275179813698,1.3098301131470912e+16,1.9218422896228784e+16,1038022203417844.5,1134963490521556.0,6774111903097.226,12708382162550.621,177784729828299.97,3749868846924507.5
21.38666068340997,1.3221426090141864e+16,1.9497872388622028e+16,1047779685686232.5,1145632227788216.2,7007324235157.538,13145970612964.506,183906480374114.34,3878974609783490.0
21.91439389707817,1.3344399583281184e+16,1.9780908695022884e+16,1057525164521558.4,1156287840617512.0,7246993806084.415,13595679839725.783,190197802264934.75,4011655630691856.0
22.452681775019734,1.3467213447696874e+16,2.0067609540644684e+16,1067257993002174.2,1166929621671531.0,7493270249978.443,14057790971864.621,196662628788614.44,4147994788263642.5
23.00173541052013,1.3589859241507508e+16,2.035805400232445e+16,1076977502120687.8,1177556839464040.0,7746306073672.616,14532590548366.922,203304968936503.5,4288076553673624.0
23.561770118730532,1.371232825690669e+16,2.0652322546530876e+16,1086683001795512.6,1188168739466471.0,8006256696221.0625,15020370593181.68,210128908453670.84,4431987012619176.5
24.133005521105144,1.383461153286342e+16,2.095049706755546e+16,1096373781877371.4,1198764545208444.2,8273280488820.018,15521428691076.852,217138610901045.34,4579813887525328.0
24.715665631527248,1.3956699867775606e+16,2.1252660925914704e+16,1106049113152056.2,1209343459374163.0,8547538815179.027,16036068064379.791,224338318729961.7,4731646560003388.0
25.309978944157795,1.4078583832090012e+16,2.1558898986993016e+16,1115708248340548.1,1219904664895935.2,8829196072361.701,16564597650639.578,231732354369644.75,4887576093573900.0
25.91617852304095,1.4200253780901638e+16,2.1869297659951916e+16,1125350423097502.0,1230447326045919.5,9118419732116.62,17107332181251.332,239325121328194.88,5047695256665332.0
26.53450209350177,1.4321699866542702e+16,2.2183944936931004e+16,1134974857008899.0,1240970589526938.5,9415380382720.059,17664592261085.473,247121105307669.3,5212098545900980.0
27.165192135371807,1.4442912051170016e+16,2.2502930432563988e+16,1144580754589583.5,1251473585563174.5,9720251771353.598,18236704449166.156,255124875333890.5,5380882209686800.0
27.808495978079243,1.4563880119357728e+16,2.2826345423833148e+16,1154167306281222.8,1261955428991337.5,10033210847041.006,18824001340446.574,263341084901642.1,5554144272113743.0
28.464665897640828,1.4684593690701052e+16,2.3154282890282844e+16,1163733689451130.2,1272415220352764.8,10354437804169.502,19426821648730.938,271774473135951.4,5731984557189086.0
29.133959215593645,1.4805042232434944e+16,2.348683755461308e+16,1173279069392278.2,1282852046986819.0,10684116126622.205,20045510290793.867,280429865970178.97,5914504713411421.0
29.816638399905518,1.4925215072070138e+16,2.3824105923671784e+16,1182802600324690.0,1293264984125805.0,11022432632549.99,20680418471752.9,289312177341682.6,6101808238705174.0
30.51297116790363,1.5045101410047638e+16,2.4166186329865344e+16,1192303426398293.2,1303653095991489.0,11369577519810.492,21331903771749.0,298426410405834.94,6294000505730488.0
31.223230591261704,1.5164690332412032e+16,2.451317897300349e+16,1201780682697242.8,1314015436893205.0,11725744412105.56,22000330233994.348,307777658769224.7,6491188787585699.0
31.947695203086937,1.5283970823501012e+16,2.48651859625964e+16,1211233496245577.2,1324351052327431.2,12091130405847.215,22686068454246.938,317371107742878.3,6693482283919401.0
32.686649107148675,1.5402931778649758e+16,2.5222311360618636e+16,1220660987014009.2,1334658980078600.2,12465936117784.594,23389495671775.18,327212035616376.56,6900992147470341.0
33.44038208929165,1.5521562016905406e+16,2.558466122475628e+16,1230062268927521.5,1344938251320814.0,12850365733424.092,24110995861875.586,337305814953768.4,7113831511053458.0
34.20918973107749,1.563985029374693e+16,2.595234365214969e+16,1239436450873407.8,1355187891720007.2,13244627056277.504,24850959830009.93,347657913912198.8,7332115515010840.0
34.993373525699035,1.5757785313804476e+16,2.6325468823646732e+16,1248782637709267.8,1365406922536073.8,13648931557971.068,25609785307628.74,358273897584196.75,7555961335147068.0
35.793240996213015,1.5875355743570714e+16,2.6704149048577788e+16,1258099931270360.5,1375594361724321.0,14063494429251.951,26387877049748.914,369159429364574.56,7785488211168814.0
36.60910581613728,1.5992550224096786e+16,2.70884988100656e+16,1267387431375732.8,1385749225035547.5,14488534631926.727,27185646934356.945,380320272342928.0,8020817475648302.0
37.44128793246003,1.6109357383663194e+16,2.7478634810878956e+16,1276644236832374.0,1395870527113973.5,14924274951768.479,28003514063705.85,391762290722712.6,8262072583531193.0
38.29011369110923,1.6225765850416226e+16,2.7874676019842428e+16,1285869446436645.5,1405957282592197.2,15370942052428.83,28841904867579.055,403491451267915.06,8509379142209436.0
39.15591596493141,1.6341764264959224e+16,2.8276743718810324e+16,1295062159972102.2,1416008507182203.5,15828766530391.424,29701253208592.418,415513824778308.6,8762864942179522.0
40.03903428423004,1.6457341292887102e+16,2.8684961550213356e+16,1304221479202855.5,1426023218761503.8,16297982971004.06,30582000489606.46,427835587594321.1,9022659988306996.0
40.93981496991464,1.65724856372525e+16,2.909945556518669e+16,1313346508861479.5,1436000438453282.8,16778830005625.574,31484595763321.473,440463023132523.9,9288896531718002.0
41.85861126931294,1.6687186050950112e+16,2.9520354272285332e+16,1322436357630475.2,1445939191699555.0,17271550369924.92,32409495844128.035,453402523452761.75,9561709102338352.0
42.7957834946992,1.6801431349007302e+16,2.9947788686794268e+16,1331490139116252.8,1455838509326070.8,17776390963368.242,33357165422283.53,466660590857928.3,9841234542101036.0
43.751699164593184,1.6915210420765624e+16,3.0381892380638004e+16,1340506972814537.0,1465697428597908.5,18293602909930.6,34328077180488.59,480243839527389.9,1.0127612038842084e+16
44.72673314788505,1.7028512241940868e+16,3.0822801532894956e+16,1349485985066080.5,1475514994264426.0,18823441620067.39,35322711912931.086,494158997185056.94,1.042098316090552e+16
