t(s),Total solute volume 1,Total retention volume 1,Total 1 volume 1,Total 2 volume 1,Total 3 volume 1,Total 4 volume 1,Total 5 volume 1,Total 6 volume 1
0.1,1390364305082634.2,4522349373840332.0,1040967157064613.5,2091017911693084.5,0.0,0.0,0.0,-7.577716622845604e-138
0.202,2068366955116473.2,6764986335912514.0,1548588632872562.8,3110692737130305.0,6270141434.2798815,29940316200.80847,1554131965989.2173,35747668369548.52
0.30604000000000003,2582720178721369.5,8499235781339842.0,1933685487889543.5,3884247711131639.0,15815326643.663713,75525724629.52217,3944626715761.7227,94546435830250.23
0.41216080000000005,3013028895872976.0,9978475360206652.0,2255858115263899.5,4531404913551728.0,27953052985.35107,133493846778.39325,6990117038611.198,171031871579670.7
0.5204040160000001,3390532007080335.5,1.1301748394570128e+16,2538495122827059.0,5099145779668433.0,42362359527.90842,202311425526.91937,10608356236386.232,262722454972846.72
0.6308120963200001,3730988926095629.0,1.2518902964873308e+16,2793395603406719.5,5611171498246286.0,58858315075.11191,281095114310.0729,14752358181888.598,368254625513402.8
0.7434283382464002,4043613565869085.0,1.3659037480601942e+16,3027458024699093.5,6081339221260596.0,77323294892.94421,369283087498.094,19392335549555.15,486787726841221.44
0.8582969050113283,4334329915938007.5,1.4740848016821662e+16,3245117684632819.5,6518558258466178.0,97678533060.45671,466499135175.28424,24508378971849.277,617769601144587.1
0.9754628431115548,4607206902619736.0,1.577718183246437e+16,3449420993062271.5,6928948019753200.0,119870020629.44643,572485299552.859,30086856344209.086,760826705364768.0
1.094972099973786,4865178427666932.0,1.6777318456913012e+16,3642564565605773.0,7316920908917138.0,143860645772.98965,687064330786.539,36118413745117.805,915705216001501.9
1.2168715419732616,5110440212130598.0,1.7748224516937626e+16,3826192341127160.5,7685779152204085.0,169625435828.42667,810116960292.0852,42596768086904.305,1082236300992759.9
1.3412089728127268,5344684593107430.0,1.869529470452613e+16,4001571374340234.0,8038067917983534.0,197148494405.20557,941567270932.2325,49517931077883.555,1260314172251711.8
1.4680331522689813,5569247388727905.0,1.9622814323713816e+16,4169701793798196.5,8375796192507753.0,226420933523.64398,1081372820077.7206,56879685859115.875,1449881469067253.5
1.597393815314361,5785203972964922.0,2.053426126975325e+16,4331388733214881.5,8700581270403723.0,257439423518.65414,1229517713436.632,64681220291596.12,1650919115741159.0
1.729341691620648,5993434488595969.0,2.1432510597969384e+16,4487291156485114.5,9013746830875178.0,290205144191.0533,1386007595426.0466,72922861883543.25,1863439047389944.8
1.863928525453061,6194669503581591.0,2.2319977465621948e+16,4637956040667827.0,9316391602026546.0,324723006449.12366,1550865931515.6309,81605881180299.03,2087478849227737.5
2.001207095962122,6389522828755110.0,2.319871968244243e+16,4783842946628081.0,9609438716603960.0,361001062074.30646,1724131189121.424,90732342738860.64,2323097715465208.5
2.1412312378813647,6578515648540009.0,2.40705129762795e+16,4925342085732741.0,9893672003075036.0,399050047853.18604,1905854660278.2505,100304990071432.12,2570373344152151.5
2.284055862638992,6762094618302881.0,2.493690733976259e+16,5062787869359251.0,1.0169763202907702e+16,438883027910.7269,2096098753351.5903,110327155404053.05,2829399512007444.0
2.4297369798917723,6940645674660024.0,2.5799269956138604e+16,5196469248687970.0,1.043829274040093e+16,480515109270.19556,2294935634500.987,120802687932159.6,3100284153713766.5
2.578331719489608,7114504737740732.0,2.6658818411311036e+16,5326637727498814.0,1.069976581821389e+16,523963212994.9233,2502446134617.002,131735896111168.31,3383147822398836.0
2.7298983538794,7283966119581706.0,2.7516646748589332e+16,5453513657545679.0,1.0954625063060706e+16,569245888192.7789,2718718860980.987,143131500766932.3,3678122442885126.5
2.884496320956988,7449289212309110.0,2.837374616503313e+16,5577291246005981.0,1.1203260584314382e+16,616383159550.2424,2943849469069.8203,154994596667582.1,3985350293107465.0
3.0421862473761276,7610703867646034.0,2.923102163819384e+16,5698142583123921.0,1.1446018064446354e+16,665396401438.035,3177940061272.0366,167330620798907.4,4304983165715911.5
3.2030299723236504,7768414767811623.0,3.008930542173268e+16,5816220914707641.0,1.1683205332582992e+16,716308233326.5332,3421098687383.619,180145326014298.12,4637181673695375.0
3.3670905717701234,7922605009841607.0,3.094936810342936e+16,5931663325714026.0,1.191509775509724e+16,769142432480.6255,3673438927633.466,193444759041471.72,4982114672374893.0
3.5344323832055258,8073439069831347.0,3.1811927744986504e+16,6044592959580852.0,1.2141942693642978e+16,823923860810.7937,3935079543321.337,207235242057448.97,5339958776469740.0
3.7051210308696363,8221065273498597.0,3.2677657497431572e+16,6155120867939888.0,1.2363963220725392e+16,880678403434.5881,4206144183386.295,221523357214348.06,5710897955466516.0
3.879223451487029,8365617870101489.0,3.3547191994067104e+16,6263347563361630.0,1.258136123874258e+16,939432917014.6072,4486761137669.055,236315933627874.25,6095123194178847.0
4.0568079205167695,8507218784980588.0,3.44211327549032e+16,6369364331485543.0,1.279432011569805e+16,1000215186330.4156,4777063129500.531,251620036439209.66,6492832207983998.0
4.237944078927105,8645979109669922.0,3.530005278555552e+16,6473254346667769.0,1.3003006926233582e+16,1063053887844.0785,5077187141692.518,267442957637307.62,6904229204317394.0
4.422702960505647,8782000376148352.0,3.618450051501524e+16,6575093626014722.0,1.3207574368022752e+16,1127978559254.568,5387274271131.743,283792208388101.25,7329524683610959.0
4.61115701971576,8915375652330621.0,3.707500318719959e+16,6674951849578328.0,1.3408162409320186e+16,1195019574221.6477,5707469608063.648,300675512663890.06,7768935274124300.0
4.803380160110075,9046190488578688.0,3.7972069798423736e+16,6772893069010178.0,1.3604899712454878e+16,1264208121586.7495,6037922136853.944,318100802003286.56,8222683596118258.0
4.9994477633122765,9174523739311022.0,3.887619365521532e+16,6868976322701337.0,1.379790486947848e+16,1335576188535.723,6378784655576.73,336076211261711.25,8690998151618635.0
5.199436718578522,9300448279307082.0,3.9787854612985144e+16,6963256172080328.0,1.3987287479442164e+16,1409156547242.7866,6730213712228.741,354610075236267.06,9174113236659816.0
5.403425452950093,9424031630758404.0,4.070752104507278e+16,7055783171086938.0,1.4173149091441644e+16,1484982744611.3486,7092369555734.349,373710926068107.06,9672268873417326.0
5.611493962009095,9545336514290688.0,4.1635651582930824e+16,7146604278723082.0,1.4355584033319604e+16,1563089094789.683,7465416100203.108,393387491341127.94,1.0185710760061308e+16
5.823723841249277,9664421334913410.0,4.257269666119403e+16,7235763222883882.0,1.4534680142503286e+16,1643510674190.326,7849520901145.15,413648692808668.06,1.0714690236509466e+16
6.040198318074262,9781340612022148.0,4.351909989571875e+16,7323300822300841.0,1.4710519412700698e+16,1726283318783.9897,8244855142549.339,434503645690487.44,1.1259464264543272e+16
6.261002284435747,9896145361091158.0,4.447529931808464e+16,7409255272315482.0,1.48831785679422e+16,1811443623473.4172,8651593633895.45,455961658491048.7,1.1820295420987394e+16
6.486222330124463,1.0008883433478772e+16,4.544172848630279e+16,7493662399292109.0,1.5052729573626318e+16,1899028943381.3706,9069914816307.918,478032233297373.06,1.23974519028485e+16
6.715946776726952,1.0119599819771076e+16,4.6418817488400904e+16,7576555887731505.0,1.5219240092729522e+16,1989077396910.8357,9500000777173.822,500725066520800.06,1.2991207543473892e+16
6.950265712261491,1.0228336921265806e+16,4.74069938530203e+16,7657967483531203.0,1.538277389410069e+16,2081627870455.581,9942037272642.85,524050050052038.8,1.3601841838927418e+16
7.18927102650672,1.0335134793516206e+16,4.840668337906087e+16,7737927176327174.0,1.5543391218736056e+16,2176720024655.9343,10396213757507.166,548017272803131.4,1.4229639983896144e+16
7.433056447036854,1.0440031365286748e+16,4.941831089466318e+16,7816463363426016.0,1.5701149109074278e+16,2274394302108.724,10862723422026.729,572637022613514.0,1.4874892916538468e+16
7.681717575977592,1.0543062635796294e+16,5.044230095435546e+16,7893602997481382.0,1.5856101705638256e+16,2374691936452.261,11341763235321.408,597919788500361.8,1.5537897371767392e+16
7.935351927497144,1.0644262852727046e+16,5.147907848197118e+16,7969371719769265.0,1.6008300514748886e+16,2477654962757.0894,11833533994999.941,623876263235937.4,1.6218955942532282e+16
8.194058966047088,1.074366467313918e+16,5.252906936590622e+16,8043793980665076.0,1.6157794650530898e+16,2583326229161.842,12338240382735.85,650517346236811.0,1.6918377148722394e+16
8.45794014536803,1.0841299309148644e+16,5.359270101241724e+16,8116893148712773.0,1.6304631054002866e+16,2691749409700.645,12856091025533.795,677854146751617.5,1.7636475513366132e+16
8.72709894827539,1.093719665998258e+16,5.4670402861917624e+16,8188691609494915.0,1.644885469168035e+16,2802969018274.411,13387298562460.201,705897987335548.6,1.837357164584356e+16
9.0016409272409,1.103138543182214e+16,5.576260687260049e+16,8259210855359013.0,1.6590508735811886e+16,2917030423723.758,13932079716635.176,734660407601114.8,1.912999233186596e+16
9.281673745785717,1.112389324666609e+16,5.686974797517691e+16,8328471566924003.0,1.672963472810313e+16,3033979865965.372,14490655372304.139,764153168235757.1,1.990607063000969e+16
9.567307220701432,1.1214746741298964e+16,5.7992264502059016e+16,8396493687177705.0,1.6866272728558612e+16,3153864473157.526,15063250656824.941,794388255277874.4,2.070214597461594e+16
9.85865336511546,1.1303971657317192e+16,5.913059859391774e+16,8463296488879462.0,1.7000461450875444e+16,3276732279863.393,15650095027421.357,825377884643608.4,2.1518564284894736e+16
10.155826432417769,1.1391592923056042e+16,6.028519658620582e+16,8528898635899068.0,1.7132238385656346e+16,3402632246183.689,16251422362566.53,857134506897388.4,2.2355678080088216e+16
10.458942961066125,1.1477634728163614e+16,6.145650937794134e+16,8593318239050311.0,1.7261639912564252e+16,3531614277832.16,16867471057870.414,889670812259840.9,2.321384660056764e+16
10.768121820287448,1.1562120591484896e+16,6.264499278478876e+16,8656572906915815.0,1.738870140241567e+16,3663729247129.61,17498484126354.842,922999735847137.1,2.4093435934751788e+16
11.083484256693197,1.1645073422846466e+16,6.385110787825522e+16,8718679792105414.0,1.7513457310101028e+16,3799029014893.659,18144709303007.61,957134463136278.6,2.499481915174806e+16
11.405153941827061,1.172651557926982e+16,6.50753213126246e+16,8779655633343096.0,1.763594125912609e+16,3937566453202.8794,18806399153513.535,992088435651171.2,2.591837643962773e+16
11.733257020663602,1.180646891608609e+16,6.631810564108477e+16,8839516793736644.0,1.7756186118485262e+16,4079395469015.164,19483811187066.6,1027875356864646.1,2.6864495249256052e+16
12.067922161076874,1.188495483337745e+16,6.757993962235268e+16,8898279295548347.0,1.7874224072506512e+16,4224571028621.281,20177207973171.836,1064509198311882.8,2.7833570443606724e+16
12.409280604298411,1.1961994318127878e+16,6.886130851897704e+16,8955958851753413.0,1.7990086684243738e+16,4373149182915.493,20886857262351.22,1102004205910853.6,2.8826004452495916e+16
12.75746621638438,1.20376079824301e+16,7.016270438838127e+16,9012570894645510.0,1.810380495293745e+16,4525187093465.908,21613032110669.88,1140374906485714.8,2.9842207432678316e+16
13.112615540712067,1.2111816098062384e+16,7.148462636761103e+16,9068130601724346.0,1.821540936601624e+16,4680743059368.046,22356011008005.082,1179636114489167.5,3.088259743325152e+16
13.474867851526309,1.2184638627720318e+16,7.282758095266282e+16,9122652919079240.0,1.8324929946067536e+16,4839876544865.8545,23116078009981.473,1219802938920030.8,3.194760056632086e+16
13.844365208556836,1.2256095253164628e+16,7.419208227319158e+16,9176152582463020.0,1.8432396293169936e+16,5002648207724.848,23893522873500.703,1260890790432434.0,3.303765118288035e+16
14.221252512727972,1.2326205400521934e+16,7.557865236332715e+16,9228644136235102.0,1.8537837622944424e+16,5169119928343.119,24688641195796.086,1302915388633156.5,3.4153192053868444e+16
14.605677562982532,1.2394988262957684e+16,7.698782142926885e+16,9280141950336534.0,1.8641282800652764e+16,5339354839585.989,25501734556946.17,1345892769563848.8,3.52946745563615e+16
14.997791114242183,1.2462462820921076e+16,7.842012811427189e+16,9330660235447472.0,1.8742760371644816e+16,5513417357331.324,26333110665783.33,1389839293364910.0,3.6462558864870536e+16
15.397746936527026,1.2528647860147506e+16,7.987611976159435e+16,9380213056465588.0,1.8842298588432984e+16,5691373211712.667,27183083509138.113,1434771652118134.2,3.765731414770918e+16
15.805701875257567,1.2593561987588926e+16,8.135635267592598e+16,9428814344433240.0,1.8939925434650772e+16,5873289479048.396,28051973504361.27,1480706877865152.0,3.887941876840458e+16
16.221815912762718,1.265722364543109e+16,8.286139238378936e+16,9476477907032116.0,1.9035668646133796e+16,6059234614445.391,28940107655070.008,1527662350799080.2,4.012936049212389e+16
16.64625223101797,1.2719651123344418e+16,8.43918138933601e+16,9523217437755500.0,1.9129555729344172e+16,6249278485066.727,29847819710067.703,1575655807626772.5,4.14076366970941e+16
17.079177275638333,1.2780862569105318e+16,8.594820195413216e+16,9569046523860544.0,1.922161397734475e+16,6443492404053.557,30775450325390.254,1624705350099404.8,4.2714754590992584e+16
17.5207608211511,1.2840875997716082e+16,8.75311513168222e+16,9613978653196178.0,1.9311870483514572e+16,6641949165091.954,31723347229435.25,1674829453709135.8,4.405123143229159e+16
17.97117603757412,1.2899709299141986e+16,8.914126699388109e+16,9658027219996128.0,1.940035215318542e+16,6844723077616.41,32691865391134.426,1726046976549925.0,4.5417594756538904e+16
18.430599558325603,1.2957380244778136e+16,9.077916452096472e+16,9701205529720452.0,1.948708571336713e+16,7051890002642.622,33681367191134.547,1778377168340686.2,4.68143826075644e+16
18.899211549492115,1.3013906492749758e+16,9.24454702196887e+16,9743526803023950.0,1.9572097720719396e+16,7263527389222.931,34692222595953.53,1831839679609222.8,4.824214377360124e+16
19.37719578048196,1.3069305592144984e+16,9.414082146198451e+16,9785004178925272.0,1.965541456791735e+16,7479714311518.663,35724809335087.055,1886454571035566.0,4.970143802831467e+16
19.864739696091597,1.3123594986271912e+16,9.586586693634493e+16,9825650717245484.0,1.9737062488550284e+16,7700531506484.705,36779513081041.36,1942242322953582.8,5.119283637673619e+16
20.36203449001343,1.3176792015026908e+16,9.762126691624832e+16,9865479400381220.0,1.98170675606832e+16,7926061412162.523,37856727632275.055,1999223845009979.2,5.271692130610257e+16
20.869275179813698,1.3228913916455842e+16,9.940769353102331e+16,9904503134473598.0,1.9895455709205188e+16,8156388206579.001,38956855099036.71,2057420485979985.0,5.42742870416031e+16
21.38666068340997,1.3279977827585116e+16,1.0122583103941629e+17,9942734750030334.0,1.9972252707078988e+16,8391597847249.123,40080306092091.1,2116854043739377.2,5.5865539807043176e+16
21.91439389707817,1.3330000784594686e+16,1.0307637610610405e+17,9980187002055450.0,2.0047484175601416e+16,8631778111282.291,41227499914328.92,2177546775392617.2,5.749129809043428e+16
22.452681775019734,1.337899972240151e+16,1.0496003808139168e+17,1.0016872569737166e+16,2.012117558377688e+16,8877018636092.266,42398864755265.88,2239521407557279.0,5.9152192914527464e+16
23.00173541052013,1.3426991473717312e+16,1.0687753928432307e+17,1.0052804055742732e+16,2.0193352246900344e+16,9127410960712.691,43594837888434.414,2302801146805087.5,6.084886811230845e+16
23.561770118730532,1.3473992767641092e+16,1.0882961528942523e+17,1.0087993985164436e+16,2.026403932444072e+16,9383048567720.648,44815865871684.86,2367409690260265.5,6.258198060747936e+16
24.133005521105144,1.3520020227843208e+16,1.1081701521729982e+17,1.0122454804160048e+16,2.033326181730967e+16,9644026925772.3,46062404750411.8,2433371236356059.0,6.435220069995469e+16
24.715665631527248,1.3565090370394134e+16,1.1284050202927123e+17,1.0156198878327304e+16,2.0401044564596452e+16,9910443532755.258,47334920263730.71,2500710495750699.5,6.616021235640619e+16
25.309978944157795,1.3609219601287982e+16,1.1490085282629186e+17,1.0189238490849748e+16,2.0467412239843196e+16,10182397959564.016,48633888053633.805,2569452702404223.5,6.800671350589336e+16
25.91617852304095,1.365242421370779e+16,1.1699885915230202e+17,1.0221585840449146e+16,2.0532389346932428e+16,10459991894505.932,49959793877160.33,2639623624817989.5,6.989241634062299e+16
26.53450209350177,1.3694720385075906e+16,1.1913532730223818e+17,1.0253253039177214e+16,2.0596000215650836e+16,10743329188345.617,51313133821620.05,2711249577438839.0,7.181804762188548e+16
27.165192135371807,1.3736124173931048e+16,1.2131107863487595e+17,1.0284252110077444e+16,2.0658268996992652e+16,11032515899997.695,52694414522918.305,2784357432230306.0,7.378434899122157e+16
27.808495978079243,1.3776651516669672e+16,1.2352694989069427e+17,1.031459498474534e+16,2.0719219658258812e+16,11327660342878.621,54104153387030.41,2858974630413402.5,7.579207728687701e+16
28.464665897640828,1.3816318224187058e+16,1.2578379351494107e+17,1.0344293500813616e+16,2.0778875978005704e+16,11628873131928.857,55542878814684.625,2935129194379922.5,7.784200486560811e+16
29.133959215593645,1.3855139978451474e+16,1.2808247798608138e+17,1.0373359399387294e+16,2.0837261540892396e+16,11936267231318.99,57011130429313.555,3012849739781338.0,7.993491992990813e+16
29.816638399905518,1.3893132329041086e+16,1.3042388814979973e+17,1.0401804322450818e+16,2.0894399732472892e+16,12249958002853.059,58509459308340.7,3092165487796703.0,8.207162686072704e+16
30.51297116790363,1.3930310689672112e+16,1.3280892555873515e+17,1.0429639810268764e+16,2.0950313733974444e+16,12570063255084.469,60038428217874.87,3173106277583294.5,8.42529465557634e+16
31.223230591261704,1.396669033474365e+16,1.3523850881811778e+17,1.0456877298798878e+16,2.1005026517101164e+16,12896703293160.459,61598611850887.97,3255702578913838.0,8.647971677341614e+16
31.947695203086937,1.4002286395922618e+16,1.3771357393747888e+17,1.048352811713524e+16,2.1058560838898156e+16,13230000969411.842,63190597068958.03,3339985505004510.5,8.875279248248005e+16
32.686649107148675,1.4037113858790282e+16,1.4023507468860202e+17,1.0509603484997576e+16,2.111093923670809e+16,13570081734706.492,64814983147662.92,3425986825538144.5,9.107304621768566e+16
33.44038208929165,1.407118755956958e+16,1.4280398296988299e+17,1.053511451028084e+16,2.1162184023249096e+16,13917073690584.848,66472382025715.85,3513738979887274.0,9.344136844117984e+16
34.20918973107749,1.410452218195062e+16,1.4542128917726717e+17,1.056007218667868e+16,2.1212317281840788e+16,14271107642197.861,68163418557936.805,3603275090541903.0,9.585866791005499e+16
34.993373525699035,1.413713225402994e+16,1.4808800258192822e+17,1.0584487391391716e+16,2.1261360861800944e+16,14632317152067.451,69888730772158.81,3694628976747076.0,9.832587205003426e+16
35.793240996213015,1.4169032145377112e+16,1.5080515171485354e+17,1.0608370882931268e+16,2.130933637403384e+16,15000838594691.617,71648970130172.03,3787835168355548.5,1.0084392733543083e+17
36.60910581613728,1.4200236064240996e+16,1.535737847585049e+17,1.0631733299027798e+16,2.1356265186828796e+16,15376811212015.854,73444801792812.78,3882928919901103.0,1.0341379967550123e+17
37.44128793246003,1.4230758054905906e+16,1.5639496994571376e+17,1.0654585154651428e+16,2.140216842188362e+16,15760377169794.479,75276904889306.38,3979946224898221.0,1.0603647480731554e+17
38.29011369110923,1.4260611995206678e+16,1.592697959659848e+17,1.0676936840151444e+16,2.1447066950568064e+16,16151681614865.297,77145972790980.02,4078923830373898.0,1.0871295869527875e+17
39.15591596493141,1.4289811594210416e+16,1.621993723793612e+17,1.069879861952052e+16,2.149098139043661e+16,16550872733362.412,79052713389460.17,4179899251637852.0,1.1144427793743301e+17
