t(s),Total solute volume 1,Total retention volume 1,Total 1 volume 1,Total 2 volume 1,Total 3 volume 1,Total 4 volume 1,Total 5 volume 1,Total 6 volume 1
0.1,1063829490026819.8,1368988609462191.8,135960145783138.03,169198973652234.8,0.0,0.0,0.0,0.0
0.202,1508961875885223.0,2152622156354012.8,192849210993677.9,239995985161954.7,182393964229.5486,417487354095.5348,7871910083675.642,202343292911156.22
0.30604000000000003,1793848773860507.5,2814713875777738.5,229258489923634.12,285306416477160.4,437971577007.66693,1002514074010.933,18903220297211.855,485956489568204.7
0.41216080000000005,1998978425268142.2,3427191443269526.5,255474587426101.22,317931690032429.56,739385746134.4426,1692494971277.613,31913689014486.035,820461170810954.5
0.5204040160000001,2155788830786790.5,4015693949151441.0,275515360932827.94,342871928344286.0,1073824316688.2646,2458111002218.5186,46350459737192.67,1191635434031443.2
0.6308120963200001,2280267058383351.0,4592415778537299.0,291423998880934.56,362669827987808.25,1434041607566.641,3282782921426.021,61900909215069.16,1591437159541143.5
0.7434283382464002,2381744892809068.5,5164162000492845.0,304393127379761.5,378809582125431.06,1815537492060.1655,4156215141769.9604,78370902245753.12,2014871743298998.5
0.8582969050113283,2466155080907261.0,5735149245503722.0,315180966745263.7,392234776846965.3,2215355965250.1206,5071646100310.663,95632942888849.98,2458658476049821.0
0.9754628431115548,2537497219621597.5,6308196596426058.0,324298675760835.0,403581536386616.7,2631483699815.6963,6024471792186.206,113600219268103.98,2920562989896902.0
1.094972099973786,2598586508932411.0,6885303800942690.0,332106044229727.94,413297610094961.44,3062516818628.855,7011483154286.74,132212223423522.03,3399027414289161.5
1.2168715419732616,2651471613568633.5,7467959965312160.0,338864896777277.4,421708832125898.25,3507462826472.895,8030412776154.694,151426203944672.94,3892950543293046.5
1.3412089728127268,2697683691678101.0,8057320598835947.0,344770919355865.25,429058728720483.44,3965616582367.678,9079651060426.293,171211813794467.25,4401550177644237.5
1.4680331522689813,2738392537933792.5,8654315024492981.0,349973614735743.25,435533352312649.3,4436479423165.73,10158061139060.576,191547620300730.44,4924273358647840.0
1.597393815314361,2774508539577557.0,9259714571498026.0,354589332749817.8,441277497340649.56,4919704674880.205,11264854180318.555,212418753894667.75,5460735889080122.0
1.729341691620648,2806751500470851.0,9874177526775496.0,358710066184452.4,446405646511626.6,5415059936656.241,12399503081504.484,233815280664821.53,6010680469925592.0
1.863928525453061,2835698410342130.5,1.0498279720275176e+16,362409555812234.56,451009568361135.5,5922400371850.304,13561681352581.02,255731049920356.22,6573947054114891.0
2.001207095962122,2861817394890720.0,1.1132535908609454e+16,365747629302617.6,455163716918167.25,6441649420010.735,14751218983365.713,278162862004682.4,7150451437089894.0
2.1412312378813647,2885492343010714.5,1.1777415082895614e+16,368773348644525.0,458929148593319.8,6972784629238.512,15968070029418.271,301109857082996.9,7740169530905386.0
2.284055862638992,2907041093458850.5,1.2433351657746318e+16,371527334449309.0,462356414715299.3,7515827093650.967,17212288448820.715,324573059513714.75,8343125640066663.0
2.4297369798917723,2926729079012664.5,1.3100753802981814e+16,374043509709283.5,465487731594510.2,8070833474705.064,18484009852684.953,348555033733300.25,8959383605604658.0
2.578331719489608,2944779707696732.0,1.3780009752533482e+16,376350426545154.56,468358631626822.4,8637889904059.699,19783437562100.348,373059621346760.06,9589040037851866.0
2.7298983538794,2961382361761366.5,1.447149265520082e+16,378472288496091.56,470999235507831.5,9217107276242.725,21110831846174.58,398091738203721.25,1.0232219092109396e+16
2.884496320956988,2976698631827320.0,1.5175564357180022e+16,380429747259458.25,473435243755395.25,9808617581254.498,22466501540491.08,423657216362142.44,1.0889068398853978e+16
3.0421862473761276,2990867226249946.0,1.5892578390564868e+16,382240530120198.9,475688717529705.7,10412571024541.469,23850797467989.04,449762680040623.1,1.1559755868131834e+16
3.2030299723236504,3004007874056222.5,1.662288236384069e+16,383919938756229.25,477778699384047.0,11029133749597.043,25264107239487.99,476415447587227.0,1.2244467163067882e+16
3.3670905717701234,3016224454902893.5,1.7366819896613436e+16,385481249255146.6,479721711075522.3,11658486026421.414,26706851120877.77,503623453563022.5,1.294340369066955e+16
3.5344323832055258,3027607529370799.5,1.812473220320513e+16,386936035492361.44,481532156000990.56,12300820803466.158,28179478732701.637,531395186522797.25,1.3656780996282052e+16
3.7051210308696363,3038236399732381.5,1.889695940305209e+16,388294432502480.0,483222646956138.25,12956342545648.61,29682466404987.527,559739639152557.4,1.4384827475757866e+16
3.879223451487029,3048180799932861.5,1.9683841616625376e+16,389565352463263.0,484804274922067.3,13625266299343.455,31216315052110.82,588666268214115.1,1.5127783339741602e+16
4.0568079205167695,3057502290429611.5,2.0485719891592576e+16,390756662959675.4,486286830910426.9,14307816938848.158,32781548463576.598,618184962333509.4,1.588589977955696e+16
4.237944078927105,3066255416360983.0,2.1302936993608988e+16,391875335000851.6,487678990166795.25,15004228558997.389,34378711929899.293,648306016109295.8,1.6659438295482192e+16
4.422702960505647,3074488674619648.5,2.21358380884305e+16,392927566614556.44,488988465980884.56,15714743986294.549,36008371140370.664,679040109348755.4,1.7448670156739974e+16
4.61115701971576,3082245325630374.5,2.2984771336243496e+16,393918886594473.75,490222138797422.06,16439614386792.37,37671111302922.09,710398290493109.9,1.8253875969038416e+16
4.803380160110075,3089564078158854.5,2.3850088414699796e+16,394854242020534.25,491386165133007.5,17179098953459.273,39367536446600.7,742391963487305.0,1.90753453305e+16
4.9994477633122765,3096479669718656.5,2.4732144983767108e+16,395738072436429.44,492486069888146.7,17933464659255.715,41098268875161.19,775032877500398.9,1.9913376560689036e+16
5.199436718578522,3103023360670416.0,2.563130110289393e+16,396574372996747.75,493526824932290.7,18702986064862.332,42863948746494.15,808333119019936.1,2.0768276490463236e+16
5.403425452950093,3109223356608839.5,2.6547921608952052e+16,397366748449128.1,494512916283253.56,19487945172134.668,44665233757496.49,842305105935743.9,2.1640360302745444e+16
5.611493962009095,3115105170878636.0,2.7482376461823284e+16,398118459464726.0,495448401764326.0,20288631316043.367,46502798917842.28,876961583301267.4,2.2529951416180456e+16
5.823723841249277,3120691936877703.0,2.8435041063237444e+16,398832462551367.4,496336960675178.94,21105341089195.73,48377336399176.125,912315620518344.1,2.343738140512646e+16
6.040198318074262,3126004678065860.0,2.9406296553461372e+16,399511444561359.6,497181936735970.25,21938378294103.258,50289555448696.5,948380609737398.1,2.436298995061798e+16
6.261002284435747,3131062542202478.5,3.039653008964093e+16,400157852627661.8,497986375342159.56,22788053919217.03,52240182358060.83,985170265302096.0,2.5307124817889244e+16
6.486222330124463,3135883005212073.5,3.140613510894846e+16,400773920218434.1,498753055988736.06,23654686135445.883,54229960480130.27,1022698624097460.1,2.627014185681619e+16
6.715946776726952,3140482049165943.0,3.2435511579167656e+16,401361689883546.44,499484520577675.7,24538600310432.746,56259650287357.54,1060980046684601.9,2.7252405022258096e+16
6.950265712261491,3144874318126364.5,3.348506623892267e+16,401923033171871.7,500183098204515.7,25440129038322.86,58330029466671.99,1100029219125079.4,2.8254286411789884e+16
7.18927102650672,3149073254993388.5,3.455521282941063e+16,402459668120661.56,500850926923434.56,26359612183131.28,60441893046570.25,1139861155414059.5,2.9276166318729452e+16
7.433056447036854,3153091221995977.5,3.5646372319211828e+16,402973174654613.25,501489972911015.25,27297396934124.867,62596053552830.234,1180491200454742.2,3.0318433298708484e+16
7.681717575977592,3156939607058019.0,3.6758973123516984e+16,403465008179728.1,502102047383452.25,28253837871887.85,64793341189847.164,1221935033517520.0,3.1381484248316516e+16
7.935351927497144,3160628917929391.0,3.789345131891699e+16,403936511613504.75,502688821567822.1,29229297043950.375,67034604045071.92,1264208672136441.5,3.246572449458088e+16
8.194058966047088,3164168865688929.0,3.905025085473625e+16,404388926056828.7,503251839982991.9,30224144049033.156,69320708314436.64,1307328476403130.0,3.3571567894240932e+16
8.45794014536803,3167568438989976.5,4.022982376175877e+16,404823400282748.25,503792532248152.44,31238756129109.09,71652538546984.9,1351311153624632.5,3.469943694193717e+16
8.72709894827539,3170835970220942.5,4.143263035908053e+16,405240999191962.94,504312223605466.1,32273518268602.863,74030997907209.19,1396173763316997.8,3.584976288656934e+16
9.0016409272409,3173979194587193.0,4.265913945972836e+16,405642711363641.75,504812144316867.2,33328823300153.07,76457008453827.67,1441933722510830.8,3.7022985855195864e+16
9.281673745785717,3177005302980013.0,4.390982857560344e+16,406029455812209.4,505293438072717.94,34405072016447.484,78931511433943.72,1488608811348839.5,3.821955498393933e+16
9.567307220701432,3179920989379837.0,4.51851841222411e+16,406402088045609.56,505757169531157.3,35502673287715.13,81455467591686.8,1536217178958596.2,3.9439928555446456e+16
9.85865336511546,3182732493440173.0,4.648570162382054e+16,406761405507630.44,506204331090944.0,36622044184520.56,84029857490590.22,1584777349586476.0,4.068457414252018e+16
10.155826432417769,3185445638812881.0,4.781188591880901e+16,407108152475978.4,506635848986983.2,37763610105558.61,86655681849074.78,1634308228980950.5,4.195396875759765e+16
10.458942961066125,3188065867702310.0,4.916425136658311e+16,407443024478388.94,507052588786068.3,38927804910192.13,89333961888517.06,1684829111015567.5,4.324859900780203e+16
10.768121820287448,3190598272073364.5,5.054332205533389e+16,407766672281092.6,507455360350421.94,40115071055514.164,92065739693468.03,1736359684543450.5,4.456896125533645e+16
11.083484256693197,3193047621884532.0,5.194963201153195e+16,408079705497066.94,507844922328079.44,41325859737747.766,94852078583670.78,1788920040476826.8,4.59155617830241e+16
11.405153941827061,3195418390670986.0,5.338372541120385e+16,408382695855630.56,508221986221815.7,42560631037826.1,97694063497584.36,1842530679086157.2,4.728891696483381e+16
11.733257020663602,3197714778762927.5,5.4846156793243576e+16,408676180169805.75,508587220081948.75,43819854071019.36,100592801387189.38,1897212517514718.5,4.868955344125599e+16
12.067922161076874,3199940734389938.5,5.633749127497027e+16,408960663033498.1,508941251862919.4,45104007140492.875,103549421623892.33,1952986897505344.2,5.011800829941427e+16
12.409280604298411,3202099972892042.0,5.785830477012024e+16,409236619276735.5,509284672478768.44,46413577894705.336,106565076415395.12,2009875593336858.5,5.157482925782567e+16
12.75746621638438,3204195994232717.0,5.940918420944903e+16,409504496203864.06,509618038588517.06,47749063488564.305,109640941233436.72,2067900819968625.0,5.306057485573321e+16
13.112615540712067,3206232098986105.5,6.099072776410814e+16,409764715636762.06,509941875138896.75,49110970748273.9,112778215252339.2,2127085241392003.0,5.457581464695375e+16
13.474867851526309,3208211402951287.5,6.260354507194649e+16,410017675782575.75,510256677688698.2,50499816339821.21,115978121798331.98,2187451979188390.5,5.612112939819739e+16
13.844365208556836,3210136850529195.0,6.424825746687857e+16,410263752943330.4,510562914536337.75,51916126941056.23,119241908809647.61,2249024621293838.0,5.769711129182512e+16
14.221252512727972,3212011226982732.5,6.5925498211454504e+16,410503303082798.94,510861028669790.3,53360439417328.76,122570849307404.08,2311827230970668.5,5.930436413302384e+16
14.605677562982532,3213837169687529.0,6.763591273275701e+16,410736663264380.5,511151439555988.3,54833301000657.336,125966241877323.02,2375884355987114.5,6.0943503561384e+16
14.997791114242183,3215617178469005.5,6.938015886174395e+16,410964152972202.8,511434544784903.7,56335269472404.94,129429411162331.3,2441221038006168.5,6.261515726687693e+16
15.397746936527026,3217353625111437.5,7.1158907076153176e+16,411186075326404.75,511710721581936.06,57866913349449.695,132961708366132.81,2507862822185263.0,6.4319965210232504e+16
15.805701875257567,3219048762115528.5,7.297284074707554e+16,411402718202380.2,511980328200779.0,59428812073837.81,136564511767836.78,2575835766988646.5,6.605857984772654e+16
16.221815912762718,3220704730773183.0,7.48226563893032e+16,411614355262747.4,512243705207689.3,61021556205911.53,140239227247749.95,2645166454214750.5,6.7831666360391144e+16
16.64625223101797,3222323568620959.5,7.670906391555094e+16,411821246909930.7,512501176666942.3,62645747620912.65,143987288824456.25,2715881999240783.5,6.9639902887666984e+16
17.079177275638333,3223907216327761.0,7.863278689465187e+16,412023641166410.94,512753051236285.94,64301999709058.92,147810159203308.2,2788010061487454.5,7.148398076552166e+16
17.5207608211511,3225457524066326.5,8.059456281381666e+16,412221774489031.8,512999623180322.3,65990937579097.85,151709330336480.0,2861578855106451.0,7.336460476905893e+16
17.97117603757412,3226976257413648.5,8.259514334505083e+16,412415872523081.2,513241173308943.9,67713198265344.03,155686323994731.16,2936617159893970.0,7.528249335965109e+16
18.430599558325603,3228465102820726.0,8.463529461581952e+16,412606150801341.3,513477969847284.2,69469430938205.4,159742692351045.3,3013154332433438.0,7.723837893662731e+16
18.899211549492115,3229925672688280.0,8.67157974840431e+16,412792815392776.5,513710269242992.4,71260297118209.28,163880018576314.03,3091220317471000.0,7.923300809355339e+16
19.37719578048196,3231359510081551.5,8.883744781751179e+16,412976063505099.25,513938316916115.2,73086470893536.89,168099917447249.25,3170845659527234.0,8.126714187914094e+16
19.864739696091597,3232768093114212.5,9.100105677780187e+16,413156084045045.4,514162347956336.94,74948639141078.39,172404035966710.03,3252061514749008.0,8.334155606282925e+16
20.36203449001343,3234152839028557.0,9.320745110877142e+16,413333058139828.7,514382587771929.75,76847501751019.97,176794053996641.56,3334899663005420.0,8.545704140507813e+16
20.869275179813698,3235515107996699.0,9.545747342972005e+16,413507159622951.7,514599252694316.44,78783771854972.1,181271684903831.1,3419392520231855.5,8.76144039324156e+16
21.38666068340997,3236856206665271.5,9.775198253328882e+16,413678555487216.25,514812550541847.9,80758176057659.6,185838676218686.28,3505573151026358.0,8.981446521729157e+16
21.91439389707817,3238177391463930.5,1.0009185368817634e+17,413847406307572.3,515022681146013.25,82771454672174.86,190496810307265.6,3593475281502894.0,9.205806266277646e+16
22.452681775019734,3239479871696502.0,1.024779789467508e+17,414013866636162.25,515229836843070.6,84824361958815.11,195247905056770.16,3683133312405754.5,9.434604979215346e+16
23.00173541052013,3240764812431462.0,1.0491126745762851e+17,414178085371738.3,515434202933779.6,86917666367512.19,200093814574742.44,3774582332489966.5,9.66792965434592e+16
23.561770118730532,3242033337207558.0,1.073926457832947e+17,414340206105445.75,515635958113712.75,89052150783864.86,205036429902198.72,3867858132172379.0,9.905868956900958e+16
24.133005521105144,3243286530568456.5,1.0992305822284088e+17,414500367444759.4,515835274876388.3,91228612778788.47,210077679740946.94,3962997217458350.5,1.0148513253997338e+17
24.715665631527248,3244525440439574.0,1.1250346713988683e+17,414658703317246.8,516032319891301.4,93447864861785.64,215219531195334.22,4060036824149149.0,1.0395954645603226e+17
25.309978944157795,3245751080358850.0,1.1513485329575928e+17,414815343255667.4,516227254358716.06,95710734737852.95,220463990528685.5,4159014932335093.5,1.064828699601845e+17
25.91617852304095,3246964431572375.5,1.1781821618799915e+17,414970412665798.6,516420234342973.75,98018065568024.77,225813103934687.75,4259970281179959.0,1.0905605965873522e+17
26.53450209350177,3248166445004861.0,1.2055457439426114e+17,415124033078268.25,516611411085883.4,100370716233566.14,231268958324000.78,4362942384001757.5,1.1168009044653285e+17
27.165192135371807,3249358043114035.5,1.2334496592167744e+17,415276322385549.3,516800931301669.5,102769561603813.77,236833682126351.34,4467971543655786.5,1.1435595583749027e+17
27.808495978079243,3250540121637541.0,1.2619044856174867e+17,415427395065219.4,516988937454800.06,105215492807672.2,242509446108408.22,4575098868225300.0,1.1708466830044966e+17
28.464665897640828,3251713551239899.0,1.2909210025082813e+17,415577362390448.25,517175568021938.25,107709417508762.84,248298464207712.03,4684366287025879.0,1.1986725960043342e+17
29.133959215593645,3252879179066831.0,1.3205101943626483e+17,415726332628640.75,517360957739150.3,110252260184225.72,254202994382953.84,4795816566929211.0,1.2270478114533371e+17
29.816638399905518,3254037830213414.5,1.3506832544826462e+17,415874411229070.2,517545237835407.1,112844962407172.05,260225339480905.75,4909493329012455.0,1.255983043380861e+17
30.51297116790363,3255190309112144.5,1.3814515887753333e+17,416021701000285.8,517728536253363.6,115488483132778.34,266367848120299.5,5025441065539404.0,1.2854892093437486e+17
31.223230591261704,3256337400846590.5,1.4128268195876165e+17,416168302277986.7,517910977858278.06,118183798988018.58,272632915592967.5,5143705157279577.0,1.3155774340591811e+17
31.947695203086937,3257479872395712.5,1.4448207896000794e+17,416314313084060.7,518092684635923.75,120931904565017.83,279022984782557.47,5264331891171917.0,1.3462590530937272e+17
32.686649107148675,3258618473813645.0,1.4774455657803904e+17,416459829277357.7,518273775880232.6,123733812718018.86,285540547101147.44,5387368478339510.0,1.377545616609092e+17
33.44038208929165,3259753939349469.0,1.5107134433968202e+17,416604944696799.94,518454368371385.3,126590554863941.33,292188143444081.6,5512863072462013.0,1.4094488931649445e+17
34.20918973107749,3260886988510913.5,1.5446369500924003e+17,416749751297328.9,518634576544995.6,129503181286513.97,298968365163363.8,5640864788512817.0,1.4419808735792394e+17
34.993373525699035,3262018327075956.5,1.5792288500202704e+17,416894339279188.3,518814512652997.94,132472761443958.67,305883855059945.6,5771423721867637.0,1.4751537748464765e+17
35.793240996213015,3263148648055723.5,1.6145021480406854e+17,417038797210985.5,518994286916799.25,135500384280194.64,312937308395258.06,5904590967791937.0,1.5089800441141718e+17
36.60910581613728,3264278632612042.5,1.6504700939801267e+17,417183212146955.6,519174007673207.4,138587158539537.33,320131473922332.94,6040418641314097.0,1.5434723627180464e+17
37.44128793246003,3265408950932650.0,1.6871461869530947e+17,417327669738816.1,519353781513630.5,141734213084852.2,327469154936869.44,6178959897492070.0,1.5786436502761043e+17
38.29011369110923,3266540263066893.5,1.724544179746814e+17,417472254342575.7,519533713417000.94,144942697219127.75,334953210348621.1,6320268952080770.0,1.614507068842065e+17
39.15591596493141,3267673219724615.5,1.762678083269484e+17,417617049120624.94,519713906876825.56,148213781010421.3,342586555773450.44,6464401102607965.0,1.6510760271183466e+17
40.03903428423004,3268808463040537.0,1.8015621710622518e+17,417762136139436.75,519894464022765.7,151548655620133.44,350372164646454.9,6611412749866466.0,1.6883641847288925e+17
40.93981496991464,3269946627306640.5,1.841210983875413e+17,417907596463160.06,520075485737115.25,154948533634550.78,358313069356517.75,6761361419830611.0,1.7263854565521248e+17
41.85861126931294,3271088339674461.0,1.881639334309055e+17,418053510243375.56,520257071766501.6,158414649399610.2,366412362402688.94,6914305786005058.0,1.765154017114141e+17
42.7957834946992,3272234220829459.0,1.922862311518546e+17,418199956805283.6,520439320829143.0,161948259358807.7,374673197572789.06,7070305692214174.0,1.8046843050424486e+17
