t(s),Total solute volume 1,Total retention volume 1,Total 1 volume 1,Total 2 volume 1,Total 3 volume 1,Total 4 volume 1,Total 5 volume 1,Total 6 volume 1
0.1,803801399340899.0,888695292650996.4,42833262785020.44,42060630525076.21,0.0,0.0,0.0,0.0
0.202,1200179819220925.0,1348015859222597.5,63955620975892.44,62801980860597.18,63815155976.12027,101456987992.94707,1107560657796.6406,19805605363417.43
0.30604000000000003,1493804185845701.0,1704564628192755.0,79602383578581.62,78166505068832.23,160428645600.80164,255070428087.95517,2784501002243.6465,49791553623708.63
0.41216080000000005,1735377779408594.8,2011921909773694.2,92475445553636.11,90807361027486.47,282336903716.21265,448917250475.0637,4900666146304.185,87629403483484.52
0.5204040160000001,1944033525089191.0,2290044677450521.0,103594369215528.95,101725720054479.72,425915626942.82947,677240744194.7793,7393216564575.808,132194690155606.03
0.6308120963200001,2129383968501028.2,2548841299888132.5,113471391409773.89,111424579199421.3,588985541037.0453,936581140387.8406,10224387196013.38,182811406900470.56
0.7434283382464002,2297062727212281.0,2794058139086119.5,122406718409125.34,120198729574283.33,770085407735.6809,1224620044380.843,13368872738922.133,239026385699392.2
0.8582969050113283,2450708516884853.5,3029373597620166.0,130594251424115.67,128238574773583.03,968170693636.718,1539701485998.156,16808599244844.219,300515783113134.44
0.9754628431115548,2592834976155041.0,3257310317413943.5,138167938149379.02,135675646325440.6,1182463713255.174,1880593741760.3318,20530124085572.25,367038575243496.1
1.094972099973786,2725266427816776.0,3479689277447993.5,145224993764914.66,142605405829351.88,1412369796336.8733,2246356101624.1553,24523181538324.477,438410542600661.7
1.2168715419732616,2849377999315466.0,3697878450610875.5,151838696564763.06,149099809775610.2,1657426344417.865,2636257911478.74,28779799033548.324,514488461665594.8
1.3412089728127268,2966237774021436.5,3912939096407875.0,158065962966036.03,155214747915313.7,1917269909313.7444,3049726259995.8706,33293726095177.45,595159889240599.4
1.4680331522689813,3076695797298861.5,4125716799671988.0,163952090496858.2,160994700693656.44,2191613881615.254,3486310528928.5454,38060047368333.52,680336239403735.9
1.597393815314361,3181442377308973.0,4336900743122163.5,169533864550887.9,166475789964392.84,2480232786136.7383,3945657444325.802,43074910278691.21,769947910788749.6
1.729341691620648,3281047716575515.0,4547063760472238.0,174841670288661.38,171687852796422.0,2782950881606.3506,4427492968767.408,48335327370770.016,863940749590496.0
1.863928525453061,3375989702898121.5,4756690259489807.0,179900973569948.56,176655895692887.9,3099633670597.2363,4931608819062.193,53839029139395.72,962273415699789.8
2.001207095962122,3466673918888175.5,4966196212271147.0,184733387229214.97,181401141633020.16,3430181439399.932,5457852210336.8545,59584352081600.6,1064915378789389.5
2.1412312378813647,3553448380269292.5,5175943797748633.0,189357456455563.62,185941801285288.72,3774524251816.3696,6006117911061.62,65570151975596.11,1171845365600011.0
2.284055862638992,3636614608514077.0,5386252343261017.0,193789248835453.4,190293652406846.94,4132618008344.5796,6576341991546.938,71795735646391.25,1283050137858361.8
2.4297369798917723,3716436095338861.0,5597406645550941.0,198042805411787.44,194470482766362.03,4504441301722.863,7168496838371.284,78260806550922.66,1398523517342915.0
2.578331719489608,3793144873706645.5,5809663398373081.0,202130490841922.28,198484433985824.5,4889992878233.427,7782587131852.203,84965420876301.52,1518265598952308.8
2.7298983538794,3866946689354096.5,6023256227402757.0,206063268979885.56,202346272151772.72,5289289566981.437,8418646567613.477,91909951761110.95,1642282109021294.5
2.884496320956988,3938025121296603.0,6238399684214395.0,209850922451358.97,206065603429556.75,5702364575747.225,9076735161121.943,99095059880874.25,1770583877419144.0
3.0421862473761276,4006544901574377.0,6455292450984034.0,213502229557519.7,209651047776167.6,6129266077582.386,9756937014709.955,106521669082471.55,1903186399901205.8
3.2030299723236504,4072654616929597.5,6674119938903838.0,217025108243004.75,213110380311277.7,6570056030622.204,10459358455685.693,114190946069809.27,2040109472863844.8
3.3670905717701234,4136488927757984.5,6895056415347702.0,220426734340205.75,216450647428638.62,7024809186901.912,11184126475294.092,122104283374031.33,2181376886784649.8
3.5344323832055258,4198170405956115.5,7118266760788614.0,223713639505154.9,219678262965383.84,7493612255793.183,11931387413912.68,130263285012092.25,2327016167680159.5
3.7051210308696363,4257811068908254.5,7343907931946045.0,226891792961174.3,222799088471171.97,7976563195032.826,12701305849555.592,138669754365116.95,2477058358195743.0
3.879223451487029,4315513668990295.0,7572130189728233.0,229966670214431.16,225818500684246.56,8473770607886.916,13494063655613.291,147325683904624.16,2631537831671140.5
4.0568079205167695,4371372784710994.0,7803078137286179.0,232943311199074.1,228741448627736.62,8985353229261.475,14309859200540.303,156233246468749.47,2790492133849825.5
4.237944078927105,4425475749657564.5,8036891603583227.0,235826369779225.22,231572502218731.12,9511439486875.248,15148906667452.152,165394787847918.7,2953961847925455.0
4.422702960505647,4477903447860701.5,8273706400386957.0,238620156132677.53,234315893887448.66,10052167126191.182,16011435475698.607,174812820484229.1,3121990479420008.0
4.61115701971576,4528730998405926.0,8513654974863403.0,241328673232721.8,236975554401003.22,10607682889840.584,16897689789715.64,184490018124114.6,3294624358020079.5
4.803380160110075,4578028347642393.0,8756866975539363.0,243955648405980.28,239555143851991.56,11178142243890.86,17807928103030.95,194429211291970.7,3471912554000110.5
4.9994477633122765,4625860783847114.0,9003469745965161.0,246504560758025.8,242058078589405.88,11763709144605.67,18742422887361.68,204633383474911.2,3653906807263738.0
5.199436718578522,4672289386456523.0,9253588757719518.0,248978665112194.0,244487554725637.03,12364555840392.936,19701460298403.734,215105667927004.12,3840661467359361.0
5.403425452950093,4717371419800438.0,9507347992272520.0,251381012991026.22,246846568739446.94,12980862704485.002,20685339931267.656,225849345016082.38,4032233443089761.0
5.611493962009095,4761160679536957.0,9764870279532038.0,253714471077214.25,249137935603913.47,13612818094591.463,21694374619618.246,236867840048302.78,4228682160551443.5
5.823723841249277,4803707798590756.0,1.0026277599544802e+16,255981737516560.38,251364304795319.1,14260618236336.604,22728890273486.816,248164721515548.6,4430069528616794.0
6.040198318074262,4845060518270326.0,1.0291691352732614e+16,258185356365361.28,253528174479926.4,14924467127764.973,23789225751476.324,259743699718989.3,4636459911018799.0
6.261002284435747,4885263929320613.0,1.056123260315939e+16,260327730435718.8,255631904127585.1,15604576462592.98,24875732763705.21,271608625728938.88,4847920104320236.0
6.486222330124463,4924360686918859.0,1.0835022298603598e+16,262411132752309.3,257677725761844.1,16301165570211.793,25988775802358.74,283763490646863.94,5064519321151159.0
6.715946776726952,4962391203003224.0,1.1113181470620322e+16,264437716801266.72,259667754023961.12,17014461370722.133,27128732097157.152,296212425140192.06,5286329178183801.0
6.950265712261491,4999393818814942.0,1.1395831417289596e+16,266409525724670.4,261603995201540.28,17744698343514.992,28295991593417.78,308959699224614.6,5513423688386894.0
7.18927102650672,5035404960110995.0,1.1683093870945354e+16,268328500591572.0,263488355350366.75,18492118508107.33,29490956950705.324,322009722272000.2,5745879257161628.0
7.433056447036854,5070459277151312.0,1.1975091152844214e+16,270196487857692.16,265322647619541.4,19256971416110.805,30714043560329.605,335367043224974.94,5983774682014253.0
7.681717575977592,5104589771269132.0,1.2271946316453208e+16,272015246110139.22,267108598874539.72,20039514153352.277,31965679580179.297,349036351001694.8,6227191155464165.0
7.935351927497144,5137827909583860.0,1.2573783280801724e+16,273786452180275.25,268847855699811.66,20840011351287.914,33246305985575.004,363022475076470.94,6476212270924437.0
8.194058966047088,5170203729206099.0,1.2880726955144704e+16,275511706696630.5,270541989851532.97,21658735206958.906,34556376634995.11,377330386223792.1,6730924031324698.0
8.45794014536803,5201745932106261.0,1.3192903356017654e+16,277192539140297.25,272192503221807.72,22495965510822.91,35896358349670.89,391965197414807.1,6991414860273983.0
8.72709894827539,5232481971666887.0,1.3510439717622342e+16,278830412457159.0,273800832367704.22,23351989681879.516,37266731006175.77,406932164856772.94,7257775615585796.0
9.0016409272409,5262438131809020.0,1.3833464596361768e+16,280426727274409.97,275368352651712.75,24227102809570.066,38667987641240.69,422236689167131.6,7530099605008730.0
9.281673745785717,5291639599472793.0,1.4162107970239784e+16,281982825762925.06,276896382034447.94,25121607701994.133,40100634568126.875,437884316674944.25,7808482604024536.0
9.567307220701432,5320110531136982.0,1.4496501333752778e+16,283499995181973.06,278386184555422.62,26035814940035.96,41565191503965.47,453880740843313.9,8093022875591119.0
9.85865336511546,5347874113979858.0,1.4836777788825846e+16,284979471138388.25,279838973533425.6,26970042937037.363,43062191707552.18,470231803807221.5,8383821191722361.0
10.155826432417769,5374952622213654.0,1.5183072132278552e+16,286422440588534.25,281255914514342.44,27924618003694.785,44592182127145.64,486943498021947.8,8680980856809238.0
10.458942961066125,5401367469062758.0,1.5535520940251878e+16,287830044608140.25,282638127991024.5,28899874417890.574,46155723557877.695,504021968017820.56,8984607732596387.0
10.768121820287448,5427139254802694.0,1.58942626499765e+16,289203380952220.0,283986691917030.6,29896154499199.52,47753390808433.23,521473512257610.06,9294810264739294.0
11.083484256693197,5452287811230391.0,1.625943763922134e+16,290543506424818.1,285302644033632.0,30913808687839.465,49385772876699.99,539304585093400.2,9611699510874570.0
11.405153941827061,5476832242895566.0,1.6631188303724592e+16,291851439076163.44,286586984027331.2,31953195627855.08,51053473134133.445,557521798820153.4,9935389170143404.0
11.733257020663602,5500790965387548.0,1.700965913287571e+16,293128160242914.2,287840675533300.7,33014682254347.42,52757109518610.3,576131925823615.8,1.0265995614115352e+16
12.067922161076874,5524181740940466.0,1.7394996783890112e+16,294374616445495.9,289064647998503.56,34098643884578.62,54497314735584.4,595141900820561.2,1.0603637919064902e+16
12.409280604298411,5547021711592513.0,1.7787350154692738e+16,295591721155104.75,290259798416822.56,35205464312797.21,56274736467377.65,614558823189633.1,1.0948437899558446e+16
12.75746621638438,5569327430110580.0,1.8186870455704324e+16,296780356441635.3,291426992947252.44,36335535908643.195,58090037590473.3,634389959391399.6,1.1300520143314366e+16
13.112615540712067,5591114888870117.0,1.8593711280706484e+16,297941374512637.44,292567068425111.0,37489259719006.84,59943896400695.2,654642745476429.0,1.1660012047302516e+16
13.474867851526309,5612399546861650.0,1.900802867694232e+16,299075599152452.2,293680833775205.0,38667045573222.61,61837006846181.58,675324789680457.2,1.2027043855053178e+16
13.844365208556836,5633196354977832.0,1.942998121459704e+16,300183827069707.75,294769071335028.2,39869312191491.51,63770078768077.67,696443875105924.2,1.2401748695148992e+16
14.221252512727972,5653519779720412.0,1.9859730055786932e+16,301266829160644.9,295832538095286.75,41096487296434.94,65743838148892.766,718007962489327.0,1.2784262620875928e+16
14.605677562982532,5673383825453625.0,2.0297439023175388e+16,302325351694940.7,296871966864349.94,42349007727686.94,67759027368476.82,740025193054041.6,1.3174724651012284e+16
14.997791114242183,5692802055317701.0,2.074327466832264e+16,303360117430171.9,297888067362591.6,43627319559441.484,69816405467593.47,762503891448394.2,1.3573276811736726e+16
15.397746936527026,5711787610906444.0,2.119740633986633e+16,304371826660393.75,298881527252071.06,44931878220877.18,71916748419072.89,785452568768933.0,1.3980064179638506e+16
15.805701875257567,5730353230803176.0,2.1660006251623316e+16,305361158203888.1,299853013106457.3,46263148619382.805,74060849406543.17,808879925668978.6,1.4395234925814878e+16
16.221815912762718,5748511268060496.0,2.2131249550692924e+16,306328770334645.44,300803171325701.9,47621605266518.47,76249519110749.97,832794855552635.1,1.481894036104219e+16
16.64625223101797,5766273706702443.0,2.2611314385637364e+16,307275301661712.8,301732628999540.0,49007732406643.03,78483586003483.69,857206447854602.5,1.525133498200896e+16
17.079177275638333,5783652177319745.0,2.3100381974806628e+16,308201371960266.0,302641994723559.06,50422024148146.625,80763896649142.0,882123991406212.0,1.5692576518599562e+16
17.5207608211511,5800657971823895.0,2.359863667487201e+16,309107582957811.2,303531859371222.06,51864984597229.94,83091316013965.58,907556977888184.8,1.6142825982219748e+16
17.97117603757412,5817302057419265.0,2.4106266049625196e+16,309994519078745.2,304402796825003.6,53337127994168.375,85466727782996.02,933515105370748.5,1.6602247715154318e+16
18.430599558325603,5833595089848010.0,2.462346093909655e+16,310862748150152.6,305255364669445.1,54838978852010.74,87891034684802.69,960008281941834.2,1.707100944095035e+16
18.899211549492115,5849547425957820.0,2.5150415529041376e+16,311712822071517.94,306090104848794.9,56371072097651.4,90365158824048.14,987046629424105.1,1.7549282315817412e+16
19.37719578048196,5865169135638302.0,2.5687327420839428e+16,312545277450803.2,306907544291609.8,57933953215226.2,92890042021949.72,1014640487181723.9,1.803724098103979e+16
19.864739696091597,5880470013168618.0,2.6234397701849804e+16,313360636209133.75,307708195504531.7,59528178391776.89,95466646164719.39,1042800416017771.5,1.8535063616393276e+16
20.36203449001343,5895459588014795.0,2.6791831016258976e+16,314159406156183.6,308492557137295.2,61154314665131.164,98095953560056.92,1071537202163343.2,1.904293199456219e+16
20.869275179813698,5910147135112978.0,2.7359835636457708e+16,314942081538137.0,309261114520809.7,62812940073944.766,100778967301783.31,1100861861359404.8,1.9561031536550616e+16
21.38666068340997,5924541684671266.0,2.7938623534979692e+16,315709143560028.0,310014340180065.0,64504643809851.734,103516711642704.73,1130785643032549.8,2.0089551368083244e+16
21.91439389707817,5938652031521012.0,2.8528410457032428e+16,316461060884043.8,310752694323458.8,66230026371667.7,106310232375803.45,1161320034565874.8,2.0628684376990476e+16
22.452681775019734,5952486744045424.0,2.912941599364657e+16,317198290105323.25,311476625310005.3,67989699721592.81,109160597223857.28,1192476765666215.0,2.1178627271574172e+16
23.00173541052013,5966054172711906.0,2.9741863655472076e+16,317921276206624.3,312186570095807.5,69784287443353.65,112068896237590.38,1224267812829074.0,2.1739580639947656e+16
23.561770118730532,5979362458231941.0,3.036598094724085e+16,318630452993159.06,312882954661036.5,71614424902229.62,115036242202470.36,1256705403902698.2,2.2311749010347344e+16
24.133005521105144,5992419539371241.0,3.100199944292088e+16,319326243508776.1,313566194418624.94,73480759406901.9,118063771054260.31,1289802022752575.8,2.2895340912408548e+16
24.715665631527248,6005233160430737.0,3.1650154861578876e+16,320009060434618.2,314236694605714.94,75383950373061.56,121152642303449.31,1323570414028024.8,2.3490568939403236e+16
25.309978944157795,6017810878417907.0,3.2310687143970336e+16,320679306471257.56,314894850658915.25,77324669488715.53,124304039468681.39,1358023588032280.8,2.4097649811432588e+16
25.91617852304095,6030160069926078.0,3.2983840529872496e+16,321337374705302.1,315541048574281.6,79303600881121.77,127519170519309.11,1393174825697725.8,2.4716804439568696e+16
26.53450209350177,6042287937738882.0,3.3669863636174924e+16,321983648961316.56,316175665252903.6,81321441285283.42,130799268327206.69,1429037683667922.5,2.5348257990941404e+16
27.165192135371807,6054201517175034.0,3.436900953573924e+16,322618504139936.7,316799068832910.2,83378900213931.56,134145591127968.53,1465625999488065.8,2.599223995476136e+16
27.808495978079243,6065907682188085.0,3.508153583704107e+16,323242306542916.0,317411619008652.6,85476700128919.64,137559422991639.3,1502953896905673.5,2.6648984209275216e+16
28.464665897640828,6077413151234916.0,3.5807704764601784e+16,323855414185836.9,318013667337784.44,87615576613949.48,141042074303110.06,1541035791283226.5,2.7318729089642964e+16
29.133959215593645,6088724492925171.0,3.654778324021882e+16,324458177099176.0,318605557536882.6,89796278548551.56,144594882252330.25,1579886395124641.5,2.800171745673205e+16
29.816638399905518,6099848131464014.0,3.730204296500149e+16,325050937618326.25,319187625766251.44,92019568283224.8,148219211334478.2,1619520723717413.8,2.8698196766817724e+16
30.51297116790363,6110790351898887.0,3.80707605022166e+16,325634030663191.4,319760200904465.9,94286221815652.77,151916453860244.9,1659954100892373.8,2.9408419142181868e+16
31.223230591261704,6121557305180698.0,3.885421736094838e+16,326207784007896.1,320323604813215.25,96597028967900.14,155688030476384.25,1701202164902963.0,3.013264144259935e+16
31.947695203086937,6132155013049589.0,3.9652700080573016e+16,326772518541128.2,320878152592956.25,98952793564486.6,159535390696683.44,1743280874426190.5,3.0871125337701988e+16
32.686649107148675,6142589372753689.0,4.0466500316050584e+16,327328548517604.3,321424152829838.94,101354333611239.17,163460013443525.44,1786206514687072.2,3.1624137380207576e+16
33.44038208929165,6152866161610219.0,4.129591492403193e+16,327876181801117.06,321961907834365.25,103802481474811.19,167463407600184.94,1829995703708917.8,3.239194908000231e+16
34.20918973107749,6162991041416416.0,4.214124604977905e+16,328415720099585.8,322491713872210.2,106298084062754.97,171547112574049.7,1874665398691403.8,3.3174836979062636e+16
34.993373525699035,6172969562718171.0,4.300280121489346e+16,328947459192530.1,323013861387583.4,108842003004030.34,175712698870915.7,1920232902518708.2,3.397308272720142e+16
35.793240996213015,6182807168943471.0,4.38808934058495e+16,329471689151334.0,323528635219520.75,111435114829820.9,179961768680538.12,1966715870399930.5,3.4786973158624764e+16
36.60910581613728,6192509200407427.0,4.477584116332307e+16,329988694552658.3,324036314811453.75,114078311154530.62,184295956473610.78,2014132316644017.2,3.5616800369279396e+16
37.44128793246003,6202080898195045.0,4.568796867230935e+16,330498754685359.9,324537174414389.6,116772498856820.78,188716929610344.66,2062500621571529.8,3.6462861794975736e+16
38.29011369110923,6211527407928163.0,4.661760585301599e+16,331002143751215.56,325031483284017.6,119518600260548.19,193226388960839.1,2111839538565639.5,3.732546029026554e+16
39.15591596493141,6220853783421715.0,4.756508845252416e+16,331499131059763.6,325519505872035.8,122317553315448.67,197826069537405.44,2162168201264660.8,3.8204904208053256e+16
40.03903428423004,6230064990235098.0,4.85307581371998e+16,331989981217550.9,326001502011981.75,125170311777417.08,202517741139056.62,2213506130898626.8,3.910150747992007e+16
40.93981496991464,6239165909123606.0,4.9514962585840616e+16,332474954312046.3,326477727099834.56,128077845388212.64,207303209008315.84,2265873243772365.5,4.001558969713623e+16
41.85861126931294,6248161339394580.0,5.051805558354358e+16,332954306090498.75,326948432269639.1,131041140054422.83,212184314500561.38,2319289858897546.0,4.094747619233627e+16
42.7957834946992,6257056002173207.0,5.1540397116269816e+16,333428288133949.7,327413864564386.75,134061198025506.11,217162935766084.9,2373776705776334.5,4.189749812183035e+16
43.751699164593184,6265854543581876.0,5.258235346608987e+16,333897148026671.06,327874267102389.94,137139038070726.4,222240988445053.84,2429354932339151.0,4.286599254852399e+16
44.72673314788505,6274561537837646.0,5.3644297307081896e+16,334361129521213.9,328329879239359.3,140275695654786.3,227420426375580.88,2486046113039271.5,4.3853302525413976e+16
