t(s),Total solute volume 1,Total retention volume 1,Total 1 volume 1,Total 2 volume 1,Total 3 volume 1,Total 4 volume 1,Total 5 volume 1,Total 6 volume 1
0.1,821307387244814.4,914309965951331.9,46537842289353.97,46464736417161.86,0.0,0.0,0.0,0.0
0.202,1236972170744424.8,1378219302258987.5,70090707515115.305,69980602828008.734,3261201972.4955897,5318759051.199198,60333672774.45136,1106907537640.0151
0.30604000000000003,1553030402596396.2,1731873240786668.0,87999554311946.95,87861316843697.55,8270590810.358523,13488699479.828032,153010053884.49597,2807197690450.8345
0.41216080000000005,1819953674623033.2,2031334377694668.0,103124260781794.23,102962264095503.47,14683545067.480856,23947787394.802635,271653622522.71014,4983893239355.185
0.5204040160000001,2056630010798962.8,2297574060712947.0,116535081372981.78,116352017789034.1,22346122549.361504,36444969628.02074,413416539758.1253,7584743120033.044
0.6308120963200001,2272469505960763.5,2541037870564932.5,128765221457081.8,128562945691566.69,31174873096.286846,50844159301.507866,576755100941.3157,10581423322182.002
0.7434283382464002,2472941008101631.5,2767796424903703.0,140124563046458.28,139904443026045.67,41121236074.447716,67066171537.50186,760771075377.774,13957452246574.346
0.8582969050113283,2661547296713505.0,2981738943847453.5,150811584569995.06,150574676434167.78,52156905976.79884,85064856216.56654,964940965678.1135,17703223401903.11
0.9754628431115548,2840687888745156.5,3185531156106498.5,160962250154205.3,160709396458113.72,64266616897.9848,104815330218.11266,1188982519061.7673,21813556282852.42
1.094972099973786,3012089716156548.5,3381093303064396.0,170674413158943.22,170406302741104.8,77444142543.54132,126307453888.35838,1432780727113.1882,26286338684252.7
1.2168715419732616,3177043586242811.5,3569862507363441.5,180021214758076.16,179738421560430.84,91689889217.97113,149541905502.0444,1696343296135.9846,31121709711266.836
1.3412089728127268,3336543660799168.5,3752947491495289.0,189058987264714.06,188761996737453.12,107009357036.91423,174527671712.9219,1979772179908.291,36321537485294.445
1.4680331522689813,3491374474797554.5,3931225078769262.0,197832184881277.56,197521412642021.53,123412109653.51598,201280367341.53415,2283244520101.322,41889069451304.52
1.597393815314361,3642167730931510.5,4105403161261795.0,206376601855839.8,206052407293454.0,140911059083.19894,229821069058.4847,2606999416117.386,47828689636736.57
1.729341691620648,3789440769200582.5,4276063341407913.0,214721552288959.9,214384248743138.12,159521954853.75208,260175482303.58734,2951328475019.2803,54145745263062.586
1.863928525453061,3933623446832257.0,4443690721145755.0,222891393234031.78,222541255782264.6,179263010713.1585,292373332549.92755,3316568906336.6367,60846420047605.71
2.001207095962122,4075077423094566.0,4608695270363360.0,230906617435017.03,230543888962986.84,200154626914.11325,326447912446.23737,3703098385092.9194,67937639946338.47
2.1412312378813647,4214110313411334.0,4771427508260874.0,238784655342825.84,238409551354927.75,222219180723.19574,362435740229.4132,4111331177036.4824,75427002053795.31
2.284055862638992,4350986277382593.5,4932190242331452.0,246540475067123.53,246153187557849.84,245480866378.57864,400376299203.69293,4541715263572.779,83322729894740.27
2.4297369798917723,4485934123031021.0,5091247508005270.0,254187041582223.25,253787742172704.1,269965574256.79492,440311839080.14764,4994729768282.582,91633594037705.94
2.578331719489608,4619153500976232.0,5248831487463010.0,261735667717525.44,261324510261240.75,295700794265.96027,482287221004.09705,5470883678530.597,100368936814213.27
2.7298983538794,4750819834650050.0,5405147933959766.0,269196293512703.47,268773416248437.44,322715545076.53485,526349800554.23785,5970714198952.187,109538610003995.92
2.884496320956988,4881088199405840.0,5560380479792386.0,276577706021737.66,276143233384795.47,351040318456.2982,572549337462.771,6494785807218.392,119152965516879.72
3.0421862473761276,5010096443523923.0,5714694095704861.0,283887716158831.44,283441760314444.4,380707037605.11725,620937927755.2911,7043689484332.139,129222841257950.39
3.2030299723236504,5137967719069471.0,5868237897267067.0,291133302104726.6,290675964256182.94,411749026437.89166,671569953750.2949,7618042147519.674,139759550708989.81
3.3670905717701234,5264812553065274.0,6021147442731702.0,298320726665823.7,297852098178242.0,444200987787.142,724502048610.2473,8218486248192.224,150774875537777.06
3.5344323832055258,5390730556714583.0,6173546630604660.0,305455634124087.94,304975797496052.3,478098988954.60974,779793072882.861,8845689505923.7,162281060702173.72
3.7051210308696363,5515811846795317.0,6325549279001241.0,312543130777681.9,312052160486352.2,513480453382.64667,837504101028.1455,9500344755706.447,174290811631778.6
3.879223451487029,5640138236075678.0,6477260449725006.0,319587852393639.06,319085815633903.94,550384157473.9075,897698416347.0511,10183169890515.56,186817293157438.7
4.0568079205167695,5763784236809160.0,6628777565836861.0,326594021069016.5,326080978403324.4,588850231784.5953,960441513048.4305,10894907884851.436,199874129925662.28
4.237944078927105,5886817911781712.0,6780191360866582.0,333565493453900.56,333041499386333.1,628920165968.2632,1025801104438.5502,11636326887738.734,213475408086493.28
4.422702960505647,6009301600125610.0,6931586689780627.0,340505801878273.6,339970905364017.44,670636816965.304,1093847136410.0493,12408220375844.684,227635678083519.94
4.61115701971576,6131292539561949.0,7083043225672686.0,347418189610225.9,346872434509659.4,714044420026.1241,1164651805558.6694,13211407359098.12,242369958406177.88
4.803380160110075,6252843402447874.0,7234636061398714.0,354305641230063.6,353749066715123.7,759188602229.4689,1238289581375.9973,14046732632549.941,257693740189484.9
4.9994477633122765,6374002759667433.0,7386436231684126.0,361170908915812.6,360603549835073.4,806116398216.0514,1314837232062.0186,14915067069301.527,273622992566228.2
5.199436718578522,6494815483784763.0,7538511168331239.0,368016535287144.2,367438422495008.9,854876267904.7335,1394373853578.3972,15817307950199.21,290174168692644.1
5.403425452950093,6615323100807458.0,7690925098862659.0,374844873337372.8,374256033991958.56,905518115996.6855,1476980901625.2546,16754379326698.785,307364212381557.06
5.611493962009095,6735564098256408.0,7843739397110079.0,381658103889671.56,381058561723267.25,958093313103.8958,1562742226275.1602,17727232413877.934,325210565287484.6
5.823723841249277,6855574195916486.0,7997012892794442.0,388458250938641.4,387848026504068.06,1012654718363.8534,1651744109039.1663,18736846011043.98,343731174596822.56
6.040198318074262,6975386584573585.0,8150802145961770.0,395247195177899.1,394626306073622.1,1069256703423.0431,1744075302174.0095,19784226947770.21,362944501183306.25
6.261002284435747,7095032137177750.0,8305161691180764.0,402026685965246.94,401395147041684.75,1127955177689.1667,1839827070067.4902,20870410553515.168,382869528194820.9
6.486222330124463,7214539596164089.0,8460144255625970.0,408798351936846.75,408156175486016.4,1188807614766.3193,1939093232562.71,21996461149241.527,403525770042452.06
6.715946776726952,7333935740082911.0,8615800954527820.0,415563710449019.1,414910906379341.2,1251873079999.242,2041970210101.021,23163472559674.23,424933281766780.1
6.950265712261491,7453245532211896.0,8772181466942284.0,422324175999063.56,421660751996945.75,1317212259062.8472,2148557070580.036,24372568645021.72,447112668759728.56
7.18927102650672,7572492253426013.0,8929334194353487.0,429081067754085.4,428407029433672.44,1384887487541.4124,2258955577836.621,25624903851138.887,470085096823212.0
7.433056447036854,7691697621270734.0,9087306404257684.0,435835616298060.25,435150967340389.3,1454962781449.1047,2373270241676.3013,26921663777240.773,493872302548128.2
7.681717575977592,7810881896908183.0,9246144360572044.0,442588969691731.4,441893711974366.4,1527503868649.1914,2491608369380.3286,28264065760387.68,518496603999338.75
7.935351927497144,7930063981373566.0,9405893442455010.0,449342198926799.44,448636332644900.94,1602578221134.5535,2614080118629.6064,29653359476052.656,543980911693928.4
8.194058966047088,8049261502384233.0,9566598252909088.0,456096302844802.7,455379826624458.8,1680255088136.2266,2740798551792.0684,31090827554164.645,570348739861513.6
8.45794014536803,8168490892778036.0,9728302718354236.0,462852212581669.25,462125123586268.3,1760605530030.303,2871879691525.558,32577786210085.883,597624217976606.4
8.72709894827539,8287767461517782.0,9891050180204896.0,469610795591061.9,468873089621314.44,1843702453016.7373,3007442577653.4663,34115585890038.277,625832102554014.0
9.0016409272409,8407105458078342.0,1.005488347935167e+16,476372859292737.8,475624530880996.56,1929620644545.961,3147609325274.9653,35705611930543.89,654997789199259.5
9.281673745785717,8526518130931275.0,1.021984503433525e+16,483139154386490.44,482380196885842.1,2018436809471.7173,3292505184074.5703,37349285231485.63,685147324906636.5
9.567307220701432,8646017780754043.0,1.0385976913903324e+16,489910377867133.06,489140783535768.1,2110229606910.1465,3442258598799.6855,39048062942427.03,716307420598234.6
9.85865336511546,8765615808915412.0,1.0553320904558666e+16,496687175771837.0,495906935853092.44,2205079687786.8843,3597001270876.878,40803439161863.21,748505463897797.9
10.155826432417769,8885322761723457.0,1.072191857363367e+16,503470145687366.2,502679250485844.1,2303069733055.34,3756868221140.013,42616945649099.2,781769532133699.8
10.458942961066125,9005148370866865.0,1.0891811328364638e+16,510259839041605.9,509458277995676.4,2404284492570.293,3921997853645.3696,44490152548470.73,816128405565800.1
10.768121820287448,9125101590430940.0,1.1063040471385942e+16,517056763201003.5,516244524952024.44,2508810824602.102,4092532020550.3403,46424669125647.336,851611580831168.1
11.083484256693197,9245190630827480.0,1.1235647253016108e+16,523861383393141.1,523038455851654.7,2616737735977.541,4268616088033.8423,48422144515765.4,888249284604033.1
11.405153941827061,9365422989940652.0,1.140967292066767e+16,530674124471562.8,529840494880711.0,2728156422833.983,4450399003237.488,50484268483158.64,926072487465511.8
11.733257020663602,9485805481758914.0,1.1585158765677096e+16,537495372538138.94,536651027534549.8,2843160311974.262,4638033362207.843,52612772192460.0,965112917978870.0
12.067922161076874,9606344262734332.0,1.1762146167818736e+16,544325476436681.75,543470402108989.44,2961845102809.988,4831675478820.732,54809428990860.74,1005403076966242.8
12.409280604298411,9727044856086344.0,1.1940676637740424e+16,551164749130055.94,550298931075267.94,3084308809881.5625,5031485454669.086,57076055201321.31,1046976251982889.0
12.75746621638438,9847912174244208.0,1.2120791857533288e+16,558013468971857.3,557136892349719.0,3210651805943.3076,5237627249897.07,59414510926530.04,1089866531985166.2
13.112615540712067,9968950539604722.0,1.23025337196279e+16,564871880882587.1,563984530468107.2,3340976865602.753,5450268754962.74,61826700863420.445,1134108822188497.0
13.474867851526309,1.00901637037627e+16,1.2485944364188186e+16,571740197439334.2,570842057673588.5,3475389209502.9204,5669581863313.004,64314575128052.83,1179738859111716.8
13.844365208556836,1.0211554865358666e+16,1.2671066215160992e+16,578618599887061.0,577709654926410.5,3613996549037.0117,5895742544953.783,66880130090677.31,1226793225804198.2
14.221252512727972,1.0333126686673168e+16,1.2857942015120408e+16,585507239078901.1,584587472842739.6,3756909131584.855,6128930920900.053,69525409220796.35,1275309367252314.0
14.605677562982532,1.0454881309086404e+16,1.3046614859036318e+16,592406236352148.9,591475632569265.0,3904239786260.6934,6369331338489.24,72252503942046.7,1325325605961725.5
14.997791114242183,1.057682036751069e+16,1.3237128227083014e+16,599315684346044.4,598374226599702.2,4056103970161.9976,6617132447542.917,75063554496726.42,1376881157712137.2
15.397746936527026,1.0698945003894068e+16,1.3429526016593088e+16,606235647766933.5,605283319538754.5,4212619815109.2666,6872527277361.043,77960750819794.44,1430016147481111.2
15.805701875257567,1.0821255879884296e+16,1.3623852573253952e+16,613166164105849.5,612202948818562.9,4373908174866.417,7135713314533.9375,80946333422169.14,1484771625533671.0
16.221815912762718,1.0943753188736524e+16,1.3820152721634032e+16,620107244313227.9,619133125372364.9,4540092672832.114,7406892581556.911,84022594283162.03,1541189583674373.2
16.64625223101797,1.1066436666538494e+16,1.4018471795119914e+16,627058873434978.9,626073834269565.4,4711299750191.888,7686271716232.932,87191877751876.56,1599312971658575.0
17.079177275638333,1.1189305602823714e+16,1.4218855665337306e+16,634021011213854.5,633025035316155.6,4887658714521.49,7974062051848.662,90456581457413.4,1659185713759769.8
17.5207608211511,1.1312358850635602e+16,1.4421350771123744e+16,640993592659707.9,639986663624089.4,5069301788831.483,8270479698109.909,93819157227716.4,1720852725489690.8
17.97117603757412,1.1435594836101168e+16,1.4626004147114976e+16,647976528591989.0,646958630152902.8,5256364161043.836,8575745622822.0625,97282112016905.08,1784359930468158.0
18.430599558325603,1.155901156756874e+16,1.4832863452001506e+16,654969706157486.1,653940822226671.2,5448984033890.644,8890085734301.871,100848008840934.62,1849754277439478.8
18.899211549492115,1.1682606644358574e+16,1.5041976996507394e+16,661972989326186.2,660933104029076.5,5647302675225.832,9213730964506.896,104519467721432.14,1917083757432383.0
19.37719578048196,1.1806377265173314e+16,1.525339377113987e+16,668986219367832.6,667935317079203.2,5851464468740.209,9546917352868.922,108299166637554.4,1986397421060378.2
19.864739696091597,1.1930320236209364e+16,1.5467163473752602e+16,676009215311538.4,674947280690455.4,6061616965070.909,9889886130818.35,112189842485722.77,2057745395959615.2
20.36203449001343,1.2054431979009616e+16,1.5683336536963622e+16,683041774390739.9,681968792414792.4,6277910933295.694,10242883806986.184,116194292047079.27,2131178904361139.5
20.869275179813698,1.2178708538091694e+16,1.5901964155464544e+16,690083672475456.8,688999628474320.0,6500500412802.945,10606162253070.654,120315372962526.75,2206750280794671.5
21.38666068340997,1.2303145588386278e+16,1.6123098313253926e+16,697134664493742.1,696039544182075.5,6729542765528.125,10979978790354.926,124556004715195.75,2284512989920759.0
21.91439389707817,1.2427738442514076e+16,1.63467918108259e+16,704194484844048.0,703088274353737.2,6965198728547.281,11364596276863.725,128919169620200.2,2364521644488417.5
22.452681775019734,1.2552482057930058e+16,1.6573098292340684e+16,711262847800017.9,710145533711794.5,7207632467018.004,11760283195144.338,133407913821524.52,2446832023415127.5
23.00173541052013,1.2677371043958934e+16,1.6802072272801742e+16,718339447909149.2,717211017283578.2,7457011627458.312,12167313740659.248,138025348295895.6,2531501089986063.0
23.561770118730532,1.2802399668744758e+16,1.703376916526064e+16,725423960386576.4,724284400794421.8,7713507391353.059,12585967910776.48,142774649863478.34,2618587010169282.5
24.133005521105144,1.292756186613419e+16,1.726824530806853e+16,732516041505104.1,731365341057084.9,7977294529077.662,13016531594341.555,147659062205229.38,2708149171043515.5
24.715665631527248,1.305285126583998e+16,1.750555799145288e+16,739615330303955.8,738453477676936.6,8248551468704.802,13459296684223.268,152681896876606.06,2800248172602464.5
25.309978944157795,1.3178261106763486e+16,1.7745765487174654e+16,746721443678954.4,745548428153384.8,8527460292464.948,13914561078754.844,157846534377644.44,2894945952829964.5
25.91617852304095,1.3303784384276778e+16,1.7988927073660646e+16,753833984725597.8,752649796204528.5,8814206878307.582,14382628906312.586,163156425130603.34,2992305647538550.5
26.53450209350177,1.3429413763105208e+16,1.8235103064387164e+16,760952537804311.9,759757166843709.5,9108980897343.959,14863810528459.725,168615090559949.16,3092391714648185.0
27.165192135371807,1.3555141607635668e+16,1.848435483553843e+16,768076670257399.1,766870108092884.9,9411975883536.908,15358422654255.166,174226124131063.56,3195269926883673.0
27.808495978079243,1.3680959988689892e+16,1.8736744853766864e+16,775205932792844.6,773988171365826.1,9723389289263.727,15866788432948.559,179993192403366.56,3301007390792729.0
28.464665897640828,1.3806860690307828e+16,1.899233670405015e+16,782339859868684.5,781110891851874.6,10043422541098.463,16389237547117.924,185920036088531.28,3409672565844985.0
29.133959215593645,1.3932835216542856e+16,1.9251195117642056e+16,789477970078038.9,788237788900382.4,10372281095793.15,16926106306220.834,192010471113456.5,3521335283605315.0
29.816638399905518,1.4058874798269104e+16,1.9513386000108796e+16,796619766534836.1,795368366405823.0,10710174496436.996,17477737740526.896,198268389687635.44,3636066766974436.5
30.51297116790363,1.418497039999995e+16,1.9778976459441104e+16,803764737260176.5,802502113193549.2,11057316428768.566,18044481695395.914,204697761374522.5,3753939649488757.5
31.223230591261704,1.431111272671443e+16,2.004803483423053e+16,810912355569129.5,809638503405983.0,11413924777615.791,18626694925862.72,211302634166457.28,3875027994671037.0
31.947695203086937,1.4437292230687672e+16,2.032063072189435e+16,818062080457768.6,816776996889050.1,11780221683434.275,19224741191485.54,218087135562653.88,3999407315422302.5
32.686649107148675,1.4563499118319496e+16,2.0596835006932776e+16,825213356990113.9,823917039578498.4,12156433598912.893,19838991351409.89,225055473649721.97,4127154593444613.0
33.44038208929165,1.4689723356955366e+16,2.087671988919863e+16,832365616684604.1,831058063885775.5,12542791345612.297,20469823459597.27,232211938184145.75,4258348298683493.5
34.20918973107749,1.4815954681691408e+16,2.1160358912158744e+16,839518277899718.1,838199489083044.4,12939530170599.51,21117622860161.867,239560901676073.44,4393068408777747.0
34.993373525699035,1.4942182602157274e+16,2.14478269911256e+16,846670746218293.6,845340721686888.4,13346889803039.086,21782782282754.887,247106820473746.12,4531396428503590.0
35.793240996213015,1.5068396409267762e+16,2.1739200441433584e+16,853822414830097.2,852481155840292.8,13765114510698.064,22465701937931.81,254854235847823.16,4673415409198961.0
36.60910581613728,1.519458518193592e+16,2.2034557006537292e+16,860972664912221.4,859620173692435.0,14194453156319.914,23166789612433.418,262807775074839.75,4819209968153124.0
37.44128793246003,1.5320737793740424e+16,2.233397588600598e+16,868120866006863.5,866757145775877.8,14635159253819.748,23886460764307.758,270972152518953.03,4968866307945736.0
38.29011369110923,1.5446842919540546e+16,2.263753776338961e+16,875266376396163.2,873891431380804.5,15087491024250.863,24625138617796.45,279352170711136.6,5122472235718873.0
39.15591596493141,1.557288904203283e+16,2.2945324833931796e+16,882408543473723.8,881022378925974.5,15551711451491.404,25383254257906.336,287952721424906.44,5280117182364961.0
40.03903428423004,1.569886445824607e+16,2.325742083210736e+16,889546704112617.8,888149326326138.6,16028088337597.162,26161246724584.03,296778786747668.56,5441892221612673.0
40.93981496991464,1.5824757285971224e+16,2.357391105896074e+16,896680185029758.5,895271601355838.5,16516894357766.639,26959563106410.56,305835440146734.6,5607890088992987.0
41.85861126931294,1.595055547012629e+16,2.3894882409227096e+16,903808303146527.6,902388522009480.0,17018407114863.086,27778658633731.35,315127847529067.06,5778205200667100.0
42.7957834946992,1.6076246789057776e+16,2.4220423398217624e+16,910930365945844.4,909499396857826.0,17532909193438.559,28618996771137.594,324661268293789.9,5952933672097825.0
43.751699164593184,1.6201818860782366e+16,2.4550624188454976e+16,918045671825847.8,916603525401125.9,18060688213205.613,29481049309216.004,334441056376542.94,6132173336546701.0
44.72673314788505,1.6327259149176076e+16,2.4885576616047156e+16,925153510450576.9,923700198419258.6,18602036881903.688,30365296455486.71,344472661284755.7,6316023763379100.0
