t(s),Total solute volume 1,Total retention volume 1,Total 1 volume 1,Total 2 volume 1,Total 3 volume 1,Total 4 volume 1,Total 5 volume 1,Total 6 volume 1
0.1,1384269013029218.2,1.039366397781807e+16,2531887414418598.5,6477507550370256.0,0.0,0.0,0.0,0.013903653951609765
0.202,1987909787209014.2,1.5070787456295786e+16,3635975924205324.5,9302243704960084.0,101449796445.2973,692702465210.7955,24061644104348.363,119802243555361.22
0.30604000000000003,2452454530790945.5,1.8811466526633064e+16,4485649528051132.5,1.147604911218199e+16,252829058430.3277,1728446353907.0125,63465580196297.27,331866500000368.56
0.41216080000000005,2837431275337689.0,2.2042242815601036e+16,5189789482764775.0,1.3277518605379616e+16,443184990559.2855,3031257844428.1143,114358460689396.64,619670548594576.4
0.5204040160000001,3169840032945238.5,2.4954062351330068e+16,5797780142659742.0,1.483299894157319e+16,666788778685.9861,4561787443385.735,174781087271975.62,973433570657848.6
0.6308120963200001,3464230862629439.0,2.764814435455122e+16,6336234257033015.0,1.62105766650066e+16,920094952683.9635,6295702392318.02,243540695145251.7,1386346077391898.0
0.7434283382464002,3729444885809053.5,3.018487853934251e+16,6821322650621797.0,1.7451623388925104e+16,1200685701140.5137,8216413861118.105,319831038318730.4,1853239476105583.2
0.8582969050113283,3971342341123068.0,3.2603515646397136e+16,7263763972269329.0,1.858356178664403e+16,1506818446853.5728,10311968033289.352,403073493686911.6,2369955266193653.0
0.9754628431115548,4194058956798157.5,3.4931230460394332e+16,7671122660624417.0,1.9625744766625424e+16,1837196201507.5105,12573469604401.426,492840478739640.75,2933052931800781.0
1.094972099973786,4400650164636452.0,3.718776486853041e+16,8048987241995268.0,2.0592470048623036e+16,2190835348082.2676,14994174434641.818,588812344090009.9,3539660059402899.5
1.2168715419732616,4593451014507341.0,3.938801499408474e+16,8401628630765086.0,2.1494664366042664e+16,2566981938525.9473,17568915117806.49,690749909864455.2,4187385175848838.0
1.3412089728127268,4774291830702755.0,4.154357146388147e+16,8732394574858408.0,2.234089261766873e+16,2965054815116.327,20293710525122.08,798475252656371.4,4874258422654956.0
1.4680331522689813,4944635304111198.0,4.3663686379512536e+16,9043960403651668.0,2.3137999382150732e+16,3384604988992.41,23165486840382.664,911857405027514.6,5598683792742027.0
1.597393815314361,5105668213939012.0,4.5755907230910504e+16,9338496791227280.0,2.389153812410216e+16,3825285717578.1406,26181871990691.016,1030801358194055.2,6359395585739714.0
1.729341691620648,5258365533140258.0,4.782650767643551e+16,9617787008162570.0,2.4606071171567196e+16,4286830103005.866,29341041704153.188,1155239525068845.5,7155416566689504.0
1.863928525453061,5403536896346202.0,4.988078929080621e+16,9883311913524092.0,2.528538716003314e+16,4769034240629.722,32641603695619.742,1285125169911799.0,7986017513054705.0
2.001207095962122,5541861271878322.0,5.192329847793573e+16,1.013631337159228e+16,2.593266327828686e+16,5271744576347.727,36082510787936.25,1420427450116145.2,8850678850697853.0
2.1412312378813647,5673913373415522.0,5.395798593359809e+16,1.0377842560034776e+16,2.6550588860540804e+16,5794848459244.525,39662996012470.586,1561127759602176.5,9749055535533068.0
2.284055862638992,5800184062035768.0,5.5988326192331976e+16,1.0608797286198044e+16,2.7141460856886892e+16,6338267094631.28,43382524225332.27,1707217094820133.8,1.0680946101071204e+16
2.4297369798917723,5921096264478082.0,5.801740881137746e+16,1.082995110235739e+16,2.770725832214677e+16,6901950288102.946,47240756046859.69,1858694202246691.0,1.1646266213813606e+16
2.578331719489608,6037017479635429.0,6.004800899685554e+16,1.1041976180681816e+16,2.824970093950763e+16,7485872508350.055,51237520872062.67,2015564296495069.2,1.2645026707155192e+16
2.7298983538794,6148269642226168.0,6.208264306408302e+16,1.1245461354353876e+16,2.8770295177178544e+16,8090029890913.243,55372796347972.4,2177838167221915.0,1.3677315896863626e+16
2.884496320956988,6255136925420214.0,6.412361253153569e+16,1.1440926388939804e+16,2.9270370800453444e+16,8714437898702.412,59646692359236.08,2345531537613290.5,1.4743285748850988e+16
3.0421862473761276,6357871949268027.0,6.617303957401489e+16,1.1628833337897272e+16,2.9751109923778456e+16,9359129457396.383,64059438269809.76,2518664589751927.5,1.5843141205591972e+16
3.2030299723236504,6456700766044501.0,6.8232895821760696e+16,1.1809595661002634e+16,3.0213570339432572e+16,10024153459716.4,68611372692263.54,2697261607919755.0,1.6977131921209252e+16
3.3670905717701234,6551826897748038.0,7.0305025974961624e+16,1.198358560912483e+16,3.065870441080019e+16,10709573559750.482,73302935242881.61,2881350701737288.0,1.8145545846748616e+16
3.5344323832055258,6643434621880023.0,7.239116733519342e+16,1.2151140234068624e+16,3.1087374447996796e+16,11415467180410.79,78134659753126.45,3070963573847210.0,1.9348704330467268e+16
3.7051210308696363,6731691655619447.0,7.449296608978658e+16,1.2312566298054016e+16,3.1500365268305348e+16,12141924671594.764,83107168508280.16,3266135309712699.5,2.0586958464915164e+16
3.879223451487029,6816751367352422.0,7.661199099070982e+16,1.2468144318705548e+16,3.189839454488929e+16,12889048591803.541,88221167327681.08,3466904188318437.5,2.186068635552463e+16
4.0568079205167695,6898754626164065.0,7.874974492531926e+16,1.2618131951857854e+16,3.228212146136924e+16,13656953117339.707,93477441517672.23,3673311525987766.5,2.3170290965305332e+16
4.237944078927105,6977831371988228.0,8.090767476811816e+16,1.276276686343168e+16,3.2652154059235812e+16,14445763586536.521,98876852750503.25,3885401560987158.0,2.451619829613826e+16
4.422702960505647,7054101957433729.0,8.308717982081734e+16,1.2902269183695562e+16,3.3009055516836796e+16,15255616164438.922,104420336769072.05,4103221370805139.5,2.5898855839112576e+16
4.61115701971576,7127678290275944.0,8.528961908552982e+16,1.3036843596935286e+16,3.335334949558837e+16,16086657590796.744,110108901660961.58,4326820802988848.0,2.7318731340489656e+16
4.803380160110075,7198664799699281.0,8.75163175677643e+16,1.316668110875538e+16,3.36855246614366e+16,16939044973307.309,115943626439143.03,4556252404248144.0,2.8776311922212444e+16
4.9994477633122765,7267159254320562.0,8.976857176823019e+16,1.3291960542281016e+16,3.400603851273526e+16,17812945609921.062,121925659818607.55,4791571347586347.0,3.0272103505878468e+16
5.199436718578522,7333253464856587.0,9.204765449271082e+16,1.3412849823368928e+16,3.431532066832391e+16,18708536851164.89,128056219266179.05,5032835371101505.0,3.1806630408942556e+16
5.403425452950093,7397033901425247.0,9.435481908561016e+16,1.3529507109679044e+16,3.4613775756141916e+16,19626006026091.23,134336590487966.31,5280104744548011.0,3.3380434977301916e+16
5.611493962009095,7458582245029014.0,9.669130317402517e+16,1.3642081799363116e+16,3.4901785993857212e+16,20565550446545.332,140768127456530.6,5533442269878462.0,3.4994077187994356e+16
5.823723841249277,7517975880563617.0,9.905833199434942e+16,1.375071543280019e+16,3.5179713495867404e+16,21527377482410.465,147352252926788.22,5792913307498045.0,3.6648134247211e+16
6.040198318074262,7575288330949861.0,1.014571213616038e+17,1.3855542486643568e+16,3.544790230479092e+16,22511704681083.895,154090459255177.4,6058585810623559.0,3.834320026465959e+16
6.261002284435747,7630589631291836.0,1.0388888033212669e+17,1.395669105817327e+16,3.5706680142313276e+16,23518759899459.055,160984309302442.03,6330530351219443.0,4.007988607992697e+16
6.486222330124463,7683946646535423.0,1.0635481360231032e+17,1.4054283446307848e+16,3.595635989564511e+16,24548781427646.39,168035437276708.7,6608820130841049.0,4.185881926427654e+16
6.715946776726952,7735423341809483.0,1.088561236793495e+17,1.4148436646070496e+16,3.619724088256022e+16,25602018102853.234,175245549506740.8,6893530981978855.0,4.368064425932083e+16
6.950265712261491,7785081017784727.0,1.1139401285428578e+17,1.423926277907109e+16,3.642960995273731e+16,26678729428395.113,182616425249920.7,7184741373465570.0,4.5546022576548744e+16
7.18927102650672,7832978522501793.0,1.139696850029185e+17,1.4326869480949218e+16,3.665374247899242e+16,27779185719022.766,190149917682284.97,7482532433758109.0,4.745563298331564e+16
7.433056447036854,7879172447077173.0,1.1658434723637093e+17,1.4411360259329374e+16,3.686990327307149e+16,28903668288303.477,197847955179830.25,7786987999382116.0,4.9410171634042664e+16
7.681717575977592,7923717307682338.0,1.1923921142012997e+17,1.449283482666916e+16,3.707834743721108e+16,30052469681030.062,205712542911521.38,8098194686501338.0,5.141035214947348e+16
7.935351927497144,7966665712349247.0,1.2193549557803797e+17,1.4571389405354336e+16,3.727932114469612e+16,31225893940322.492,213745764672084.44,8416241975971599.0,5.345690568105429e+16
8.194058966047088,8008068509643284.0,1.2467442519578411e+17,1.4647116999628494e+16,3.747306233556681e+16,32424256890916.832,221949784826088.72,8741222299305651.0,5.555058100992289e+16
8.45794014536803,8047974917011671.0,1.2745723443672234e+17,1.4720107630348264e+16,3.765980131721772e+16,33647886419529.21,230326850230817.2,9073231115154316.0,5.769214472034003e+16
8.72709894827539,8086432628751148.0,1.3028516728122725e+17,1.4790448532461138e+16,3.783976126962424e+16,34897122739087.11,238879292046584.06,9412366971522900.0,5.9882381464082136e+16
9.0016409272409,8123487905865186.0,1.3315947859926022e+17,1.485822431935835e+16,3.80131586658224e+16,36172318632741.4,247609527406560.03,9758731555331616.0,6.212209430684337e+16
9.281673745785717,8159185651670474.0,1.3608143516440552e+17,1.4923517121162474e+16,3.8180203625701736e+16,37473839682156.88,256520060977743.62,1.0112429735698056e+16,6.441210512951292e+16
9.567307220701432,8193569477447955.0,1.3905231661643125e+17,1.498640670480614e+16,3.834110022321347e+16,38802064489890.97,265613486481497.56,1.0473569609149468e+16,6.675325505084279e+16
9.85865336511546,8226681761806860.0,1.420734163784761e+17,1.5046970582611472e+16,3.849604676415917e+16,40157384906685.555,274892488248981.22,1.0842262553822514e+16,6.9146404842920504e+16
10.155826432417769,8258563706157335.0,1.451460425342882e+17,1.510528411375211e+16,3.864523604577135e+16,41540206271816.51,284359842868055.2,1.1218623296526722e+16,7.159243532294087e+16
10.458942961066125,8289255387278362.0,1.482715186704716e+17,1.5161420600402394e+16,3.878885560270228e+16,42950947669872.69,294018420944994.1,1.1602769992704494e+16,7.409224771876917e+16
10.768121820287448,8318795806836263.0,1.514511846883874e+17,1.5215451378308966e+16,3.8927087938743736e+16,44390042202321.93,303871188969460.44,1.19948243160794e+16,7.66467640172471e+16
11.083484256693197,8347222937074445.0,1.5468639759008512e+17,1.526744590035958e+16,3.9060110740630936e+16,45857937268427.99,313921211244846.3,1.2394911552935924e+16,7.925692731057098e+16
11.405153941827061,8374573761778341.0,1.5797853224235094e+17,1.5317471811509846e+16,3.9188097069736456e+16,47355094848274.11,324171651833560.06,1.2803160695730516e+16,8.192370215691395e+16
11.733257020663602,8400884311895994.0,1.6132898212261197e+17,1.5365595013934954e+16,3.9311215528755064e+16,48881991780858.695,334625776468342.4,1.321970453181957e+16,8.46480749679572e+16
12.067922161076874,8426189695675401.0,1.6473916005002685e+17,1.5411879722152362e+16,3.942963040272996e+16,50439120031955.945,345286954392768.2,1.3644679724944642e+16,8.743105443009978e+16
12.409280604298411,8450524123680851.0,1.6821049890464627e+17,1.5456388508777674e+16,3.954350177611437e+16,52026986948930.93,356158660111466.7,1.4078226889121478e+16,9.02736719598915e+16
12.75746621638438,8473920929438029.0,1.717444523370992e+17,1.5499182342285548e+16,3.965298562937841e+16,53646115502220.52,367244475048160.56,1.4520490656237874e+16,9.317698218920891e+16
13.112615540712067,8496412586668015.0,1.753424954708827e+17,1.5540320618531348e+16,3.975823391965312e+16,55297044515195.29,378548089123553.8,1.4971619739682664e+16,9.614206347270886e+16
13.474867851526309,8518030724098721.0,1.790061255990486e+17,1.5579861187841962e+16,3.985939465003849e+16,56980328885315.96,390073302273410.1,1.5431766996636428e+16,9.917001840927422e+16
13.844365208556836,8538806138728707.0,1.827368628768828e+17,1.5617860379275752e+16,3.9956611931669304e+16,58696539799870.24,401824025929728.0,1.5901089491358826e+16,1.0226197437012059e+17
14.221252512727972,8558768808220289.0,1.8653625101208083e+17,1.5654373023290234e+16,4.005002604170706e+16,60446264949268.016,413804284485732.8,1.6379748561116098e+16,1.0541908402831202e+17
14.605677562982532,8577947902875359.0,1.9040585795387165e+17,1.568945247364621e+16,4.013977347937897e+16,62230108740145.16,426018216760299.44,1.6867909885541892e+16,1.0864252588692878e+17
14.997791114242183,8596371797443099.0,1.9434727658254928e+17,1.5723150629004678e+16,4.0225987021230776e+16,64048692509630.375,438470077471149.4,1.7365743559419102e+16,1.1193350480547088e+17
15.397746936527026,8614068082852112.0,1.9836212540085818e+17,1.5755517954385378e+16,4.0308795776026056e+16,65902654741290.67,451164238720292.5,1.7873424168251534e+16,1.1529325252588149e+17
15.805701875257567,8631063577859860.0,2.0245204922866096e+17,1.5786603502474126e+16,4.038832523925815e+16,67792651282624.58,464105191490663.75,1.8391130865630404e+16,1.1872302820066506e+17
16.221815912762718,8647384340566073.0,2.0661871990225587e+17,1.5816454934681358e+16,4.046469734702626e+16,69719355563585.75,477297547150196.5,1.891904745129178e+16,1.2222411892597669e+17
16.64625223101797,8663055679732384.0,2.1086383697961648e+17,1.5845118541846218e+16,4.053803052900397e+16,71683458815486.4,490746038958661.56,1.9457362448865104e+16,1.257978402823947e+17
17.079177275638333,8678102165872508.0,2.1518912845270138e+17,1.587263926452094e+16,4.060843976033425e+16,73685670289708.05,504455523573134.56,2.0006269182559668e+16,1.2944553688555126e+17
17.5207608211511,8692547642111410.0,2.195963514678415e+17,1.589906071283278e+16,4.067603661244348e+16,75726717475863.84,518430982549501.1,2.0565965852351012e+16,1.3316858294807755e+17
17.97117603757412,8706415234847506.0,2.2408729305506835e+17,1.592442518598559e+16,4.074092930293317e+16,77807346319347.0,532677523839438.7,2.1136655607549024e+16,1.3696838285359422e+17
18.430599558325603,8719727364280339.0,2.2866377086711235e+17,1.594877369151531e+16,4.0803222744842184e+16,79928321438500.8,547200383284435.6,2.171854661890558e+16,1.4084637174284611e+17
18.899211549492115,8732505754884944.0,2.3332763392869552e+17,1.5972145964448102e+16,4.086301859565961e+16,82090426341914.73,562004926110307.1,2.2311852149624416e+16,1.4480401611162614e+17
19.37719578048196,8744771445921660.0,2.3808076339665037e+17,1.5994580486523084e+16,4.0920415306503224e+16,84294463646568.08,577096648427175.0,2.291679062576153e+16,1.4884281441986707e+17
19.864739696091597,8756544802068170.0,2.4292507333135254e+17,1.6016114505638856e+16,4.097550817186957e+16,86541255297686.42,592481178740920.8,2.35335857065533e+16,1.5296429771118413e+17
20.36203449001343,8767845524251379.0,2.478625114799169e+17,1.6036784055665326e+16,4.1028389380319576e+16,88831642791268.39,608164279482722.1,2.416246635519873e+16,1.571700302422079e+17
20.869275179813698,8778692660742506.0,2.5289506007159734e+17,1.6056623976737196e+16,4.107914806639581e+16,91166487400267.84,624151848563508.5,2.4803666910566732e+16,1.6146161012119117e+17
21.38666068340997,8789104618562821.0,2.5802473662583597e+17,1.607566793611531e+16,4.1127870363992936e+16,93546670405407.48,640449920960089.5,2.545742716022058e+16,1.6584066995557878e+17
21.91439389707817,8799099175230414.0,2.6325359477341104e+17,1.6093948449672174e+16,4.1174639461324584e+16,95973093331564.17,657064670339427.4,2.6123992415064096e+16,1.703088775084487e+17
22.452681775019734,8808693490862911.0,2.6858372509114048e+17,1.6111496904028148e+16,4.121953565755556e+16,98446678190605.67,674002410727131.9,2.680361358583118e+16,1.74867936363945e+17
23.00173541052013,8817904120636825.0,2.740172559506026e+17,1.6128343579340162e+16,4.1262636421103176e+16,100968367731493.62,691269598225764.1,2.749654726156963e+16,1.795195866019955e+17
23.561770118730532,8826747027592529.0,2.795563543813301e+17,1.61445176727225e+16,4.130401644955557e+16,103539125698399.34,708872832788060.5,2.820305579021681e+16,1.8426560548275606e+17
24.133005521105144,8835237595764005.0,2.8520322694892272e+17,1.6160047322261726e+16,4.134374773111022e+16,106159937097505.11,726818860049684.2,2.892340736132825e+16,1.8910780814131133e+17
24.715665631527248,8843390643605205.0,2.909601206485079e+17,1.617495963157391e+16,4.138189960740007e+16,108831808473102.58,745114573225661.0,2.965787609100125e+16,1.9404804829322858e+17
25.309978944157795,8851220437679013.0,2.9682932381395296e+17,1.618928069484246e+16,4.1418538837549064e+16,111555768193532.8,763767015074223.5,3.0406742109028644e+16,1.990882189515859e+17
25.91617852304095,8858740706571187.0,3.0281316704321485e+17,1.6203035622267146e+16,4.145372966327989e+16,114332866747459.52,782783379931392.2,3.1170291648322624e+16,2.042302531560952e+17
26.53450209350177,8865964654988849.0,3.089140241401816e+17,1.6216248565850908e+16,4.148753387488549e+16,117164177050911.75,802171015819290.5,3.1948817136657396e+16,2.094761247149289e+17
27.165192135371807,8872904978002184.0,3.1513431307334374e+17,1.6228942745448528e+16,4.15200108778711e+16,120050794765489.7,821937426630839.9,3.274261729079436e+16,2.148278489598312e+17
27.808495978079243,8879573875387536.0,3.2147649695161216e+17,1.6241140475000674e+16,4.155121776007031e+16,122993838628082.31,842090274393261.6,3.3551997213065704e+16,2.2028748351506662e+17
28.464665897640828,8885983066030830.0,3.279430850175885e+17,1.625286318887842e+16,4.158120935904361e+16,125994450792413.16,862637381612525.1,3.437726849050613e+16,2.2585712908072448e+17
29.133959215593645,8892143802351359.0,3.345366336585815e+17,1.6264131468264916e+16,4.161003832957236e+16,129053797182699.67,883586733700710.6,3.5218749296631932e+16,2.3153893023087747e+17
29.816638399905518,8898066884707944.0,3.4125974743566624e+17,1.6274965067504916e+16,4.1637755211070216e+16,132173067859684.98,904946481488082.1,3.607676449597357e+16,2.373350762270619e+17
30.51297116790363,8903762675751381.0,3.481150801310795e+17,1.6285382940355926e+16,4.1664408494743096e+16,135353477399279.9,926724943821512.8,3.695164575147191e+16,2.432478018475364e+17
31.223230591261704,8909241114689577.0,3.55105335814252e+17,1.6295403266079812e+16,4.169004469034106e+16,138596265284037.23,948930610250800.9,3.784373163484768e+16,2.4927938823275923e+17
31.947695203086937,8914511731434306.0,3.622332699267923e+17,1.630504347531772e+16,4.1714708392355656e+16,141902696307663.72,971572143804325.0,3.875336774005384e+16,2.5543216374751853e+17
32.686649107148675,8919583660600905.0,3.6950169038673837e+17,1.6314320275696246e+16,4.17384423455297e+16,145274060992765.72,994658383855379.2,3.9680906799913864e+16,2.617085048601494e+17
33.44038208929165,8924465655335024.0,3.769134587124217e+17,1.6323249677117006e+16,4.17612875095576e+16,148711676022011.4,1018198349080496.4,4.0626708806044936e+16,2.681108370392648e+17
34.20918973107749,8929166100942722.0,3.844714911662841e+17,1.6331847016686758e+16,4.178328312286538e+16,152216884682887.62,1042201240510985.9,4.159114113215851e+16,2.7464163566843712e+17
34.993373525699035,8933693028302798.0,3.9217875991901645e+17,1.634012698324906e+16,4.180446676537169e+16,155791057326216.2,1066676444678852.4,4.257457866082264e+16,2.8130342697926534e+17
35.793240996213015,8938054127042189.0,4.000382942343984e+17,1.6348103641482694e+16,4.182487442014077e+16,159435591838594.2,1091633536858228.0,4.357740391376437e+16,2.8809878900327133e+17
36.60910581613728,8942256758457778.0,4.080531816752254e+17,1.6355790455536176e+16,4.184454053384783e+16,163151914128905.38,1117082284403374.8,4.460000718578346e+16,2.9503035254306765e+17
37.44128793246003,8946307968169395.0,4.162265693307351e+17,1.6363200312170612e+16,4.186349807598753e+16,166941478629052.97,1143032650184292.2,4.564278668234241e+16,3.021008021632518e+17
