t(s),Total solute volume 1,Total retention volume 1,Total 1 volume 1,Total 2 volume 1,Total 3 volume 1,Total 4 volume 1,Total 5 volume 1,Total 6 volume 1
0.1,988500314890707.8,1201179625827040.0,98333854761724.14,114345456174609.27,0.0,0.0,0.0,0.0
0.202,1486974876286677.5,1811291397487489.2,147921017069722.12,172006847030696.1,5437983420.646114,11212757912.144554,180798025913.01675,4191208333148.386
0.30604000000000003,1865062650046040.8,2277456922641905.0,185532364113870.88,215742411943026.0,13777493061.442013,28408309774.22109,458067377212.223,10619243358917.064
0.41216080000000005,2183493545411626.5,2673002717747192.0,217209175000038.25,252577126071019.12,24436920916.74769,50387434583.49517,812470026174.9344,18835576882830.645
0.5204040160000001,2465041145088128.5,3025389951440522.0,245216916078462.94,285145339429863.94,37153353677.70501,76608038891.11324,1235264830809.2861,28637524620695.29
0.6308120963200001,2721059367495465.5,3348298275365960.5,270685050391558.3,314760424405568.4,51781714156.98678,106770999068.72862,1721628529519.6711,39913251830629.16
0.7434283382464002,2958149111483006.0,3649678705905369.5,294270220959691.5,342185944544630.7,68235166196.21474,140697280627.8403,2268674271083.3877,52595822200132.305
0.8582969050113283,3180538691952258.0,3934626421243150.0,316393051326568.6,367911013100458.8,86460590029.74101,178277370337.9188,2874636214054.769,66644290689441.18
0.9754628431115548,3391124273096589.5,4206635274142531.0,337341645588964.0,392270645870473.4,106426474768.15742,219446311525.68915,3538466976992.491,82034369823213.98
1.094972099973786,3591989453110582.5,4468223740665535.5,357323275550423.2,415505864517563.6,128116195727.06155,264169842516.1824,4259614124998.3394,98753247323722.2
1.2168715419732616,3784690656740897.5,4721278443804192.0,376492770949759.8,437796709551130.9,151523960619.26248,312436038064.02295,5037885390634.102,116796461173081.83
1.3412089728127268,3970425542591551.5,4967256696650960.0,394969272252467.75,459281720958739.25,176652210877.9473,364249951151.2243,5873362274880.528,136165896411300.86
1.4680331522689813,4150138108063577.0,5207312811569248.0,412846686260868.5,480070096292779.06,203509875442.51706,419630012496.37915,6766341990631.073,156868439073447.12
1.597393815314361,4324587312563870.0,5442380504863650.0,430200512601241.3,500249628707644.5,232111152811.8976,478605519310.40967,7717296969916.024,178915037348856.9
1.729341691620648,4494393575295522.5,5673228692137117.0,447092469222587.7,519892085623809.3,262474635612.43167,541214830291.3609,8726845758980.938,202320026770301.97
1.863928525453061,4660071275872213.0,5900500460985500.0,463573725486858.9,539056968258888.94,294622665670.8852,607504035903.9258,9795731577157.44,227100633088805.62
2.001207095962122,4822052079638205.0,6124741023484403.0,479687222520905.06,557794209800162.75,328580849133.9837,677525958663.9681,10924806196942.568,253276598520400.16
2.1412312378813647,4980702063237056.0,6346418227138755.0,495469376830705.2,576146156416592.9,364377685707.3471,751339388730.2638,12115017618318.154,280869895961657.22
2.284055862638992,5136334539739886.0,6565937907340076.0,510951356117140.8,594149050814398.1,402044281153.2166,829008491171.5594,13367400511270.584,309904507385049.44
2.4297369798917723,5289219831731212.0,6783655581143312.0,526160051481260.56,611834162745525.0,441614121758.2891,910602341013.6658,14683068718715.805,340406250003832.4
2.578331719489608,5439592834241864.0,6999885493259821.0,541118829768359.06,629228663855144.1,483122895745.22327,996194555083.464,16063209320238.697,372402638623376.94
2.7298983538794,5587658948293404.0,7214907711248118.0,555848123824010.94,646356314048502.6,526608350804.94934,1085862998334.1635,17509077896816.459,405922775836254.94
2.884496320956988,5733598793846991.0,7428973760243674.0,570365901327975.5,663238006664555.6,572110179813.3964,1179689548287.774,19021994732661.785,440997263943391.9
3.0421862473761276,5877571995147983.0,7642311148482693.0,584688041351987.0,679892206348293.2,619669928818.7322,1277759905401.095,20603341757567.89,477658134042637.6
3.2030299723236504,6019720251904754.0,7855127039372801.0,598828639873946.2,696335304311510.8,669330922828.3176,1380163440136.8477,22254560081113.41,515938788838513.8
3.3670905717701234,6160169854099508.0,8067611259094680.0,612800259945809.8,712581909235259.4,721138205971.0394,1486993069679.5544,23977148004880.293,555873956533564.5
3.5344323832055258,6299033758667951.0,8279938781268516.0,626614138277147.9,728645087491220.5,775138493381.0427,1598345158824.03,25772659424450.4,597499653755541.1
3.7051210308696363,6436413317736618.0,8492271795992972.0,640280357156433.5,744536563056750.2,831380132723.5552,1714319440749.257,27642702552049.906,640853155917648.8
3.879223451487029,6572399727222051.0,8704761445535914.0,653807988554515.1,760266885082581.6,889913073717.5027,1835018954285.4626,29588938905145.29,685972973743617.4
4.0568079205167695,6707075249124123.0,8917549290423968.0,667205215715712.1,775845569282467.9,950788844341.2463,1960549994965.8564,31613082517315.91,732898834945024.8
4.237944078927105,6840514249252447.0,9130768555796028.0,680479436388547.0,791281217972884.0,1014060532663.7286,2091022077682.2979,33716899336241.29,781671670235555.2
4.422702960505647,6972784083341951.0,9344545197375228.0,693637350974610.1,806581622575074.8,1079782773442.8086,2226547909175.622,35902206780273.516,832333603020693.5
4.61115701971576,7103945857795562.0,9558998818375964.0,706685038205579.5,821753851614479.1,1148011738789.5793,2367243368914.865,38170873430282.97,884927942222354.1
4.803380160110075,7234055086104595.0,9774243462460694.0,719628020442478.9,836804326652615.9,1218805132321.8887,2513227497176.5034,40524818837608.56,939499177793910.9
4.9994477633122765,7363162257957224.0,9990388303031404.0,732471320289360.6,851738888119105.8,1292222186329.9023,2664622489339.8853,42966013432246.28,996092978557800.4
5.199436718578522,7491313334873820.0,1.0207538245351386e+16,745219509898015.0,866562852644623.8,1368323661556.6646,2821553695580.622,45496478518086.375,1054756192059705.8
5.403425452950093,7618550183698832.0,1.0425794454997234e+16,757876754090812.2,881281063205377.1,1447171849261.7495,2984149625277.6543,48118286344161.5,1115536846183513.8
5.611493962009095,7744910957280338.0,1.064525482375429e+16,770446848229855.5,895897933158467.8,1528830575289.1724,3152541955559.421,50833560242645.74,1178484152312140.5
5.823723841249277,7870430430064580.0,1.0866014382156024e+16,782933251601205.5,910417485062040.2,1613365205904.499,3326865543504.602,53644474825788.02,1243648509853016.0
6.040198318074262,7995140295039694.0,1.108816566632524e+16,795339116954197.4,924843385024428.5,1700842655202.077,3507258441587.4497,56553256235171.22,1311081511974950.5
6.261002284435747,8119069427411857.0,1.131179904552204e+16,807667316731355.5,939178973205094.1,1791331393913.5789,3693861916019.632,59562182437686.414,1380835952426109.5
6.486222330124463,8242244119539442.0,1.1537003015782462e+16,819920466439143.2,953427290990798.0,1884901459474.0771,3886820467692.6343,62673583563445.95,1452965833322461.8
6.715946776726952,8364688290946999.0,1.1763864464192214e+16,832100945539690.2,967591105289098.0,1981624467223.0774,4086281855468.217,65889842281568.61,1527526373812175.0
6.950265712261491,8486423676659687.0,1.199246890764963e+16,844210916185893.2,981672930314074.5,2081573622635.9048,4292397121601.562,69213394210362.07,1604574019535382.5
7.18927102650672,8607469996617351.0,1.2222900709398216e+16,856252340074354.2,995675047183429.6,2184823734496.0989,4505320619113.1045,72646728358937.95,1684166452810513.8
7.433056447036854,8727845108526673.0,1.2455243276133192e+16,868226993650784.6,1009599521599744.2,2291451228932.4883,4725210040952.315,76192387597727.64,1766362603488371.5
7.681717575977592,8847565146173946.0,1.2689579238087598e+16,880136481869051.9,1023448219849919.9,2401534164255.9033,4952226450819.221,79852969155744.48,1851222660423879.8
7.935351927497144,8966644644939521.0,1.2925990614168522e+16,891982250677095.1,1037222823324149.6,2515152246540.1904,5186534315530.384,83631125142754.95,1938808083522905.0
8.194058966047088,9085096656017626.0,1.3164558963932798e+16,903765598379247.5,1050924841728353.4,2632386845900.6323,5428301538832.674,87529563094809.66,2029181616328006.5
8.45794014536803,9202932850643164.0,1.3405365527953042e+16,915487686004498.8,1064555625140723.9,2753321013430.316,5677699496584.104,91551046541827.56,2122407299112827.5
8.72709894827539,9320163615457428.0,1.364849135792169e+16,927149546793274.5,1078116375043180.9,2878039498761.4355,5934903073233.916,95698395596143.28,2218550482459671.0
9.0016409272409,9436798139997980.0,1.3894017437668798e+16,938752094900723.2,1091608154441849.5,3006628768224.3657,6200090699546.466,99974487561119.28,2317677841299354.5
9.281673745785717,9552844497173534.0,1.4142024796122394e+16,950296133402203.1,1105031897176038.6,3139177023582.2847,6473444391523.289,104382257559098.0,2419857389396399.5
9.567307220701432,9668309717477874.0,1.4392594613112692e+16,961782361675896.4,1118388416502981.9,3275774221323.9297,6755149790488.218,108924699178113.33,2525158494266024.0
9.85865336511546,9783199857604132.0,1.4645808318813772e+16,973211382228425.4,1131678413034859.5,3416512092500.868,7045396204307.813,113604865136927.77,2633651892512646.0
10.155826432417769,9897520064041994.0,1.4901747687522164e+16,984583707021364.0,1144902482095424.5,3561484163099.802,7344376649727.819,118425867968077.84,2745409705582505.5
10.458942961066125,1.0011274632170434e+16,1.5160494926390772e+16,995899763349641.5,1158061120555623.5,3710785774943.2363,7652287895812.839,123390880718722.27,2860505455925576.0
10.768121820287448,1.0124467061299606e+16,1.542213275966613e+16,1007159899316997.5,1171154733200576.5,3864514107115.487,7969330508483.142,128503137669199.31,2979014083564138.0
11.083484256693197,1.0237100106062542e+16,1.5686744508916536e+16,1018364388948320.5,1184183638674369.5,4022768197913.3413,8295708896147.982,133765935069279.78,3101011963067969.5
11.405153941827061,1.0349175824512504e+16,1.5954414169684076e+16,1029513436974260.8,1197148075043741.8,4185648967323.6416,8631631356440.596,139182631892199.17,3226576920937601.5
11.733257020663602,1.046069562324147e+16,1.6225226484948298e+16,1040607183319519.5,1210048205017191.2,4353259240032.1885,8977310124064.418,144756650606629.72,3355788253399429.0
12.067922161076874,1.05716602998001e+16,1.6499267015748024e+16,1051645707322695.8,1222884120851942.0,4525703768970.731,9332961419765.523,150491477966824.28,3488726744617719.0
12.409280604298411,1.0682070082669284e+16,1.6776622209271196e+16,1062629031712569.1,1235655848977676.5,4703089259410.88,9698805500449.44,156390665821239.0,3625474685330596.5
12.75746621638438,1.0791924669005624e+16,1.705737946469364e+16,1073557126362942.6,1248363354362778.5,4885524393615.6045,10075066710465.65,162457831939999.62,3766115891918207.0
13.112615540712067,1.0901223260359688e+16,1.7341627197016268e+16,1084429911845800.8,1261006544646039.8,5073119856060.976,10461973534086.55,168696660861644.44,3910735725912966.0
13.474867851526309,1.1009964596543866e+16,1.7629454899129576e+16,1095247262800432.2,1273585274054394.8,5265988359242.335,10859758649210.002,175110904759628.5,4059421113962813.5
13.844365208556836,1.1118146987809024e+16,1.7920953202309816e+16,1106009011134276.0,1286099347124932.2,5464244670080.682,11268658982319.87,181704384329129.9,4212260568260046.5
14.221252512727972,1.1225768345470904e+16,1.8216213935333388e+16,1116714949069578.9,1298548522247652.8,5668005636946.822,11688915764741.088,188480989694744.22,4369344207448863.5
14.605677562982532,1.1332826211113508e+16,1.8515330182379364e+16,1127364832048472.5,1310932515043564.8,5877390217321.839,12120774590227.984,195444681339714.5,4530763778026556.0
14.997791114242183,1.1439317784482456e+16,1.881839633987267e+16,1137958381507765.2,1323251001591305.5,6092519506114.186,12564485473928.91,202599491057371.2,4696612676253776.0
15.397746936527026,1.1545239950170096e+16,1.9125508172410852e+16,1148495287533492.8,1335503621513928.2,6313516764654.661,13020302912772.084,209949522925514.9,4866985970590439.0
15.805701875257567,1.1650589303183074e+16,1.9436762867901012e+16,1158975211404333.2,1347689980936453.0,6540507450391.857,13488485947319.73,217498954304498.62,5041980424674950.0
16.221815912762718,1.1755362173473248e+16,1.975225909202605e+16,1169397788031910.0,1359809655323512.0,6773619247311.766,13969298225140.484,225252036859829.22,5221694520865059.0
16.64625223101797,1.185955464950512e+16,2.007209704214818e+16,1179762628305198.5,1371862192205515.8,7012982097106.422,14463008065752.098,233213097610105.75,5406228484359324.0
17.079177275638333,1.1963162600924282e+16,2.0396378500749876e+16,1190069321345543.5,1383847113800837.8,7258728231116.885,14969888527188.605,241386540001189.1,5595684307919688.0
17.5207608211511,1.2066181700384922e+16,2.0725206888503516e+16,1200317436678023.0,1395763919540742.8,7510992203077.717,15490217474247.41,249776845007488.6,5790165777215097.0
17.97117603757412,1.216860744458805e+16,2.1058687317056084e+16,1210506526324272.5,1407612088502995.5,7769910922690.11,16024277648474.76,258388572261312.7,5989778496808312.0
18.430599558325603,1.2270435174576952e+16,2.1396926641606268e+16,1220636126821433.8,1419391081759517.5,8035623690051.893,16572356739948.496,267226361211233.97,6194629916807112.0
18.899211549492115,1.237166009533003e+16,2.1740033513349532e+16,1230705761171206.5,1431100344642856.8,8308272230973.844,17134747460919.574,276294932310455.8,6404829360203057.0
19.37719578048196,1.247227729468819e+16,2.208811843185763e+16,1240714940722728.8,1442739308935588.0,8588000733211.317,17711747621374.234,285599088236197.44,6620488050920271.0
19.864739696091597,1.2572281761648932e+16,2.244129379745743e+16,1250663166992380.5,1454307394986496.2,8874955883642.146,18303660206581.07,295143715141109.56,6841719142598304.0
20.36203449001343,1.267166840405521e+16,2.2799673963668996e+16,1260549933423486.8,1465804013756775.2,9169286906421.186,18910793456687.81,304933783937783.0,7068637748132631.0
20.869275179813698,1.2770432065705168e+16,2.3163375289758e+16,1270374727088332.2,1477228568799182.2,9471145602142.918,19533460948433.098,314974351617411.1,7301360969997314.0
21.38666068340997,1.2868567542904266e+16,2.353251619345684e+16,1280137030334723.0,1488580458172715.2,9780686388044.092,20171981679041.254,325270562603685.1,7540007931374350.0
21.91439389707817,1.2966069600479572e+16,2.3907217203903244e+16,1289836322379069.2,1499859076295090.8,10098066339278.016,20826680152366.88,335827650143011.6,7784699808114854.0
22.452681775019734,1.30629329872733e+16,2.4287601014843736e+16,1299472080847640.5,1511063815734979.8,10423445231293.242,21497886467358.074,346650937732164.44,8035559861557001.0
23.00173541052013,1.315915245113072e+16,2.4673792538146984e+16,1309043783267532.8,1522194068945705.0,10756985583349.36,22185936408906.48,357745840584482.56,8292713472226279.0
23.561770118730532,1.3254722753394896e+16,2.506591895766923e+16,1318550908508577.8,1533249229941977.8,11098852703202.27,22891171541155.176,369117867135721.0,8556288174443717.0
24.133005521105144,1.334963868292025e+16,2.5464109783512764e+16,1327992938177368.2,1544228695920879.8,11449214732992.557,23613939303331.74,380772620590708.75,8826413691867264.0
24.715665631527248,1.3443895069613678e+16,2.586849690671535e+16,1337369357964312.2,1555131868828291.2,11808242696369.059,24354593108178.676,392715800511909.0,9103221973992668.0
25.309978944157795,1.3537486797512756e+16,2.6279214654408868e+16,1346679658944618.5,1565958156871674.8,12176110546881.564,25113492443049.78,404953204451036.0,9386847233638868.0
25.91617852304095,1.3630408817407422e+16,2.669639984548198e+16,1355923338833875.5,1576706975980118.0,12552995217675.219,25891002973742.34,417490729624857.06,9677425985444298.0
26.53450209350177,1.372265615901114e+16,2.7120191846781188e+16,1365099903198806.2,1587377751212254.5,12939076672519.283,26687496651136.668,430334374636294.3,9975097085399088.0
27.165192135371807,1.3814223942687664e+16,2.75507326298842e+16,1374208866623841.2,1597969918112748.5,13334537958203.195,27503351820710.047,443490241241963.2,1.0280001771439106e+16
27.808495978079243,1.3905107390737262e+16,2.798816682847657e+16,1383249753833814.0,1608482924017826.0,13739565258332.697,28338953334996.52,456964536167264.56,1.0592283705127082e+16
28.464665897640828,1.399530183824608e+16,2.8432641796363336e+16,1392222100773264.5,1618916229310309.0,14154347948557.637,29194692669060.184,470763572970138.94,1.0912089014445926e+16
29.133959215593645,1.4084802743502698e+16,2.888430766614587e+16,1401125455642632.0,1629269308624539.8,14579078653264.023,30070968039050.316,484893773954588.44,1.1239566337729122e+16
29.816638399905518,1.417360569798404e+16,2.9343317408593252e+16,1409959379891653.0,1639541652001516.5,15013953303761.44,30968184523906.582,499361672135060.6,1.157486686875331e+16
30.51297116790363,1.426170643591385e+16,2.9809826892736556e+16,1418723449170198.0,1649732765994578.8,15459171197997.28,31886754190280.582,514173913252770.5,1.191814440301685e+16
31.223230591261704,1.4349100843395432e+16,3.0283994946714508e+16,1427417254236782.2,1659842174725825.5,15914935061828.445,32827096220739.6,529337257845040.3,1.2269555385228852e+16
31.947695203086937,1.4435784967121314e+16,3.0765983419397988e+16,1436040401824994.0,1669869420893623.2,16381451111880.625,33789637045318.81,544858583368696.6,1.2629258958032178e+16
32.686649107148675,1.4521755022661566e+16,3.1255957242820028e+16,1444592515467989.2,1679814066731389.0,16858929120025.115,34774810476484.86,560744886378565.06,1.2997417011984014e+16
33.44038208929165,1.460700740233311e+16,3.1754084495437796e+16,1453073236281307.2,1689675694917830.8,17347582479502.23,35783057847575.02,577003284762108.4,1.337419423681635e+16
34.20918973107749,1.4691538682651866e+16,3.2260536466253296e+16,1461482223704215.5,1699453909438999.8,17847628272719.74,36814828154772.914,593641020031178.4,1.375975817399958e+16
34.993373525699035,1.4775345631369818e+16,3.2775487719817544e+16,1469819156199709.0,1709148336402324.0,18359287340754.402,37870578202683.016,610665459671868.8,1.4154279270630418e+16
35.793240996213015,1.4858425214099664e+16,3.3299116162143812e+16,1478083731913557.5,1718758624802897.5,18882784354583.875,38950772753561.74,628084099553481.8,1.455793093466609e+16
36.60910581613728,1.4940774600529152e+16,3.383160310755591e+16,1486275669292449.2,1728284447242339.0,19418347888075.633,40055884680265.83,645904566397486.5,1.4970889591526158e+16
37.44128793246003,1.5022391170228156e+16,3.4373133346494836e+16,1494394707661708.8,1737725500600530.5,19966210492758.6,41186395122972.36,664134620307432.8,1.5393334742081286e+16
38.29011369110923,1.5103272518051106e+16,3.492389521430914e+16,1502440607762680.5,1747081506660532.8,20526608774402.594,42342793649728.7,682782157360727.6,1.5825449022049966e+16
39.15591596493141,1.518341645913831e+16,3.5484080661053324e+16,1510413152250279.2,1756352212687139.5,21099783471430.586,43525578420884.6,701855212263122.8,1.6267418262822172e+16
40.03903428423004,1.5262821033519706e+16,3.605388532231829e+16,1518312146150949.2,1765537391959397.0,21685979535186.555,44735256357460.336,721361961066798.0,1.6719431553728756e+16
40.93981496991464,1.5341484510324918e+16,3.6633508591116936e+16,1526137417281463.2,1774636844257626.5,22285446212082.523,45972343313502.18,741310723952864.4,1.7181681305774522e+16
41.85861126931294,1.5419405391603758e+16,3.722315369085057e+16,1533888816628987.0,1783650396305339.2,22898437127646.29,47237364252475.36,761709968079091.1,1.7654363316853252e+16
42.7957834946992,1.549658241576228e+16,3.782302774937698e+16,1541566218692900.5,1792577902166729.5,23525210372491.78,48530853427741.83,782568310493658.9,1.813767683846119e+16
43.751699164593184,1.5573014560618674e+16,3.843334187420626e+16,1549169521788768.8,1801419243600153.0,24166028590231.8,49853354567171.516,803894521115682.9,1.8631824643925508e+16
