t(s),Total solute volume 1,Total retention volume 1,Total 1 volume 1,Total 2 volume 1,Total 3 volume 1,Total 4 volume 1,Total 5 volume 1,Total 6 volume 1
0.1,1252217186918146.0,2056959543180943.2,321479351742078.75,483263004520719.3,0.0,0.0,0.0,0.0
0.202,1883750558243084.8,3094385918859539.5,483611728739406.56,726988128796519.9,11521930.828308675,35264382.871577345,1025980706.7823836,34430313507.96687
0.30604000000000003,2365451650519311.5,3885708875641203.5,607277942837534.1,912889063465145.2,29225557.38611852,89449013.11387235,2602854435.7882357,87497290203.73958
0.41216080000000005,2773019454688041.0,4555271904674104.0,711912057139331.8,1070180038343906.9,51906741.19488899,158868286.71465272,4623175836.345653,155520551964.7468
0.5204040160000001,3135012056036133.0,5149984396872940.0,804845735397029.1,1209882360881928.0,79030317.00289494,241884225.5718458,7039247887.1900625,236884395426.61154
0.6308120963200001,3465680074447648.0,5693254299643266.0,889737512474191.6,1337495715055512.8,110309265.44880438,337618354.56788343,9825494567.478647,330724243731.2791
0.7434283382464002,3773311494265784.0,6198695395066826.0,968715146996227.9,1456218648921563.5,145579595.44029734,445568749.70730436,12967303595.61587,436546431312.7287
0.8582969050113283,4063217600193631.0,6675031999640415.0,1043142195084527.9,1568100924915406.8,184748906.83497587,565452603.8725369,16456441732.165274,554072803612.3625
0.9754628431115548,4339038811467473.0,7128243919337883.0,1113953254712682.8,1674547475161385.8,227771041.56400576,697128641.8384424,20288795813.07113,683164300840.7327
1.094972099973786,4603396866640482.0,7562637720012108.0,1181821399880118.2,1776570096500939.2,274632044.54062116,840554151.0993152,24463121774.92453,823778682594.2637
1.2168715419732616,4858253007497956.0,7981435073482860.0,1247250136494859.2,1874925682954083.2,325341727.890764,995759162.7090297,28980293015.554344,975945142063.1678
1.3412089728127268,5105119292354893.0,8387119855490227.0,1310627652438686.5,1970197776999268.8,379928289.4226075,1162829980.1723166,33842820909.5173,1139748118209.2825
1.4680331522689813,5345190441616237.0,8781654711198933.0,1372260666029575.0,2062847452192562.2,438434720.24414265,1341898184.341105,39054534741.5938,1315316492910.6758
1.597393815314361,5579429892529485.0,9166622405687082.0,1432396518696265.2,2153246523926940.8,500916321.37571996,1533133032.5837846,44620360451.2456,1502816124590.9392
1.729341691620648,5808628088493933.0,9543321567648468.0,1491238139482841.0,2241700044787274.0,567438939.892199,1736736060.1992965,50546163485.14611,1702444545948.0356
1.863928525453061,6033443207344554.0,9912833587908512.0,1548954501144292.5,2328462022650386.5,638077689.9053848,1952937165.768012,56838634846.74308,1914427119578.7297
2.001207095962122,6254430381187376.0,1.0276070614586594e+16,1605688121699837.0,2413746697376695.5,712916010.8700067,2181991728.93877,63505207199.300934,2139014207734.1443
2.1412312378813647,6472063142090914.0,1.063381077877708e+16,1661560570144843.8,2497736817258165.5,792044967.141427,2424178466.6077094,70553992462.72437,2376479067266.1494
2.284055862638992,6686749476775700.0,1.0986724565227182e+16,1716676588141019.8,2580589834938914.5,875562724.2965605,2679797830.1106443,77993735158.52528,2627116275847.834
2.4297369798917723,6898844056371943.0,1.1335394900385058e+16,1771127229739087.2,2662442627195626.5,963574157.7868478,2949170807.439981,85833777544.37405,2891240555884.029
2.578331719489608,7108657697119695.0,1.1680332692157182e+16,1824992290206436.0,2743415146066746.5,1056190562.6095905,3232638034.645129,94084033748.38812,3169185901977.668
2.7298983538794,7316464780213590.0,1.2021989017490238e+16,1878342210909969.0,2823613282362883.5,1153529441.4861617,3530559147.516411,102754970897.56372,3461304944286.143
2.884496320956988,7522509143239500.0,1.2360764799498448e+16,1931239591813447.2,2903131139324772.0,1255714355.0782442,3843312323.146583,111857595773.10155,3767968498269.09
3.0421862473761276,7727008810390578.0,1.2697018577262508e+16,1983740405856991.2,2982052858136201.5,1362874822.006255,4171293973.9202538,121403445902.52898,4089565264055.064
3.2030299723236504,7930159828885048.0,1.3031072807552308e+16,2035894983873376.5,3060454098497080.0,1475146259.4539266,4514918565.723919,131404584267.55455,4426501647731.53
3.3670905717701234,8132139409241187.0,1.3363219023131848e+16,2087748820784902.2,3138403250536803.5,1592669957.3330553,4874618538.872429,141873597001.70538,4779201683445.383
3.5344323832055258,8333108517472985.0,1.3693722090846694e+16,2139343241092910.5,3215962435209787.5,1715593080.594421,5250844315.181599,152823593595.4226,5148107040046.171
3.7051210308696363,8533214031490332.0,1.402282375392471e+16,2190715952486320.5,3293188336506129.0,1844068695.4740248,5644064378.298498,164268209233.46365,5533677099619.504
3.879223451487029,8732590547817805.0,1.435074559993438e+16,2241901509677169.8,3370132898711210.0,1978255816.3726473,6054765417.18371,176221608970.45032,5936389097989.989
4.0568079205167695,8931361905364235.0,1.4677691564011994e+16,2292931705595069.5,3446843914467817.0,2118319470.7618573,6483452524.766314,188698493512.3059,6356738319361.142
4.237944078927105,9129642478453926.0,1.500385005311454e+16,2343835903344681.0,3523365523790399.0,2264430780.04648,6930649445.436315,201714106419.1841,6795238338873.4
4.422702960505647,9327538280332854.0,1.5329395758993004e+16,2394641319506820.5,3599738639936706.0,2416767054.7328157,7396898866.322095,215284242582.8165,7252421308120.989
4.61115701971576,9525147909952948.0,1.5654491213766e+16,2445373267204530.5,3676001314796354.0,2575511902.582202,7882762748.311708,229425257860.65677,7728838279660.735
4.803380160110075,9722563368343836.0,1.5979288131307532e+16,2496055365688722.5,3752189053949813.0,2740855348.6922417,8388822693.580726,244154079772.58667,8225059567335.385
4.9994477633122765,9919870765826862.0,1.6303928569360788e+16,2546709721899866.0,3828335089600688.0,2912993966.6587543,8915680347.034327,259488219184.73737,8741675139866.88
5.199436718578522,1.011715093735775e+16,1.6628545940771232e+16,2597357088443769.0,3904470618052273.0,3092131020.1417212,9463957829.592724,275445782920.13416,9279295045686.768
5.403425452950093,1.03144799801462e+16,1.6953265897078276e+16,2648017001613619.5,3980625007188994.5,3278476614.2977033,10034298201.674307,292045487248.2743,9838549867388.604
5.611493962009095,1.0511929725201474e+16,1.7278207103599086e+16,2698707902449017.5,4056825978458021.5,3472247856.654986,10627365955.580029,309306672215.9011,10420091204529.414
5.823723841249277,1.0709568152448526e+16,1.7603481921846914e+16,2749447243307954.0,4133099767073297.0,3673669027.1025486,11243847535.771896,327249316789.6514,11024592183791.998
6.040198318074262,1.090745975744256e+16,1.7929197012469768e+16,2800251582012733.0,4209471263540264.0,3882971756.742551,11884451886.27982,345894054788.29626,11652747995756.01
6.261002284435747,1.110566587639728e+16,1.825545386973927e+16,2851136665293866.5,4285964139092609.0,4100395215.422448,12549911024.673998,365262191588.17816,12305276457725.086
6.486222330124463,1.1304244975170418e+16,1.858234929686131e+16,2902117502980810.0,4362600957219305.0,4326186307.818999,13240980642.211441,385375721590.476,12982918602225.922
6.715946776726952,1.1503252906971874e+16,1.890997582993354e+16,2953208434162839.5,4439403273120858.5,4560599877.994407,13958440729.913313,406257346443.17664,13686439290940.023
6.950265712261491,1.170274314283353e+16,1.9238422117187416e+16,3004423186357189.5,4516391722653596.0,4803898922.386078,14703096230.45405,427930494014.34424,14416627853951.525
7.18927102650672,1.1902766978280286e+16,1.9567773259161736e+16,3055774928567255.0,4593586102089289.0,5056354811.2274275,15475777715.85591,450419338116.42584,15174298754303.227
7.433056447036854,1.2103373719140338e+16,1.989811111463647e+16,3107276318985378.5,4671005439824251.0,5318247518.428361,16277342091.07512,473748818984.1811,15960292277946.988
7.681717575977592,1.2304610849015612e+16,2.0229514576466228e+16,3158939547987157.0,4748668061010503.0,5589865859.972024,17108673323.653542,497944664511.2349,16775475249257.012
7.935351927497144,1.2506524180581654e+16,2.0562059820877812e+16,3210776376974435.5,4826591645946225.0,5871507740.908609,17970683199.68323,523033412252.4849,17620741772349.8
8.194058966047088,1.2709157992589794e+16,2.0895820533309164e+16,3262798173547574.0,4904793282948563.0,6163480411.049584,18864312106.40005,549042432201.55554,18497013998519.895
8.45794014536803,1.2912555154195348e+16,2.12308681134555e+16,3315015943424004.5,4983289516335018.0,6466100729.485465,19790529841.78302,575999950354.2671,19405242920160.97
8.72709894827539,1.311675723802143e+16,2.1567271861840596e+16,3367440359464877.0,5062096390057765.0,6779695438.068878,20750336451.593212,603935073070.7346,20346409191597.55
9.0016409272409,1.33218046231876e+16,2.1905099149932228e+16,3420081788125475.0,5141229487465021.0,7104601444.020833,21744763094.33663,632877812250.2079,21321523977302.69
9.281673745785717,1.352773658937821e+16,2.2244415575566132e+16,3472950313605080.0,5220703967604458.0,7441166111.835114,22774872934.68407,662859111334.1696,22331629828023.94
9.567307220701432,1.3734591402890572e+16,2.258528510522736e+16,3526055759938096.0,5300534598431483.0,7789747564.669059,23841762065.92708,693910872154.5083,23377801585384.914
9.85865336511546,1.3942406395491296e+16,2.292777020454542e+16,3579407711238585.5,5380735787241860.0,8150714995.4238405,24946560462.089027,726065982644.858,24461147315571.406
10.155826432417769,1.4151218036808314e+16,2.327193195820352e+16,3633015530285359.0,5461321608609712.0,8524448987.730335,26090432960.354805,759358345434.3297,25582809272750.41
10.458942961066125,1.4361062000902036e+16,2.3617830180316236e+16,3686888375612740.0,5542305830079113.0,8911341847.06946,27274580274.518032,793822907344.0414,26743964892909.19
10.768121820287448,1.457197322758526e+16,2.396552351621369e+16,3741035217252977.0,5623701935828856.0,9311797942.268028,28500240040.184727,829495689807.916,27945827818837.94
11.083484256693197,1.4783985978995554e+16,2.4315069536460212e+16,3795464851260067.5,5705523148505379.0,9726234057.623747,29768687892.508514,866413820240.3356,29189648957017.39
11.405153941827061,1.499713389186965e+16,2.466652482384635e+16,3850185913130043.0,5787782449396743.0,10155079755.923386,31081238577.26742,904615564374.1952,30476717567204.434
11.733257020663602,1.5211450025918984e+16,2.5019945054011228e+16,3905206890220290.0,5870492597101973.0,10598777752.631798,32439247096.129177,944140359594.0312,31808362385547.754
12.067922161076874,1.5426966908662808e+16,2.5375385070281212e+16,3960536133259517.5,5953666144833344.0,11057784301.538212,33844109886.985477,985028849289.8546,33185952782095.6
12.409280604298411,1.5643716577038088e+16,2.5732898953250476e+16,4016181867030148.5,6037315456474737.0,11532569592.160444,35297266040.27103,1027322918258.317,34610899953595.297
12.75746621638438,1.586173061607088e+16,2.6092540085571536e+16,4072152200296403.0,6121452721505902.0,12023618159.216177,36800198552.21787,1071065729178.8789,36084658152515.71
13.112615540712067,1.6081040194866414e+16,2.6454361212380696e+16,4128455135043917.0,6206089968891987.0,12531429304.483873,38354435616.02864,1116301760193.6682,37608725953257.445
13.474867851526309,1.6301676100147484e+16,2.681841449773398e+16,4185098575089991.0,6291239080026798.0,13056517531.385902,39961551951.98915,1163076843620.6328,39184647556553.33
13.844365208556836,1.6523668767548688e+16,2.7184751577398704e+16,4242090334117725.5,6376911800810189.0,13599412992.638523,41623170177.5743,1211438205830.7307,40814014133089.734
14.221252512727972,1.674704831085355e+16,2.755342360830679e+16,4299438143182011.5,6463119752931307.0,14160661951.324451,43340962218.63561,1261434508320.8164,42498465207418.74
14.605677562982532,1.6971844549343548e+16,2.7924481314948844e+16,4357149657730748.5,6549874444423296.0,14740827255.755703,45116650762.796165,1313115890014.9814,44239690083264.85
14.997791114242183,1.7198087033411448e+16,2.829797503296207e+16,4415232464180604.5,6637187279548292.0,15340488828.505596,46952010756.21261,1366534010828.1375,46039429311363.45
15.397746936527026,1.7425805068578038e+16,2.86739547501393e+16,4473694086082698.0,6725069568065893.0,15960244170.000938,48848870944.90189,1421742096526.6187,47899476201004.59
15.805701875257567,1.7655027738037236e+16,2.9052470145067532e+16,4532541989910550.0,6813532533934025.0,16600708877.078339,50809115461.86634,1478794984921.8186,49821678376494.03
16.221815912762718,1.7885783923843662e+16,2.9433570623584896e+16,4591783590499629.0,6902587323485762.0,17262517176.91858,52834685461.28859,1537749173433.7637,51807939379777.66
16.64625223101797,1.811810232684715e+16,2.981730535322651e+16,4651426256164997.0,6992245013122523.0,17946322476.788597,54927580801.10472,1598662868062.8018,53860220320513.01
17.079177275638333,1.835201148546768e+16,3.020372329581747e+16,4711477313521435.0,7082516616559935.0,18652797930.030148,57089861775.30666,1661596033808.635,55980541574911.03
17.5207608211511,1.8587539793397988e+16,3.05928732383549e+16,4771944052028166.0,7173413091659533.0,19382637018.749603,59323650897.35861,1726610446577.093,58170984534711.38
17.97117603757412,1.8824715516311616e+16,3.0984803822310076e+16,4832833728278273.0,7264945346876986.0,20136554153.675163,61631134736.15897,1793769746616.209,60433693407688.34
18.430599558325603,1.9063566807649184e+16,3.1379563571470796e+16,4894153570051509.0,7357124247354308.0,20915285291.662098,64014565806.01502,1863139493524.4072,62770877071132.914
18.899211549492115,1.9304121723547844e+16,3.177720091843231e+16,4955910780147059.0,7449960620681680.0,21719588571.33857,66476264512.14269,1934787222874.7634,65184810979790.51
19.37719578048196,1.9546408236974956e+16,3.2177764229839388e+16,5018112540012148.0,7543465262351855.0,22550244967.402225,69018621153.24684,2008782504500.587,67677839129781.94
19.864739696091597,1.9790454251121436e+16,3.2581301830470344e+16,5080766013180340.0,7637648940929022.0,23408058964.087334,71644097982.77907,2085197002488.8845,70252376080072.984
20.36203449001343,2.0036287612104176e+16,3.2987862026248644e+16,5143878348532792.0,7732522402951094.0,24293859248.340878,74355231330.5156,2164104536929.4495,72910909033105.36
20.869275179813698,2.028393612102608e+16,3.3397493126261096e+16,5207456683394217.0,7828096377583891.0,25208499423.259056,77154633786.14882,2245581147468.839,75655999976246.77
21.38666068340997,2.0533427545435468e+16,3.3810243463853676e+16,5271508146474959.0,7924381581043608.0,26152858742.351017,80044996446.61957,2329705158719.648,78490287885759.11
21.91439389707817,2.0784789630224276e+16,3.4226161416872624e+16,5336039860668849.0,8021388720802843.0,27127842865.212563,83029091228.98262,2416557247577.0967,81416490995040.8
22.452681775019734,2.1038050108002256e+16,3.464529542711229e+16,5401058945716541.0,8119128499594161.0,28134384635.20896,86109773250.63121,2506220512496.1543,84437409128930.31
23.00173541052013,2.129323670898019e+16,3.5067694019026052e+16,5466572520742721.0,8217611619224219.0,29173444879.780693,89289983278.76685,2598780544784.049,87555926105930.05
23.561770118730532,2.1550377170392856e+16,3.5493405817754456e+16,5532587706675422.0,8316848784210490.0,30246013234.00598,92572750251.04507,2694325501964.462,90775012210234.38
24.133005521105144,2.180949924549087e+16,3.5922479566518364e+16,5599111628554410.0,8416850705251401.0,31353108988.065792,95961193869.38446,2792946183271.0728,94097726735520.23
24.715665631527248,2.2070630712128064e+16,3.635496414342303e+16,5666151417735675.0,8517628102540338.0,32495781959.28026,99458527268.9754,2894736107329.992,97527220602490.98
25.309978944157795,2.2333799380967696e+16,3.679090857771626e+16,5733714213998419.0,8619191708932735.0,33675113389.399014,103068059764.5869,2999791592091.8203,101066739052237.08
25.91617852304095,2.2599033103331468e+16,3.723036206553771e+16,5801807167559962.0,8721552272975132.0,34892216867.847664,106793199676.31563,3108211837075.9873,104719624417511.5
26.53450209350177,2.2866359778711376e+16,3.767337398519853e+16,5870437441004309.0,8824720561804347.0,36148239281.65283,110637457236.98549,3220099007991.6445,108489318974092.97
27.165192135371807,2.313580736196447e+16,3.8119993912025256e+16,5939612211129252.0,8928707363923882.0,37444361792.78248,114604447583.46214,3335558323800.8696,112379367874453.11
27.808495978079243,2.3407403870208016e+16,3.857027163279654e+16,6009338670716429.0,9033523491865120.0,38781800843.66472,118697893834.2085,3454698146291.9707,116393422166010.23
28.464665897640828,2.3681177389431668e+16,3.902425715980769e+16,6079624030229080.0,9139179784739028.0,40161809191.6614,122921630255.46304,3577630072232.2524,120535241896308.0
29.133959215593645,2.395715608084285e+16,3.948200074458722e+16,6150475519440927.0,9245687110685248.0,41585676973.29813,127279605518.4906,3704469028171.458,124808699307522.25
29.816638399905518,2.423536818695938e+16,3.994355289129219e+16,6221900389000310.0,9353056369222960.0,43054732799.0687,131775886050.4159,3835333367969.027,129217782122752.95
30.51297116790363,2.4515842037461828e+16,4.040896436980853e+16,6293905911932754.0,9461298493509890.0,44570344879.65798,136414659481.21265,3970344973120.0664,133766596926638.03
31.223230591261704,2.4798606054819524e+16,4.087828622857725e+16,6366499385085235.0,9570424452513308.0,46133922184.445656,141200238189.49884,4109629355956.964,138459372642871.98
31.947695203086937,2.5083688759700904e+16,4.135156980716974e+16,6439688130515182.0,9680445253097984.0,47746915633.17485,146137062949.8359,4253315765805.614,143300464111291.94
32.686649107148675,2.537111877617803e+16,4.182886674863129e+16,6513479496826737.0,9791371942035016.0,49410819321.69582,151229706684.3199,4401537298176.885,148294355767258.28
33.44038208929165,2.566092483673791e+16,4.231022901161364e+16,6587880860457051.0,9903215607935370.0,51127171782.71335,156482878321.3141,4554431007076.63,153445665426122.16
34.20918973107749,2.5953135787105916e+16,4.2795708882312904e+16,6662899626914905.0,1.00159873831119e+16,52897557282.495384,161901426764.23453,4712138020518.918,158759148175648.28
34.993373525699035,2.624778059089401e+16,4.328535898623145e+16,6738543231973802.0,1.0129698445372842e+16,54723607154.517914,167490344973.3995,4874803659329.873,164239700379332.62
35.793240996213015,2.654488833407855e+16,4.3779232299778584e+16,6814819142821653.0,1.0244360019750006e+16,56607001171.05254,173254774163.99792,5042577559331.521,169892363793624.25
36.60910581613728,2.684448822931712e+16,4.427738216172694e+16,6891734859168926.0,1.0359983380164666e+16,58549468953.721695,179200008123.33252,5215613796996.996,175722329802138.78
37.44128793246003,2.7146609620109364e+16,4.477986228453799e+16,6969297914317069.0,1.0476579851033762e+16,60552791424.07839,185331497650.55997,5394071018671.218,181734943770031.97
38.29011369110923,2.7451281984810932e+16,4.528672676557054e+16,7047515876188706.0,1.0594160808818372e+16,62618802295.286736,191654855122.22986,5578112573452.957,187935709521765.56
39.15591596493141,2.7758534940503196e+16,4.5798030098186376e+16,7126396348321375.0,1.07127376835175e+16,64749389606.01225,198175859187.01334,5767906649837.248,194330293945598.3
40.03903428423004,2.8068398246727164e+16,4.631382718276352e+16,7205946970825912.0,1.0832321960109034e+16,66946497297.651505,204900459593.08072,5963626416218.423,200924531728192.97
40.93981496991464,2.838090180908432e+16,4.683417333763204e+16,7286175421311088.0,1.0952925179939442e+16,69212126836.066,211834782151.68668,6165450165357.82,207724430222834.03
41.85861126931294,2.8696075682711064e+16,4.735912430994127e+16,7367089415775340.0,1.107455894206447e+16,71548338879.00464,218985133840.6011,6373561462921.573,214736174454817.47
42.7957834946992,2.901395007562919e+16,4.78887362864699e+16,7448696709467303.0,1.1197234904542442e+16,73957254990.43315,226358008051.10458,6588149300197.202,221966132267671.94
