t(s),Total solute volume 1,Total retention volume 1,Total 1 volume 1,Total 2 volume 1,Total 3 volume 1,Total 4 volume 1,Total 5 volume 1,Total 6 volume 1
0.1,803801399340899.0,888695292650996.4,42833262785020.44,42060630525076.21,0.0,0.0,0.0,0.0
0.202,1208509984826638.8,1341330938250989.8,64399521884594.65,63237874621645.61,15693701140.583239,24949054531.14547,272356406381.33865,4870557756059.699
0.30604000000000003,1514600319123983.8,1687687968867462.5,80710575528511.47,79254707296513.92,39728832800.11793,63159609285.66556,689483038523.6003,12329995437843.273
0.41216080000000005,1771714344053082.8,1982089962817559.5,94411761689875.3,92708749622075.1,70405918384.50728,111930333445.79713,1221890879588.018,21850880321107.0
0.5204040160000001,1998448810158020.8,2244841566886093.0,106494070813192.17,104573116429585.23,106949186083.473,170028299242.75137,1856120893475.0703,33192471106492.793
0.6308120963200001,2204076931781706.0,2486051923982355.5,117451657335204.36,115333048532880.61,148924197149.23575,236763194902.34528,2584637526407.163,46219961414106.414
0.7434283382464002,2393991434356256.0,2711595517529349.5,127571890780480.3,125270731846800.95,196065054245.28326,311712643644.67334,3402830144298.7812,60850852703626.57
0.8582969050113283,2571647558966268.5,2925236884649638.5,137038895299225.16,134566969265518.36,248203244358.98825,394609089120.348,4307778218086.128,77032870567063.45
0.9754628431115548,2739412365250567.0,3129558005389389.0,145978807630886.9,143345622257071.16,305232478160.74426,485283903324.69666,5297641179147.796,94733052690229.81
1.094972099973786,2898988943912507.5,3326420863538316.5,154482382695518.84,151695808692085.56,367089146072.6237,583636319794.7649,6371319279935.862,113931683492396.22
1.2168715419732616,3051649477759915.0,3517221224981147.5,162617413035693.1,159684098262143.22,433740517634.9554,689614675974.5929,7528248827533.678,134618631902253.92
1.3412089728127268,3198372803984588.0,3703038226154718.5,170436059285545.5,167361710720849.12,505177164450.6622,803204369589.1647,8768270710590.756,156790999919106.9
1.4680331522689813,3339930291833677.5,3884727636763217.0,177979426451526.44,174769009617018.8,581407858401.946,924419749829.4501,10091541880552.71,180451539372201.34
1.597393815314361,3476941928341317.0,4062982690884891.5,185280552629374.47,181938437100774.16,662456004334.3888,1053298447803.7268,11498473461096.357,205607544900187.88
1.729341691620648,3609914332268893.0,4238375266342770.0,192366434704862.94,188896503084429.56,748357067970.7216,1189897289063.866,12989686128261.918,232270055799287.66
1.863928525453061,3739267332971127.0,4411384642562468.5,199259444698130.94,195665176038613.62,839156673782.1403,1334289271145.6453,14565977116800.516,260453265792873.2
2.001207095962122,3865353051894356.0,4582418122904375.0,205978346585545.12,202262881472561.2,934909168141.1228,1486561280766.8074,16228295300997.734,290174077202022.94
2.1412312378813647,3988469917039258.5,4751826164404558.0,212539043107508.6,208705235270901.53,1035676514300.5638,1646812338542.1565,17977722034147.863,321451758099889.9
2.284055862638992,4108873161950762.5,4919913700729379.0,218955135242472.53,215005593075806.38,1141527429499.4204,1815152228629.7432,19815456190145.527,354307674612064.7
2.4297369798917723,4226782829237931.0,5086948765632942.0,225238348701435.0,221175469088319.88,1252536702301.5938,1991700414924.4111,21742802333196.25,388765079154837.1
2.578331719489608,4342389966608168.5,5253169163130791.0,231398864104474.66,227224860289123.22,1368784646472.384,2176585174342.2446,23761161257427.53,424848941050781.25
2.7298983538794,4455861490092845.5,5418787698804717.0,237445576134092.47,233162500917238.8,1490356659915.8374,2369942897162.9214,25872022350220.84,462585809753230.75
2.884496320956988,4567344048641544.0,5583996334085856.0,243386299473127.84,238996064693201.72,1617342865589.2637,2571917517738.8477,28076957378728.523,502003703515930.6
3.0421862473761276,4676967129637343.0,5748969522688168.0,249227934292590.22,244732327321809.5,1749837817194.1196,2782660048231.2036,30377615401123.562,543132018169878.7
3.2030299723236504,4784845579872610.0,5913866917871214.0,254976600590336.06,250377298407571.88,1887940256640.9265,3002328194707.1846,32775718576989.117,586001451972366.8
3.3670905717701234,4891081671044145.0,6078835589934065.0,260637748257938.25,255936329536183.03,2031752913332.0889,3231086039775.092,35273058704112.69,630643943438577.8
3.5344323832055258,4995766806487354.0,6244011858327155.0,266216248029745.75,261414203583031.2,2181382337548.9963,3469103779498.5693,37871494347867.89,677092619762107.9
3.7051210308696363,5098982942526039.0,6409522817514252.0,271716467224304.94,266815209088381.03,2336938761903.781,3716557504992.1987,40572948458412.35,725381753950219.5
3.879223451487029,5200803780737236.0,6575487617252804.0,277142333278197.38,272143202645185.6,2498535986080.4976,3973629021111.174,43379406392875.08,775546729192111.5
4.0568079205167695,5301295774776103.0,6742018544289682.0,282497387398094.4,277401661583351.66,2666291281057.0137,4240505696183.5225,46292914276477.945,827624009278428.0
4.237944078927105,5400518985922033.0,6909221942230442.0,287784830151409.94,282593728738027.4,2840325309745.287,4517380337920.199,49315577649487.336,881651114121800.8
4.422702960505647,5498527814322502.0,7077198998588086.0,293007560433090.25,287722250713501.44,3020762061569.1885,4804451091563.334,52449560356989.86,937666599608870.9
4.61115701971576,5595371627413235.0,7246046422091693.0,298168208953098.6,292789810766635.1,3207728798957.5547,5101921357060.626,55697083646432.1,995710041156276.5
4.803380160110075,5691095302748591.0,7415857028759976.0,303269167162958.25,297798757211628.2,3401356014092.7393,5409999722631.812,59060425444172.37,1055822020455895.4
4.9994477633122765,5785739699168827.0,7586720251686354.0,308312612363487.4,302751228074852.44,3601777394545.929,5728899912554.59,62541919787330.086,1118044114984755.8
5.199436718578522,5879342067634584.0,7758722586687756.0,313300529597493.9,307649172592644.7,3809129796664.2925,6058840747370.151,66143956391286.47,1182418889927711.2
5.403425452950093,5971936411004754.0,7931947983761053.0,318234730821751.6,312494370037460.7,4023553225764.9673,6400046115009.608,69868980336481.1,1248989892219838.5
5.611493962009095,6063553800396833.0,8106478192532774.0,323116871765331.9,317288446272105.06,4245190822345.7524,6752744951589.898,73719491860843.58,1317801646463718.2
5.823723841249277,6154222654456245.0,8282393068477805.0,327948466811400.94,322032888363095.44,4474188853650.045,7117171230829.645,77698046246410.31,1388899652516172.0
6.040198318074262,6243968986800795.0,8459770845546267.0,332730902183131.7,326729057528726.1,4710696710028.263,7493563961203.5205,81807253790503.03,1462330384571875.2
6.261002284435747,6332816626046340.0,8638688379914487.0,337465447668519.75,331378200652383.25,4954866905625.935,7882167190092.169,86049779853365.72,1538141291598157.8
6.486222330124463,6420787412116819.0,8819221368824066.0,342153267081414.3,335981460554885.6,5206855083001.351,8283230014301.331,90428344975423.77,1616380798998224.2
6.715946776726952,6507901371964774.0,9001444547854621.0,346795427625386.25,340539885189438.1,5466820021336.936,8697006596421.383,94945725058399.12,1697098311398866.5
6.950265712261491,6594176877352778.0,9185431869467190.0,351392908301632.94,345054435897887.4,5734923647960.3545,9123756186580.61,99604751605405.3,1780344216474927.2
7.18927102650672,6679630786951414.0,9371256665233184.0,355946607481155.94,349525994846292.3,6011331052934.99,9563743149215.684,104408312015919.61,1866169889736241.8
7.433056447036854,6764278574680797.0,9558991793813036.0,360457349743866.44,353955371740680.4,6296210506516.566,10017236994541.455,109359349932164.86,1954627700214468.0
7.681717575977592,6848134445947794.0,9748709776454628.0,364925892072681.75,358343309909408.6,6589733479304.663,10484512414453.795,114460865633998.28,2045771016996970.5
7.935351927497144,6931211443200371.0,9940482921536186.0,369352929478330.9,362690491826508.3,6892074664944.989,10965849322641.85,119715916479871.39,2139654216563519.2
8.194058966047088,7013521542025177.0,1.0134383439470154e+16,373739100120258.75,366997544140215.44,7203412005261.413,11461532898724.232,125127617391839.69,2236332690888669.2
8.45794014536803,7095075738850872.0,1.0330483549109328e+16,378084989980172.5,371265042262219.8,7523926717717.635,11971853636255.014,130699141382947.83,2335862856279152.5
8.72709894827539,7175884131178309.0,1.052885557664773e+16,382391137137388.1,375493514565888.1,7853803325124.626,12497107394474.857,136433720125627.31,2438302162920903.0
9.0016409272409,7255955991140548.0,1.0729572047881018e+16,386658035688721.9,379683446235450.8,8193229687526.662,13037595453704.953,142334644560004.6,2543709105115066.5
9.281673745785717,7335299833093125.0,1.0932705774584542e+16,390886139350262.56,383835282802803.4,8542397036210.362,13593624574304.555,148405265541250.84,2652143232186571.0
9.567307220701432,7413923475847487.0,1.1138329935671578e+16,395075864773692.94,387949433404006.9,8901500009793.443,14165507059129.547,154648994525305.84,2763665160052167.5
9.85865336511546,7491834100085456.0,1.1346518153717288e+16,399227594605809.7,392026273783622.5,9270736692359.889,14753560819447.244,161069304292482.06,2878336583438140.5
10.155826432417769,7569038301427388.0,1.1557344567362528e+16,403341680316443.1,396066149071616.25,9650308653616.29,15358109444275.35,167669729708613.9,2996220288740595.5
10.458942961066125,7645542139570700.0,1.177088390005349e+16,407418444816963.3,400069376354640.3,10040420991052.266,15979482273126.14,174453868523549.12,3117380167523438.0
10.768121820287448,7721351183866623.0,1.1987211525521186e+16,411458184888989.6,404036247060924.94,10441282374094.389,16618014472147.297,181425382206891.97,3241881230651514.5
11.083484256693197,7796470555660398.0,1.2206403530359596e+16,415461173440642.44,407967029175834.4,10853105090248.203,17274047113660.842,188587996821028.22,3369789623057780.0
11.405153941827061,7870904967683931.0,1.2428536774022064e+16,419427661605701.44,411861969303159.06,11276105093229.018,17947927259109.496,195945503931531.38,3501172639145418.0
11.733257020663602,7944658760756726.0,1.26536889465222e+16,423357880699340.25,415721294585580.44,11710502053085.197,18640008045426.887,203501761555148.34,3636098738826884.5
12.067922161076874,8017735938023475.0,1.2881938624094098e+16,427252044042597.06,419545214496217.06,12156519408322.686,19350648774855.0,211260695145615.84,3774637564202999.0
12.409280604298411,8090140196931362.0,1.3113365323042202e+16,431110348666387.25,423333922511913.44,12614384420041.729,20080215008237.457,219226298617638.53,3916859956886614.5
12.75746621638438,8161874959128851.0,1.3348049551986472e+16,434932976904763.75,427087597677754.56,13084328228100.045,20829078661821.46,227402635409388.53,4062837975975806.0
13.112615540712067,8232943398448100.0,1.3586072862689006e+16,438720097886056.6,430806406071305.25,13566585909319.049,21597618107606.92,235793839583959.75,4212644916682654.0
13.474867851526309,8303348467116870.0,1.3827517899630074e+16,442471868929653.25,434490502174204.5,14061396537751.465,22386218277283.273,244404116970220.0,4366355329624116.0
13.844365208556836,8373092920330123.0,1.4072468448485978e+16,446188436855389.56,438140030157929.56,14569003247030.213,23195270769797.76,253237746343566.22,4524045040782108.0
14.221252512727972,8442179339299098.0,1.432100948364577e+16,449869939211795.0,441755125089886.3,15089653294820.713,24025173962603.098,262299080647096.44,4685791172140463.0
14.605677562982532,8510610152883573.0,1.457322721489392e+16,453516505428832.1,445335914065361.7,15623598129397.797,24876333126632.363,271592548253744.16,4851672163006384.0
14.997791114242183,8578387657902570.0,1.4829209133371558e+16,457128257900234.4,448882517270330.7,16171093458371.9,25749160545052.855,281122654269935.2,5021767792025058.0
15.397746936527026,8645514038210098.0,1.5089044056921814e+16,460705313000009.94,452395048979627.9,16732399319587.227,26644075635849.89,290893981881360.6,5196159199895295.0
15.805701875257567,8711991382613723.0,1.5352822174914836e+16,464247782037299.0,455873618494581.6,17307780154216.586,27561505078294.445,300911193741441.6,5374928912795281.0
16.221815912762718,8777821701707225.0,1.5620635092639544e+16,467755772153356.2,459318331023815.75,17897504882077.105,28501882943349.465,311179033403102.5,5558160866526627.0
16.64625223101797,8843006943681456.0,1.5892575875343674e+16,471229387164086.5,462729288510586.8,18501846979191.168,29465650828067.89,321702326794451.1,5745940431385848.0
17.079177275638333,8907549009172375.0,1.6168739091995428e+16,474668728351272.0,466106590409737.6,19121084557616.504,30453257994038.586,332485983738992.3,5938354437771407.0
17.5207608211511,8971449765199677.0,1.6449220858836266e+16,478073895205340.94,469450334417073.1,19755500447569.617,31465161509935.434,343534999520979.1,6135491202535680.0
17.97117603757412,9034711058245412.0,1.6734118882787618e+16,481444986122300.8,472760617153716.94,20405382281865.36,32501826398224.11,354854456496521.9,6337440556089602.0
18.430599558325603,9097334726517098.0,1.702353250477098e+16,484782099057224.25,476037534807811.44,21071022582696.562,33563725786081.688,366449525751069.7,6544293870268987.0
18.899211549492115,9159322611437484.0,1.7317562742995462e+16,488085332136516.7,479281183735741.25,21752718850773.883,34651341060584.082,378325468803883.1,6756144086970502.0
19.37719578048196,9220676568398146.0,1.7616312336264464e+16,491354784230966.7,482491661024845.8,22450773656849.84,35765162028214.75,390487639360084.94,6973085747565348.0
19.864739696091597,9281398476813520.0,1.7919885787348572e+16,494590555491491.56,485669065019505.06,23165494735645.113,36905687078748.51,402941485110909.25,7195215023098758.0
20.36203449001343,9341490249506836.0,1.8228389406469444e+16,497792747849313.94,488813495812289.1,23897195082197.895,38073423353564.21,415692549582738.7,7422629745282498.0
20.869275179813698,9400953841459370.0,1.8541931354936e+16,500961465482189.9,491925055701776.56,24646193050655.145,39268886918435.45,428746474035500.06,7655429438288100.0
21.38666068340997,9459791257951008.0,1.8860621688972916e+16,504096815248204.75,495003849618529.2,25412812455521.484,40492602940854.39,442108999411016.75,7893715351347828.0
21.91439389707817,9518004562118888.0,1.9184572403777164e+16,507198907088564.7,498049985520615.94,26197382675384.72,41745105871935.99,455785968331871.6,8137590492169890.0
22.452681775019734,9575595881959104.0,1.951389747783813e+16,510267854400700.7,501063574759986.1,27000238759130.047,43026939632952.984,469783327151341.56,8387159661174926.0
23.00173541052013,9632567416795162.0,1.984871291755448e+16,513303774382963.56,504044732420947.25,27821721534659.406,44338657806549.7,484107128054962.3,8642529486559285.0
23.561770118730532,9688921443234962.0,2.018913680217748e+16,516306788352070.1,506993577631884.7,28662177720127.11,45680823832682.445,498763531214227.8,8903808460191533.0
24.133005521105144,9744660320638402.0,2.0535289329111536e+16,519277022034448.7,509910233851353.06,29521960037703.316,47054011209332.42,513758806993005.4,9171106974347324.0
24.715665631527248,9799786496114598.0,2.0887292859599584e+16,522214605832544.56,512794829129576.75,30401427329875.594,48458803698035.12,529099338207121.7,9444537359287836.0
25.309978944157795,9854302509068762.0,2.1245271964819456e+16,525119675067108.75,515647496346370.3,31300944678297.105,49895795534272.84,544791622437672.8,9724213921686996.0
25.91617852304095,9908210995316754.0,2.1609353472417236e+16,527992370196457.2,518468373426439.5,32220883525188.11,51365591642770.51,560842274398525.2,1.0010252983911054e+16
26.53450209350177,9961514690784764.0,2.197966651350094e+16,530832837013624.75,521257603532981.6,33161621797297.117,52868807857739.19,577258028358507.1,1.0302772924155982e+16
27.165192135371807,1.0014216434811746e+16,2.23563425701189e+16,533641226822341.6,524015335240482.94,34123544032426.223,54406071148106.33,594045740618747.9,1.0601894217444996e+16
27.808495978079243,1.006631917307017e+16,2.2739515523243084e+16,536417696592678.1,526741722687566.6,35107041508522.547,55978019847774.26,611212392045652.2,1.0907739477490746e+16
28.464665897640828,1.0117825960121816e+16,2.3129321701280636e+16,539162409097234.25,529436925710715.7,36112512375338.64,57585303890944.15,628765090659940.6,1.1220433499424672e+16
29.133959215593645,1.0168739961623146e+16,2.352589992913134e+16,541875533028673.4,532101109959685.06,37140361788661.03,59228585052546.37,646711074282220.9,1.1540103303396356e+16
29.816638399905518,1.0219064456196222e+16,2.392939157781272e+16,544557243099399.7,534734446995390.4,38191002047105.72,60908537193810.52,665057713235510.4,1.1866878179045312e+16
30.51297116790363,1.026880283697859e+16,2.4339940614670444e+16,547207720124167.7,537337114371023.5,39264852731478.37,62625846513015.75,683812513105165.2,1.220088973084702e+16
31.223230591261704,1.0317958612867508e+16,2.475769365419096e+16,549827151086374.4,539909295697144.75,40362340846693.86,64381211801453.516,702983117556595.1,1.2542271924335218e+16
31.947695203086937,1.0366535409471378e+16,2.5182800009435144e+16,552415729188764.2,542451180691477.3,41483900966250.64,66175344704638.83,722577311211236.1,1.2891161133201396e+16
32.686649107148675,1.041453696978281e+16,2.56154117441083e+16,554973653889295.3,544962965214128.5,42629975379252.625,68008969988806.25,742603022581133.4,1.324769618727287e+16
33.44038208929165,1.0461967154586122e+16,2.6055683725282812e+16,557501130922851.94,547444851288902.25,43801014239968.58,69882825812719.98,763068327062595.5,1.3612018421369692e+16
34.20918973107749,1.05088299426123e+16,2.6503773676788596e+16,559998372309504.1,549897047111421.25,44997475719921.99,71797664004835.89,783981449989256.2,1.3984271725041302e+16
34.993373525699035,1.0555129430454742e+16,2.6959842233285336e+16,562465596350014.44,552319767044705.25,46219826162497.055,73754250345844.1,805350769745015.2,1.4364602593182474e+16
35.793240996213015,1.0600869832257508e+16,2.7424052995031704e+16,564903027609231.9,554713231602866.94,47468540240049.93,75753364856626.1,827184820937180.8,1.4753160177528234e+16
36.60910581613728,1.0646055479189074e+16,2.7896572583364204e+16,567310896888045.9,557077667423576.25,48744101113510.12,77795802091660.98,849492297630259.5,1.5150096339028092e+16
37.44128793246003,1.0690690818713594e+16,2.837757069689833e+16,569689441184549.1,559413307229919.8,50047000594457.3,79882371437905.6,872282056640744.0,1.555556570109718e+16
38.29011369110923,1.0734780413671116e+16,2.886722016846536e+16,572038903645028.9,561720389782274.0,51377739309655.31,82013897419187.81,895563120893338.6,1.596972570374476e+16
39.15591596493141,1.0778328941178906e+16,2.93656970227956e+16,574359533505417.5,563999159820820.5,52736826868026.84,84191220006139.77,919344682838953.5,1.639273665857729e+16
40.03903428423004,1.0821341191365174e+16,2.987318053496027e+16,576651586023819.8,566249867999275.6,54124782030046.93,86415194931702.62,943636107934906.8,1.6824761804675362e+16
40.93981496991464,1.08638220659463e+16,3.038985328958242e+16,578915322404685.6,568472770810446.6,55542132879535.71,88686694012236.44,968446938187726.0,1.7265967365341494e+16
41.85861126931294,1.090577657665879e+16,3.091590124082721e+16,581151009715258.5,570668130504183.0,56989416997827.72,91006605474265.23,993786895758904.6,1.7716522605717982e+16
42.7957834946992,1.0947209843556718e+16,3.1451513773181172e+16,583358920794857.2,572836214998281.0,58467181640292.87,93375834286887.95,1019665886634090.4,1.81765998912701e+16
43.751699164593184,1.098812709318532e+16,3.1996883763030852e+16,585539334157526.8,574977297782914.9,59975983915184.51,95795302499890.25,1046094004356025.4,1.8646374747133964e+16
44.72673314788505,1.1028533656640866e+16,3.255220764104762e+16,587692533888678.1,577091657819116.8,61516390964788.05,98265949587585.8,1073081533821736.9,1.91260259183249e+16
