t(s),Total solute volume 1,Total retention volume 1,Total 1 volume 1,Total 2 volume 1,Total 3 volume 1,Total 4 volume 1,Total 5 volume 1,Total 6 volume 1
0.1,1038034012882719.0,1307672365282961.0,121693262551923.95,147945089848319.12,0.0,0.0,0.0,0.0
0.202,1549343810654845.0,1982533965983714.5,181636344828444.62,220819173695946.2,30092683616.520535,66444317378.80639,1187105247365.4514,29450994556116.21
0.30604000000000003,1928358656618355.5,2506543650025502.0,226069911444453.5,274838007554918.94,75655744637.18748,167047940353.62613,2984541070665.1465,74049829652121.6
0.41216080000000005,2240279671611660.5,2958230682996718.0,262637775043652.28,319294338541602.9,133159620371.97253,294018045267.317,5253063200468.373,130338656933693.62
0.5204040160000001,2509761915609293.0,3366913452822189.5,294230356070739.94,357702112481320.06,200900259173.2143,443592469935.1385,7925453415081.153,196649122516649.66
0.6308120963200001,2749196401781029.5,3747155905401714.5,322300307150229.6,391827350142295.9,277853995560.2067,613511310841.2096,10961334927900.135,271979146093858.44
0.7434283382464002,2965845578092705.5,4107406651946554.5,347699036793134.3,422705126997347.44,363335236443.6715,802261112401.8262,14333667740301.154,355657645974220.9
0.8582969050113283,3164400069014152.5,4453074855547344.0,370976447402820.9,451003971115848.44,456854567831.1231,1008761575890.2856,18023151005441.598,447205600865360.3
0.9754628431115548,3348099931320327.0,4787870649142261.0,392512384992911.0,477185669389508.3,558048193987.137,1232209766621.3572,22015439481089.477,546266965997822.4
1.094972099973786,3519296460919549.5,5114472553200521.0,412582502256928.4,501585338670365.3,666638469267.4565,1471992971881.113,26299586574670.92,652570033337852.1
1.2168715419732616,3679761793800601.0,5434892999227880.0,431394554440257.56,524455551435991.9,782409917856.2131,1727635755118.721,30867098372308.69,765903955505749.6
1.3412089728127268,3830872197146090.5,5750693403572848.0,449109887358330.3,545992459231143.9,905193739732.1252,1998765747125.8416,35711322439504.04,886103577910920.1
1.4680331522689813,3973722836431283.5,6063118021403660.0,465856892045110.7,566352149770649.1,1034857312370.3833,2285090467423.988,40827033696597.375,1013039161680218.9
1.597393815314361,4109202950241615.0,6373181101912348.0,481739817825460.9,585661361179258.2,1171296803112.6975,2586381013764.4663,46210143005269.81,1146609151843869.8
1.729341691620648,4238046951814876.0,6681725787161343.0,496844763172213.3,604024765204239.6,1314431807903.1958,2902460225684.137,51857485691850.07,1286734929244569.0
1.863928525453061,4360870262322539.5,6989465176196990.0,511243876598330.0,621530074329476.1,1464201360023.7993,3233193872913.292,57766664114802.84,1433356903598907.2
2.001207095962122,4478195110205386.5,7297011724981447.0,524998381225747.5,638251718808248.5,1620560894367.7239,3578483953541.343,63935927926619.8,1586431541967531.2
2.1412312378813647,4590469533374217.0,7604898782702320.0,538160802496393.75,654253554938979.0,1783479896070.3276,3938263503198.021,70364081332548.734,1745929067160913.2
2.284055862638992,4698081654668381.0,7913596685805854.0,550776641746574.3,669590899665267.4,1952940050597.4536,4312492511425.6978,77050410131145.92,1911831647032463.5
2.4297369798917723,4801370594255885.0,8223524998296641.0,562885655515319.4,684312085858296.2,2128933768656.0437,4701154665645.426,83994623541174.58,2084131950691669.8
2.578331719489608,4900634940521947.0,8535061967585925.0,574522848623657.2,698459669624465.8,2311462996217.814,5104254724649.402,91196807276042.98,2262831983818955.0
2.7298983538794,4996139416478721.0,8848551932152891.0,585719255706967.9,712071380430913.2,2500538244811.7188,5521816378451.537,98657385307851.81,2447942139605165.5
2.884496320956988,5088120191024548.0,9164311198318014.0,596502563877092.2,725180878089122.9,2696177794367.9565,5953880489143.236,106377088438742.1,2639480418605007.5
3.0421862473761276,5176789157759471.0,9482632756212994.0,606897614346591.0,737818362590196.5,2898407032934.1064,6400503633979.291,114356928272105.6,2837471782577720.0
3.2030299723236504,5262337416928348.0,9803790104062170.0,616926810632141.1,750011070366441.5,3107257906198.8887,6861756890940.609,122598175516066.27,3041947615822024.5
3.3670905717701234,5344938135007860.0,1.012804037937879e+16,626610453796415.0,761783681852053.1,3322768456026.0396,7337724820856.246,131102341798849.1,3252945273646707.0
3.5344323832055258,5424748912969662.0,1.0455626945625632e+16,635967020089924.9,773158659018210.1,3544982431827.0645,7828504610382.63,139871164358156.62,3470507702147466.0
3.7051210308696363,5501913762816514.0,1.0786781546824842e+16,645013392668971.2,784156527077550.5,3773948962063.1714,8334205347780.066,148906593103227.56,3694683116848713.0
3.879223451487029,5576564768951187.0,1.1121726116258968e+16,653765056365206.9,794796111269635.1,4009722275788.8784,8854947409216.084,158210779651674.56,3925524730336267.5
4.0568079205167695,5648823493842107.0,1.1460674305921696e+16,662236262477944.0,805094737202504.6,4252361466158.1245,9390861937760.219,167786068022456.56,4163090520972732.5
4.237944078927105,5718802174616694.0,1.180383278879612e+16,670440169056012.5,815068401396307.2,4501930289368.839,9942090400666.992,177634986727641.03,4407443036309408.0
4.422702960505647,5786604747474278.0,1.2151402375014186e+16,678388960994190.1,824731917287073.8,4758496993736.688,10508784213227.615,187760242053576.0,4658649225998126.0
4.61115701971576,5852327729349204.0,1.2503578974526924e+16,686093953394391.6,834099040885145.0,5022134174546.898,11091104419585.299,198164712359867.75,4916780299944181.0
4.803380160110075,5916060980481498.0,1.2860554432422214e+16,693565680965175.6,843182579460030.4,5292918651094.957,11689221422591.803,208851443254619.56,5181911608187214.0
4.9994477633122765,5977888367050339.0,1.322251725797914e+16,700813975705160.1,851994485981804.0,5570931362937.06,12303314756130.09,219823643528450.0,5454122539594310.0
5.199436718578522,6037888339484063.0,1.3589653264587508e+16,707848034700824.0,860545941544338.0,5856257282863.735,12933572894415.2,231084681749260.66,5733496436931762.0
5.403425452950093,6096134439254031.0,1.3962146134537046e+16,714676479540177.0,868847427595750.9,6148985344510.374,13580193093669.166,242638083435482.44,6020120526273411.0
5.611493962009095,6152695744720790.0,1.4340177920192506e+16,721307408581242.0,876908789482336.5,6449208382845.558,14243381262288.893,254487528738466.4,6314085859024532.0
5.823723841249277,6207637264801378.0,1.4723929491080272e+16,727748443103407.2,884739292555730.0,6757023086046.71,14923351856219.066,266636850575279.56,6615487265102207.0
6.040198318074262,6261020287772811.0,1.5113580934806978e+16,734006768199165.8,892347671885866.9,7072529957496.364,15620327796734.424,279090033161961.47,6924423316032949.0
6.261002284435747,6312902691343290.0,1.5509311918429622e+16,740089169125136.4,899742176453703.1,7395833286815.796,16334540408244.758,291851210904595.25,7240996296907795.0
6.486222330124463,6363339219156236.0,1.591130201583633e+16,746002063717820.9,906930608559734.5,7727041129009.173,17066229374076.975,304924667611658.1,7565312186287795.0
6.715946776726952,6412381728095983.0,1.631973100582838e+16,751751531386350.8,913920359071096.0,8066265290920.07,17815642708476.055,318314835996242.9,7897480643279282.0
6.950265712261491,6460079410108061.0,1.673477914487639e+16,757343339117430.4,920718439036327.5,8413621324312.313,18583036743308.594,332026297441047.6,8237615001105917.0
7.18927102650672,6506478991699878.0,1.7156627417934e+16,762782964863683.5,927331508119085.0,8769228524980.066,19368676128158.137,346063782002738.75,8585832266595492.0
7.433056447036854,6551624913834113.0,1.758545777019661e+16,768075618633341.4,933765900237317.4,9133209937370.475,20172833842674.805,360432168635358.06,8942253125076438.0
7.681717575977592,6595559494544469.0,1.8021453322284012e+16,773226261554394.0,940027646739970.8,9505692364270.6,20995791220192.79,375136485615152.44,9307001950245546.0
7.935351927497144,6638323076284075.0,1.846479857097938e+16,778239623148887.2,946122497407716.0,9886806381167.248,21837837981755.37,390181911151461.56,9680206818624348.0
8.194058966047088,6679954159744837.0,1.891567957736769e+16,783120217021160.0,952055939525461.1,10276686354938.342,22699272279797.465,405573774170267.7,1.0061999528271242e+16
8.45794014536803,6720489525657598.0,1.9374284143970196e+16,787872355136995.9,957833215241838.1,10675470466578.04,23580400750831.156,421317555258728.06,1.0452515621457606e+16
8.72709894827539,6759964345886909.0,1.9840801982265364e+16,792500160847745.8,963459337402900.8,11083300737693.934,24481538576561.61,437418887760448.1,1.0851894411053106e+16
9.0016409272409,6798412284967740.0,2.0315424871808068e+16,797007580793944.5,968939104023590.2,11500323060547.873,25403009552932.88,453883559012558.9,1.1260279010396764e+16
9.281673745785717,6835865593089261.0,2.0798346812009e+16,801398395806176.2,974277111540179.9,11926687231439.615,26345146166663.41,470717511716763.3,1.1677816366458564e+16
9.567307220701432,6872355191407130.0,2.1289764167506024e+16,805676230906626.2,979477766969336.2,12362546987257.176,27308289678888.6,487926845437490.75,1.2104657296119274e+16
9.85865336511546,6907910750460975.0,2.1789875807948468e+16,809844564502296.8,984545299084536.2,12808060045040.047,28292790215573.09,505517818221158.4,1.2540956525418892e+16
10.155826432417769,6942560762381805.0,2.229888324292075e+16,813906736850203.0,989483768707376.8,13263388144418.729,29299006864399.227,523496848331287.75,1.2986872731641256e+16
10.458942961066125,6976332607495405.0,2.281699075264647e+16,817865957865568.8,994297078200159.4,13728697092813.072,30327307777873.66,541870516094884.94,1.3442568588119784e+16
10.768121820287448,7009252615858307.0,2.3344405515045696e+16,821725314335968.1,998988980236294.6,14204156813284.365,31378070282428.457,560645565856082.9,1.3908210811663352e+16
11.083484256693197,7041346124203784.0,2.38813377296537e+16,825487776597356.5,1003563085916459.6,14689941394951.258,32451680993320.934,579828908033571.9,1.4383970212514266e+16
11.405153941827061,7072637528722178.0,2.4428000738856184e+16,829156204721716.4,1008022872291092.8,15186229145889.334,33548535935163.3,599427621278779.6,1.4870021746761398e+16
11.733257020663602,7103150334054518.0,2.4984611146849684e+16,832733354260827.6,1012371689343184.5,15693202648446.223,34669040667935.65,619448954732227.9,1.5366544571142548e+16
12.067922161076874,7132907198838147.0,2.5551388936693028e+16,836221881585748.2,1016612766479615.9,16211048816912.336,35813610418356.22,639900330375784.2,1.5873722100178464e+16
12.409280604298411,7161929978107181.0,2.6128557585780564e+16,839624348857629.6,1020749218574273.0,16739958957495.564,36982670216502.84,660789345478943.4,1.639174206558854e+16
12.75746621638438,7190239762820263.0,2.6716344180037084e+16,842943228661701.1,1024784051601705.2,17280128830556.43,38176655037593.6,682123775137509.2,1.6920796577947702e+16
13.112615540712067,7217856916759572.0,2.7314979527103644e+16,846180908333133.8,1028720167896125.5,17831758715066.113,39396009948852.6,703911574903332.9,1.7461082190547574e+16
13.474867851526309,7244801111021495.0,2.7924698268763324e+16,849339694000514.0,1032560371067193.6,18395053475255.992,40641190261397.79,726160883504022.6,1.8012799965433462e+16
13.844365208556836,7271091356297298.0,2.8545738992829236e+16,852421814370246.6,1036307370600759.0,18970222629433.54,41912661687101.1,748880025651720.9,1.857615554159267e+16
14.221252512727972,7296746033122931.0,2.917834434470241e+16,855429424272872.4,1039963786170227.1,19557480420941.89,43210900500383.266,772077514940298.1,1.915135920527482e+16
14.605677562982532,7321782920260102.0,2.982276113878793e+16,858364607990315.5,1043532151681535.9,20157045891248.88,44536393704912.9,795762056830432.9,1.9738625962429424e+16
14.997791114242183,7346219221355607.0,3.047924046994202e+16,861229382381269.9,1047014919072769.9,20769142955150.93,45889639205192.27,819942551722265.5,2.0338175613249756e+16
15.397746936527026,7370071590012120.0,3.114803782511223e+16,864025699820340.9,1050414461887342.1,21394000478084.516,47271145983018.21,844628098115422.2,2.0950232828815904e+16
15.805701875257567,7393356153391433.0,3.1829413195318324e+16,866755450965176.5,1053733078638031.6,22031852355538.797,48681434278814.0,869827995856385.9,2.1575027229832948e+16
16.221815912762718,7416088534460244.0,3.252363118811176e+16,869420467364434.5,1056972995977574.4,22682937594567.312,50121035777838.805,895551749473282.9,2.221279346746381e+16
16.64625223101797,7438283872979271.0,3.3230961140643016e+16,872022523918416.5,1060136371690090.0,23347500397399.43,51590493801281.734,921809071598272.8,2.286377130625824e+16
17.079177275638333,7459956845326644.0,3.3951677233456268e+16,874563341203067.1,1063225297516413.2,24025790247154.188,53090363502260.234,948609886477893.6,2.352820570918279e+16
17.5207608211511,7481121683239704.0,3.4686058605125564e+16,877044587667139.8,1066241801825250.1,24718061995662.082,54621212066743.51,975964333571729.1,2.420634692475934e+16
17.97117603757412,7501792191551312.0,3.54343894678367e+16,879467881711520.1,1069187852141050.8,25424575953402.53,56183618919428.766,1003882771239924.5,2.4898450576320096e+16
18.430599558325603,7521981764991160.0,3.619695922401618e+16,881834793658899.0,1072065357538569.1,26145597981566.25,57778175934603.086,1032375780520142.5,2.5604777753391264e+16
18.899211549492115,7541703404115698.0,3.697406258410219e+16,884146847621320.9,1074876170913305.1,26881399586254.184,59405487652027.01,1061454168994638.8,2.632559510521889e+16
19.37719578048196,7560969730426234.0,3.776599968554596e+16,886405523272538.2,1077622091136172.0,27632258014826.68,61066171497882.55,1091128974748193.4,2.7061174936450136e+16
19.864739696091597,7579793000728832.0,3.857307621313191e+16,888612257531486.9,1080304865100148.8,28398456354416.594,62760858010829.7,1121411470417758.9,2.7811795304988412e+16
20.36203449001343,7598185120786300.0,3.939560352069522e+16,890768446162766.1,1082926189666005.5,29180283632624.055,64490191073220.86,1152313167334661.0,2.8577740122039572e+16
20.869275179813698,7616157658307648.0,4.023389875431815e+16,892875445299455.8,1085487713513634.4,29978034920409.613,66254828147526.336,1183845819760372.0,2.9359299254369056e+16
21.38666068340997,7633721855317809.0,4.108828497707823e+16,894934572893266.6,1087991038905018.9,30792011437205.188,68055440518027.36,1216021429216867.5,3.015676862878999e+16
21.91439389707817,7650888639946346.0,4.195909129542261e+16,896947110096578.0,1090437723364421.8,31622520658262.84,69892713537834.3,1248852248912588.2,3.0970450338906508e+16
22.452681775019734,7667668637671211.0,4.284665298723708e+16,898914302580610.6,1092829281280893.8,32469876424263.156,71767346881294.92,1282350788265205.5,3.1800652754133596e+16
23.00173541052013,7684072182051204.0,4.3751311631679496e+16,900837361793615.4,1095167185437900.9,33334399053205.766,73680054801855.9,1316529817522394.5,3.2647690631019316e+16
23.561770118730532,7700109324977565.0,4.4673415240841304e+16,902717466162727.9,1097452868474433.2,34216415454604.523,75631566395448.78,1351402372481769.2,3.3511885226894696e+16
24.133005521105144,7715789846473654.0,4.561331839330272e+16,904555762242828.0,1099687724281703.8,35116259246012.93,77622625869466.69,1386981759311346.5,3.4393564415877616e+16
24.715665631527248,7731123264069143.0,4.6571382369645176e+16,906353365815516.9,1101873109339186.4,36034270871904.75,79653992817411.6,1423281559471857.8,3.5293062807260184e+16
25.309978944157795,7746118841773355.0,4.754797528997872e+16,908111362941085.5,1104010343993535.2,36970797724935.84,81726442499282.6,1460315634742306.0,3.621072186630426e+16
25.91617852304095,7760785598670566.0,4.854347225354793e+16,909830810966200.0,1106100713683635.2,37926194269613.06,83840766127787.88,1498098132350109.2,3.714689003747999e+16
26.53450209350177,7775132317158670.0,4.9558255480472456e+16,911512739489744.6,1108145470114802.6,38900822168401.08,85997771160458.55,1536643490207472.5,3.810192287017286e+16
27.165192135371807,7789167550851046.0,5.059271445568197e+16,913158151289198.0,1110145832384994.2,39895050410291.51,88198281597748.78,1575966442255313.2,3.907618314689334e+16
27.808495978079243,7802899632159903.0,5.164724607510002e+16,914768023209654.9,1112102988065628.2,40909255441865.54,90443138287210.1,1616082023916445.5,4.00700410140194e+16
28.464665897640828,7816336679578633.0,5.2722254794135704e+16,916343307017583.8,1114018094239485.5,41943821300880.164,92733199233821.69,1657005577659520.5,4.1083874115105656e+16
29.133959215593645,7829486604679036.0,5.3818152778534776e+16,917884930221109.8,1115892278497981.0,42999139752406.805,95069339916572.84,1698752758675412.8,4.21180677267923e+16
29.816638399905518,7842357118838337.0,5.493536005765e+16,919393796858690.6,1117726639899940.0,44075610427553.06,97452453611385.42,1741339540667704.8,4.317301489734635e+16
30.51297116790363,7854955739710411.0,5.607430468017854e+16,920870788257747.2,1119522249893902.2,45173640964800.77,99883451720470.64,1784782221758964.5,4.424911658787221e+16
31.223230591261704,7867289797454091.0,5.723542287242667e+16,922316763764830.2,1121280153205797.6,46293647153988.07,102363264108220.42,1829097430514589.0,4.534678181622524e+16
31.947695203086937,7879366440730770.0,5.841915919914909e+16,923732561448759.5,1123001368693764.0,47436053082973.7,104892839443722.39,1874302132085990.5,4.646642780366314e+16
32.686649107148675,7891192642483268.0,5.962596672702029e+16,925118998778094.5,1124686890171756.5,48601291287008.9,107473145550007.36,1920413634474922.5,4.760848012427507e+16
33.44038208929165,7902775205506256.0,6.085630719078824e+16,926476873274185.8,1126337687203490.8,49789802900855.05,110105169760125.97,1967449594920829.8,4.877337285722251e+16
34.20918973107749,7914120767818848.0,6.2110651162161976e+16,927806963141020.2,1127954705868160.2,51002037813678.83,112789919280158.73,2015428026413057.8,4.996154874182709e+16
34.993373525699035,7925235807848663.0,6.338947822148792e+16,929110027872987.5,1129538869499282.5,52238454826756.38,115528421559264.66,2064367304329921.2,5.117345933555106e+16
35.793240996213015,7936126649436419.0,6.469327713226273e+16,930386808841569.8,1131091079397988.0,53499521814023.13,118321724666875.62,2114286173206505.0,5.240956517489936e+16
36.60910581613728,7946799466669574.0,6.6022546018538136e+16,931638029862022.2,1132612215521915.5,54785715885501.44,121170897677147.2,2165203753633210.5,5.367033593928868e+16
37.44128793246003,7957260288552844.0,6.737779254526534e+16,932864397740919.9,1134103137150895.2,56097523553640.46,124077031060771.62,2217139549287117.2,5.495625061791899e+16
38.29011369110923,7967515003523274.0,6.875953410163407e+16,934066602805466.6,1135564683530436.8,57435440902602.66,127041237084270.3,2270113454098095.5,5.626779767968989e+16
39.15591596493141,7977569363816715.0,7.016829798745324e+16,935245319415417.4,1136997674494074.5,58799973760531.75,130064650216875.0,2324145759551885.5,5.760547524619775e+16
40.03903428423004,7987428989692768.0,7.1604621602626904e+16,936401206458363.8,1138402911065513.5,60191637874835.71,133148427545118.33,2379257162132133.0,5.896979126785821e+16
40.93981496991464,7997099373524070.0,7.306905263977534e+16,937534907829157.8,1139781176041457.0,61610959090520.83,136293749195244.27,2435468770903606.0,6.036126370319117e+16
41.85861126931294,8006585883756280.0,7.456214928005075e+16,938647052894143.9,1141133234556001.2,63058473531608.2,139501818763562.73,2492802115238755.5,6.17804207013103e+16
42.7957834946992,8015893768744165.0,7.608448039219997e+16,939738256940892.4,1142459834627362.0,64534727785672.21,142773863754863.38,2551279152689712.0,6.3227800787657016e+16
43.751699164593184,8025028160469226.0,7.763662573492165e+16,940809121614026.0,1143761707687746.5,66040279091529.805,146111136029017.06,2610922277008178.5,6.470395305302198e+16
44.72673314788505,8033994078144129.0,7.92191761625729e+16,941860235337775.2,1145039569097049.2,67575695530119.5,149514912255878.62,2671754326315191.0,6.620943734589284e+16
