t(s),Total solute volume 1,Total retention volume 1,Total 1 volume 1,Total 2 volume 1,Total 3 volume 1,Total 4 volume 1,Total 5 volume 1,Total 6 volume 1
0.1,1360095892163908.8,3176178273173015.0,653029631800972.5,1163052749208134.2,0.0,0.0,0.0,-4.1755110825714755e-98
0.202,1308470409332439.0,6420586306082601.0,628242511343723.1,1118907308453733.9,551953778140.7695,2192254846350.809,92684367695900.69,3269537500632311.0
0.30604000000000003,1277958593275783.2,9803692888508748.0,613592717235264.4,1092815838684000.9,1088924684676.821,4325216969533.135,183282891757928.2,6630628705901560.0
0.41216080000000005,1264970733670454.2,1.327274798883031e+16,607356789031012.1,1081709564142511.4,1632969979311.1833,6486320435151.997,275055671674746.28,1.003553593989712e+16
0.5204040160000001,1258059672541802.2,1.6818567542291886e+16,604038545579162.0,1075799727181740.6,2187141559326.2866,8687697507934.693,368533372426252.2,1.3501261385495668e+16
0.6308120963200001,1253813692356139.8,2.043917643950241e+16,601999901208761.4,1072168873786100.4,2752147873097.1733,10932166622049.705,463839021756875.9,1.703367063589939e+16
0.7434283382464002,1250960668511239.0,2.4134528888543264e+16,600630064150489.4,1069729175310330.2,3328362954377.867,13221217115827.424,561036812918310.5,2.063562258758269e+16
0.8582969050113283,1248922830299041.5,2.790531663339433e+16,599651626372425.4,1067986564259458.0,3916069388021.4326,15555975031981.832,660174982631350.5,2.430910858541204e+16
0.9754628431115548,1247401191196263.5,3.1752581348428776e+16,598921033933748.6,1066685369117738.1,4515520029060.732,17937448403332.164,761296556330140.9,2.8055824229418468e+16
1.094972099973786,1246226091148937.5,3.567755874394253e+16,598356827078405.6,1065680508957521.2,5126958613274.844,20366609168766.47,864442935071855.0,3.1877358813903788e+16
1.2168715419732616,1245294375110293.5,3.968160680170622e+16,597909477442219.0,1064883773092408.8,5750627635459.108,22844424491168.98,969655270278598.0,3.5775268853656044e+16
1.3412089728127268,1244539856094183.0,4.376616944449002e+16,597547206326431.6,1064238563229926.1,6386771685911.127,25371870025962.336,1076975048159452.4,3.97511101289681e+16
1.4680331522689813,1243918192293428.8,4.793275681707757e+16,597248723670611.1,1063706961484082.2,7035638991100.749,27949936052782.84,1186444360832307.2,4.380645300375328e+16
1.597393815314361,1243398604622545.5,5.218293402493159e+16,596999251353768.8,1063262647820984.8,7697482186000.471,30579630553636.906,1298106042938594.8,4.7942890365456104e+16
1.729341691620648,1242959085353347.2,5.651831447355243e+16,596788222691892.8,1062886802832912.4,8372558737423.087,33261980904167.38,1412003746894590.8,5.216204207613808e+16
1.863928525453061,1242583497463387.0,6.0940555850842504e+16,596607889733170.5,1062565627312322.0,9061131201789.06,35998034907062.766,1528181988867835.5,5.646555768135691e+16
2.001207095962122,1242259749918122.8,6.545135769951528e+16,596452447146815.4,1062288781886027.1,9763467402132.639,38788861504722.68,1646686180369822.2,6.08551182112876e+16
2.1412312378813647,1241978611457281.5,7.005245998501371e+16,596317462680204.5,1062048372651666.5,10479840565343.215,41635551334159.29,1767562652695486.0,6.533243749362956e+16
2.284055862638992,1241732917200930.0,7.474564230908282e+16,596199496222559.9,1061838272724966.2,11210529440168.256,44539217205754.984,1890858677849819.2,6.989926319843868e+16
2.4297369798917723,1241517024613017.8,7.953272355566672e+16,596095838593924.6,1061653657019383.2,11955818406537.443,47500994547875.54,2016622487847094.8,7.455737773463891e+16
2.578331719489608,1241326432163481.8,8.441556183495984e+16,596004328451429.9,1061490676153677.0,12715997581744.473,50522041839373.58,2144903293380372.0,7.930859906538981e+16
2.7298983538794,1241157506758541.2,8.939605463891562e+16,595923221418998.1,1061346223370145.2,13491362926424.082,53603541041682.625,2275751302396589.0,8.415478148100323e+16
2.884496320956988,1241007285477949.0,9.44761391508355e+16,595851094894431.1,1061217764994747.1,14282216351885.898,56746698036732.87,2409217738866720.5,8.909781635221306e+16
3.0421862473761276,1240873329072670.2,9.965779267026278e+16,595786777708488.2,1061103215158972.5,15088865829629.633,59952743073989.52,2545354861907286.5,9.41396328775117e+16
3.2030299723236504,1240753791323153.0,1.0494303297625102e+17,595729383426220.1,1061000995109812.4,15911627800952.77,63222940346562.97,2684216345304404.0,9.928219789293989e+16
3.3670905717701234,1240646581841280.8,1.1033391943024936e+17,595677908378830.1,1060909317299776.0,16750817721846.232,66558550480037.84,2825855799587309.5,1.0452752045494032e+17
3.5344323832055258,1240550493844340.2,1.1583255303195867e+17,595631773147458.6,1060827149775518.0,17606765133731.312,69960890356207.52,2970329129789118.0,1.0987764682991221e+17
3.7051210308696363,1240464315676537.8,1.2144107730823997e+17,595590395973550.4,1060753456417094.5,18479803411446.906,73431292443356.42,3117692939336368.5,1.153346651049817e+17
3.879223451487029,1240387011988408.8,1.2716167905249952e+17,595553279749416.5,1060687351868844.2,19370272560203.477,76971115909503.53,3268004965249790.5,1.2090070505517344e+17
4.0568079205167695,1240317694332398.8,1.3299658908962139e+17,595519997900140.0,1060628076394939.6,20278519362330.875,80581747221032.17,3421324104630346.5,1.2657793894978029e+17
4.237944078927105,1240255596440750.2,1.3894808307030504e+17,595490182513618.1,1060574974738828.0,21204897507092.95,84264600674225.16,3577710437303050.5,1.3236858238112744e+17
4.422702960505647,1240200054305619.8,1.4501848229342502e+17,595463514776332.4,1060527479089216.5,22149767723133.668,88021118937899.9,3737225248921007.5,1.382748951096717e+17
4.61115701971576,1240150490023586.2,1.512101545548285e+17,595439717216521.2,1060485095265042.9,23113497913847.484,91852773608335.1,3899931054590397.0,1.442991819262109e+17
4.803380160110075,1240106398603881.5,1.5752551502121008e+17,595418547370356.0,1060447391434859.1,24096463295711.023,95761065776663.23,4065891623024563.0,1.5044379353170406e+17
4.9994477633122765,1240067337127259.2,1.6396702712799405e+17,595399792576725.6,1060413988846266.5,25099046539592.707,99747526608825.81,4235172001231688.5,1.567111274350636e+17
5.199436718578522,1240032915782481.0,1.7053720350044342e+17,595383265673541.6,1060384554160978.5,26121637915055.33,103813717938179.19,4407838539740329.5,1.631036288692327e+17
5.403425452950093,1240002790412894.5,1.7723860689743328e+17,595368801419090.5,1060358793081193.2,27164635437670.355,107961232870856.39,4583958918367642.0,1.6962379172584406e+17
5.611493962009095,1239976656285343.5,1.8407385117751638e+17,595356253500263.6,1060336445021219.4,28228445019366.98,112191696404009.75,4763602172535962.0,1.7627415950875014e+17
5.823723841249277,1239954242854512.8,1.9104560228705258e+17,595345492018735.8,1060317278630324.4,29313480621844.758,116506766057082.36,4946838720144248.0,1.8305732630672563e+17
6.040198318074262,1239935309342653.5,1.98156579270294e+17,595336401368639.6,1060301088012833.8,30420164413081.86,120908132516269.03,5133740389001512.0,1.8997593778563907e+17
6.261002284435747,1239919703180531.5,2.054095539769244e+17,595328908296093.6,1060287742702342.5,31548928509157.51,125397526570275.77,5324380684284360.0,1.9703269048338166e+17
6.486222330124463,1239907106030494.2,2.1280735649133773e+17,595322859956043.5,1060276970480122.2,32700208812684.6,129976694686989.23,5518833858777657.0,2.042303387925939e+17
6.715946776726952,1239897411659589.5,2.2035287118234496e+17,595318205342280.9,1060268680503115.8,33874454694173.19,134647437455246.73,5717176385544492.0,2.1157168860714627e+17
6.950265712261491,1239890465404589.8,2.2804903996161757e+17,595314870195545.8,1060262740514556.0,35072122762691.223,139411584894429.12,5919486016411860.0,2.1905960216143395e+17
7.18927102650672,1239886128567834.5,2.358988632508541e+17,595312787922215.5,1060259031910250.6,36293678668681.16,144271003636230.06,6125842059251751.0,2.2669699856089686e+17
7.433056447036854,1239884276589725.2,2.439054011089133e+17,595311898716839.6,1060257448175846.5,37539597278526.0,149227597647253.25,6336325409275340.0,2.344868548812297e+17
7.681717575977592,1239884797462048.5,2.520717743921505e+17,595312148800334.8,1060257893530030.1,38810362852382.06,154283308965536.62,6551018580405362.0,2.424322073001348e+17
7.935351927497144,1239887590374457.2,2.6040116594136496e+17,595313489770105.1,1060260281767082.4,40106469226250.336,159440118455138.75,6770005737412507.0,2.505361522543594e+17
8.194058966047088,1239892564545657.0,2.688968217939511e+17,595315878038854.8,1060264535257403.5,41428419997935.56,164700046577446.4,6993372728763202.0,2.588018476207706e+17
8.45794014536803,1239899638206509.2,2.7756205242085053e+17,595319274346341.1,1060270584077937.4,42776728716768.48,170065154178755.9,7221207120161117.0,2.672325139211631e+17
8.72709894827539,1239908737710726.2,2.8640023398832736e+17,595323643332390.6,1060278365251698.1,44151919077063.445,175537543294076.4,7453598228780794.0,2.7583143555088064e+17
9.0016409272409,1239919796754096.8,2.954148096447831e+17,595328953162015.4,1060287822080109.0,45554525115330.84,181119357967284.06,7690637158199370.0,2.84601962031505e+17
9.281673745785717,1239932755686792.2,3.046092908329242e+17,595335175195230.1,1060298903554939.5,46985091411284.25,186812785087845.9,7932416834035936.0,2.93547509287952e+17
9.567307220701432,1239947560905964.0,3.1398725862765734e+17,595342283695423.1,1060311563838898.0,48444173292694.02,192620055244377.4,8179032040310025.0,3.0267156095036986e+17
9.85865336511546,1239964164317934.5,3.235523651001144e+17,595350255571122.8,1060325761805734.6,49932337044145.2,198543443595327.72,8430579456531964.0,3.1197766968124826e+17
10.155826432417769,1239982522860894.2,3.3330833470823866e+17,595359070146837.0,1060341460632083.5,51450160119762.97,204585270757106.97,8687157695538594.0,3.214694585281832e+17
10.458942961066125,1240002598080415.5,3.432589657143824e+17,595368708959239.9,1060358627434486.4,52998231359969.59,210747903709979.25,8948867342088448.0,3.311506223027498e+17
10.768121820287448,1240024355751198.0,3.534081316303752e+17,595379155575559.5,1060377232945918.0,54577151212341.27,217033756722062.22,9215810992230832.0,3.410249289859372e+17
11.083484256693197,1240047765539378.2,3.6375978269054445e+17,595390395431435.9,1060397251227030.6,56187531956632.69,223445292291777.53,9488093293463936.0,3.510962211606343e+17
11.405153941827061,1240072800700533.0,3.7431794735317395e+17,595402415685929.4,1060418659407907.6,57829997934041.13,229985022109109.25,9765820985697228.0,3.6136841747163936e+17
11.733257020663602,1240099437809186.0,3.850867338309047e+17,595415205091641.2,1060441437456750.5,59505185780780.79,236655508036036.2,1.004910294303384e+16,3.718455141136964e+17
12.067922161076874,1240127656516140.2,3.9607033165058323e+17,595428753878204.1,1060465567972370.2,61213744666041.17,243459363106509.38,1.0338050216389132e+16,3.825315863480548e+17
12.409280604298411,1240157439330487.2,4.072730132430859e+17,595443053647613.9,1060491035997783.2,62956336534403.98,250399252546357.2,1.0632776076961706e+16,3.934307900480679e+17
12.75746621638438,1240188771423528.5,4.186991355636484e+17,595458097280088.1,1060517828852532.2,64733636352794.07,257477894813506.03,1.0933396060573892e+16,4.045473632743523e+17
13.112615540712067,1240221640452200.5,4.3035314174324026e+17,595473878849284.2,1060545935981689.6,66546332362040.586,264698062658917.38,1.1240028012898592e+16,4.158856278800381e+17
13.474867851526309,1240256036399867.2,4.422395627715425e+17,595490393545860.6,1060575348819727.5,68395126333127.34,272062584208639.44,1.1552792135590254e+16,4.2744999114664506e+17
13.844365208556836,1240291951432686.2,4.5436301921208275e+17,595507637608510.1,1060606060667676.4,70280733828210.7,279574344067397.4,1.1871811033337532e+16,4.3924494745114074e+17
14.221252512727972,1240329379769848.5,4.6672822295010835e+17,595525608261660.5,1060638066582174.6,72203884466485.22,287236284444136.9,1.2197209761856318e+16,4.51275079964728e+17
14.605677562982532,1240368317566325.8,4.7933997897377235e+17,595544303659173.9,1060671363275198.9,74165322194978.44,295051406299955.1,1.2529115876841244e+16,4.635450623839354e+17
14.997791114242183,1240408762806813.5,4.922031871892267e+17,595563722833429.5,1060705949023376.5,76165805564357.33,303022770518856.0,1.2867659483895046e+16,4.760596606945853e+17
15.397746936527026,1240450715209788.8,5.0532284427022214e+17,595583865649254.4,1060741823585930.5,78206108009829.11,311153499101782.56,1.3212973289455e+16,4.8882373496921094e+17
15.805701875257567,1240494176140658.0,5.187040455428318e+17,595604732762225.0,1060778988130423.2,80287018137222.19,319446776384381.25,1.3565192652736144e+16,5.01842241198541e+17
16.221815912762718,1240539148533146.2,5.323519869059085e+17,595626325580921.2,1060817445165525.1,82409340014331.4,327905850278957.94,1.3924455638711672e+16,5.1512023315762374e+17
16.64625223101797,1240585636818126.0,5.4627196678791674e+17,595648646232759.5,1060857198480164.0,84573893467615.33,336534033541116.25,1.429090307215068e+16,5.286628643072263e+17
17.079177275638333,1240633646859214.8,5.604693881407756e+17,595671697533063.9,1060898253088439.6,86781514384332.55,345334705061545.5,1.4664678592734812e+16,5.4247538973111456e+17
17.5207608211511,1240683185894494.0,5.7494976047136294e+17,595695482957088.5,1060940615179796.8,89033055020205.94,354311311183463.75,1.5045928711274578e+16,5.565631681098531e+17
17.97117603757412,1240734262483818.2,5.897187019113377e+17,595720006614715.8,1060984292073961.0,91329384312704.75,363467367046220.1,1.5434802867047686e+16,5.709316637317593e+17
18.430599558325603,1240786886461203.2,6.047819413259625e+17,595745273227600.4,1061029292180234.2,93671388200035.23,372806457955557.3,1.5831453486281346e+16,5.855864485416572e+17
18.899211549492115,1240841068891887.2,6.201453204625897e+17,595771288108546.8,1061075624960760.2,96059969945930.66,382332240781079.0,1.6236036041801392e+16,6.005332042280997e+17
19.37719578048196,1240896822033601.5,6.358147961395126e+17,595798057142921.8,1061123300897423.4,98496050470335.4,392048445381433.75,1.6648709113871316e+16,6.157777243497157e+17
19.864739696091597,1240954159301773.5,6.517964424758849e+17,595825586771937.4,1061172331462079.1,100980568686074.52,401958876057778.4,1.7069634452244932e+16,6.313259165013599e+17
20.36203449001343,1241013095238274.5,6.680964531634025e+17,595853883977652.6,1061222729089840.2,103514481841604.95,412067413036060.7,1.7498977039456604e+16,6.471838045207621e+17
20.869275179813698,1241073645483472.5,6.84721143780487e+17,595882956269556.0,1061274507155170.9,106098765869943.67,422378013978699.44,1.7936905155373638e+16,6.63357530736357e+17
21.38666068340997,1241135826751300.2,7.016769541496868e+17,595912811672589.9,1061327679950568.2,108734415743868.3,432894715526229.9,1.838359044303609e+16,6.79853358257007e+17
21.91439389707817,1241199656807124.0,7.18970450739046e+17,595943458716528.9,1061382262667641.9,111422445837489.2,443621634869505.1,1.88392079758093e+16,6.96677673304338e+17
22.452681775019734,1241265154448190.0,7.366083291081811e+17,595974906426585.4,1061438271380383.2,114163890294289.42,454562971353052.56,1.9303936325875196e+16,7.138369875884036e+17
23.00173541052013,1241332339486460.0,7.5459741639984e+17,596007164315173.9,1061495723030500.0,116959803401733.2,465723008110194.1,1.9777957634089156e+16,7.313379407274068e+17
23.561770118730532,1241401232733667.5,7.729446738776998e+17,596040242374737.6,1061554635414629.8,119811259972541.66,477106113730558.6,2.0261457681229276e+16,7.491873027122438e+17
24.133005521105144,1241471855988446.0,7.916571995111922e+17,596074151071560.8,1061615027173332.8,122719355732737.11,488716743960609.8,2.0754625960665824e+16,7.673919764165994e+17
24.715665631527248,1241544232025362.5,8.107422306081453e+17,596108901340509.9,1061676917781715.2,125685207716557.0,500559443437843.9,2.125765575247902e+16,7.859590001533642e+17
25.309978944157795,1241618384585752.2,8.302071464960424e+17,596144504580630.6,1061740327541596.5,128709954668339.45,512638847459320.44,2.1770744199053796e+16,8.048955502781532e+17
25.91617852304095,1241694338370236.0,8.500594712527117e+17,596180972651555.4,1061805277575103.2,131794757451483.8,524959683785177.7,2.2294092382180696e+16,8.242089438406972e+17
26.53450209350177,1241772119032807.5,8.703068764872543e+17,596218317870661.0,1061871789819614.0,134940799464589.08,537526774477844.0,2.2827905401693416e+16,8.43906641284896e+17
27.165192135371807,1241851753176379.8,8.909571841720652e+17,596256553010941.4,1061939887023962.1,138149287064874.05,550345037777620.4,2.3372392455672492e+16,8.639962491983383e+17
27.808495978079243,1241933268349759.5,9.12018369526759e+17,596295691299536.6,1062009592745827.5,141421449998985.28,563419490015353.9,2.3927766922246796e+16,8.844855231121024e+17
28.464665897640828,1242016693045886.2,9.334985639548783e+17,596335746416909.6,1062080931350254.1,144758541841294.53,576755247562928.2,2.449424644302459e+16,9.053823703516362e+17
29.133959215593645,1242102056701353.2,9.554060580342189e+17,596376732496594.8,1062153928009219.4,148161840439795.72,590357528822301.5,2.5072053008185804e+16,9.266948529395638e+17
29.816638399905518,1242189389697067.2,9.777493045616627e+17,596418664125530.6,1062228608702217.6,151632648369704.53,604231656253849.8,2.5661413043269216e+16,9.484311905512445e+17
30.51297116790363,1242278723360057.0,1.00053692165338e+18,596461556344918.6,1062305000217787.4,155172293394865.7,618383058444781.2,2.626255749768735e+16,9.705997635239301e+17
31.223230591261704,1242370089966310.2,1.023777695901305e+18,596505424651591.6,1062383130155955.4,158782128937078.9,632817272218397.5,2.6875721935004016e+16,9.932091159203715e+17
31.947695203086937,1242463522744655.2,1.0474805855867633e+18,596550284999870.9,1062463026931541.6,162463534553444.9,647539944785001.4,2.750114662500872e+16,1.0162679586477404e+18
32.686649107148675,1242559055881587.0,1.0716547239521788e+18,596596153803890.6,1062544719778292.8,166217916421844.75,662556835935260.1,2.8139076637623972e+16,1.0397851726327337e+18
33.44038208929165,1242656724527036.2,1.0963094225317555e+18,596643047940363.1,1062628238753817.5,170046707834650.47,677873820276853.1,2.8789761938681536e+16,1.0637698120537409e+18
34.20918973107749,1242756564801026.8,1.121454174542074e+18,596690984751774.9,1062713614745272.6,173951369700785.7,693496889515232.9,2.945345748760473e+16,1.0882311076309556e+18
34.993373525699035,1242858613801194.8,1.1470986583335237e+18,596739982049999.8,1062800879475799.6,177933391056231.12,709432154779377.9,3.0130423337034148e+16,1.1131784699753271e+18
35.793240996213015,1242962909611132.2,1.1732527409035177e+18,596790058120305.5,1062890065511657.0,181994289583091.6,725685848993387.4,3.0820924734435836e+16,1.1386214929972622e+18
36.60910581613728,1243069491309551.5,1.1999264814724342e+18,596841231725746.4,1062981206270052.5,186135612137324.4,742264329294823.2,3.1525232225730252e+16,1.1645699573759662e+18
37.44128793246003,1243178398980205.0,1.2271301351232566e+18,596893522111938.0,1063074336027635.8,190358935285239.0,759174079500693.6,3.2243621760982716e+16,1.191033834090368e+18
38.29011369110923,1243289673722587.5,1.25487415650584e+18,596946949012185.6,1063169489929637.8,194665865848872.22,776421712622021.2,3.2976374802195736e+16,1.2180232880125097e+18
39.15591596493141,1243403357663362.2,1.2831692036068314e+18,597001532652974.2,1063266703999653.9,199058041460343.47,794013973427902.2,3.3723778433244576e+16,1.245548681564382e+18
40.03903428423004,1243519493968513.8,1.312026141586155e+18,597057293759805.9,1063366015150026.5,203537131125296.84,811957741060051.9,3.448612547199852e+16,1.273620578439093e+18
40.93981496991464,1243638126856214.0,1.3414560466811146e+18,597114253563372.6,1063467461192852.4,208104835795530.94,830260031698782.2,3.5263714584671148e+16,1.302249747387336e+18
41.85861126931294,1243759301610376.0,1.3714702101790464e+18,597172433806064.2,1063571080851570.1,212762888950921.53,848928001281425.1,3.605685040244325e+16,1.3314471660701025e+18
