t(s),Total solute volume 1,Total retention volume 1,Total 1 volume 1,Total 2 volume 1,Total 3 volume 1,Total 4 volume 1,Total 5 volume 1,Total 6 volume 1
0.1,1360095892163908.8,3176178273173015.0,653029631800972.5,1163052749208134.2,0.0,0.0,0.0,-4.1755110825714755e-98
0.202,2039951528730196.2,4765277347820117.0,979452167235753.4,1744415232359019.5,241964402.02964222,960999821.426949,40590277584.07164,1416626253344.6313
0.30604000000000003,2559637141837294.5,5981175829663047.0,1228971435863954.0,2188811888552756.0,613280135.5969604,2435797123.7589912,103027500213.53471,3649286831571.357
0.41216080000000005,2999345763823907.5,7010967283730654.0,1440090946905140.5,2564818119373566.5,1088756693.382187,4324314240.980797,183011471442.5408,6524029085663.596
0.5204040160000001,3389750905940193.0,7926207392805629.0,1627538129604563.8,2898663660326428.0,1657132978.4345658,6581820338.387783,278638496389.51245,9967819484735.125
0.6308120963200001,3746207109887271.5,8762713611948927.0,1798685237743707.5,3203478582732799.0,2312341452.684342,9184214839.751572,388884573096.7468,13942300455761.338
0.7434283382464002,4077655750346286.0,9541343891191260.0,1957825338649372.5,3486908889244098.0,3050890795.4313617,12117630154.443884,513160783886.33765,18425583646668.53
0.8582969050113283,4389830477109580.0,1.02754749778858e+16,2107711358475618.0,3753857572881379.5,3870788243.8918777,15374151001.393127,651131010530.372,23405193469452.527
0.9754628431115548,4686662426892793.0,1.0974280471038166e+16,2250230773677750.5,4007686250697377.0,4771008044.986892,18949703049.990807,802622169853.256,28874676889299.715
1.094972099973786,4970982980995073.0,1.164437003727987e+16,2386743029600957.0,4250816110264544.5,5751196843.576032,22842882710.463326,967574502921.269,34831747836818.29
1.2168715419732616,5244910058308279.0,1.2290690367163932e+16,2518265013292440.5,4485058238912023.0,6811496512.627118,27054253413.94264,1146011695339.418,41277179205930.26
1.3412089728127268,5510076151439336.0,1.2917056975052442e+16,2645580541634395.0,4711808623353284.0,7952431015.96348,31585896232.803684,1338021802801.8525,48214098495384.84
1.4680331522689813,5767770671703739.0,1.3526486129372822e+16,2769308706162728.5,4932169872591660.0,9174830786.11002,36441109511.59017,1543744504399.3008,55647518470002.445
1.597393815314361,6019032890243475.0,1.4121411561016756e+16,2889948497353933.5,5147030694284510.0,10479780356.065128,41624200862.44968,1763362277012.3667,63584012876602.61
1.729341691620648,6264714910039962.0,1.4703831282480694e+16,3007909039694510.0,5357119743745795.0,11868581076.634455,47140339080.14495,1997094112860.4663,72031485967405.11
1.863928525453061,6505525676519721.0,1.5275410191975894e+16,3123530722714474.5,5563043258556474.0,13342723995.883549,52995446420.69955,2245190949903.7783,80999005064898.98
2.001207095962122,6742062558358817.0,1.5837553695691106e+16,3237100364037849.0,5765312064129164.0,14903869805.233679,59196118948.47918,2507932293183.5566,90496676883333.25
2.1412312378813647,6974834529656228.0,1.6391461749159096e+16,3348862339956087.5,5964361397385257.0,16553833835.681341,65749566942.13147,2785623687162.837,100535555073589.42
2.284055862638992,7204279526780996.0,1.6938169318431274e+16,3459026919058400.0,6160565749044608.0,18294574750.10637,72663569981.2009,3078594810841.2954,111127570591712.08
2.4297369798917723,7430777671329704.0,1.7478577205063386e+16,3567776611036771.5,6354250170918919.0,20128185998.401154,79946443006.51228,3387198038357.088,122285479110622.9
2.578331719489608,7654661499829493.0,1.801347589440864e+16,3675271078324702.0,6545699023595769.0,22056889377.351437,87607010740.4988,3711807354179.9595,134022821404382.97
2.7298983538794,7876223986991144.0,1.8543564261604956e+16,3781650988342028.0,6735162837329868.0,24083030221.876316,95654588587.18794,4052817543127.375,146353893779975.25
2.884496320956988,8095724916288638.0,1.906946442626894e+16,3887041072233299.0,6922863759690716.0,26209073881.011974,104098968635.10054,4410643596802.122,159293726416975.16
3.0421862473761276,8313395994726812.0,1.959173368103739e+16,3991552580646888.5,7108999929332728.0,28437603220.831287,112950409739.07048,4785720293015.762,172858068025002.66
3.2030299723236504,8529445000869176.0,2.0110874167782496e+16,4095285275348410.5,7293749023081159.0,30771316959.837486,122219630908.59262,5178501915436.827,187063375620462.6
3.3670905717701234,8744059179809434.0,2.06273407995674e+16,4198329059265487.5,7477271159060168.0,33213028688.30024,131917807412.73993,5589462088441.797,201926808507763.84
3.5344323832055258,8957408045175653.0,2.1141547801465028e+16,4300765321828072.5,7659711292759027.0,35765666456.802795,142056569145.94736,6019093707841.828,217466225758822.84
3.7051210308696363,9169645709582168.0,2.1653874153210384e+16,4402668057900023.5,7841201209861891.0,38432272844.47769,152648000899.0825,6467908952405.455,233700186640140.47
3.879223451487029,9380912836656290.0,2.2164668150716132e+16,4504104805015487.0,8021861195476252.0,41216005436.44726,163704644255.8509,6936439364305.171,250647953554109.06
4.0568079205167695,9591338286812210.0,2.2674251254640172e+16,4605137433572637.0,8201801441476932.0,44120137654.5265,175239500892.3298,7425235989065.076,268329497150783.3
4.237944078927105,9801040513244944.0,2.31829213576006e+16,4705822817099225.0,8381123240256482.0,47148059896.467636,187266037102.01514,7934869567477.952,286765503335470.56
4.422702960505647,1.0010128752724762e+16,2.3690955573918904e+16,4806213403994672.0,8559920003004324.0,50303280947.77596,199798189403.49432,8465930773433.181,305977381951343.4
4.61115701971576,1.0218704046677578e+16,2.4198612634575464e+16,4906357707786601.0,8738278132859137.0,53589429637.00162,212850371115.19965,9019030492756.12,325987276958605.0
4.803380160110075,1.042686012101495e+16,2.4706134953697828e+16,5006300729567932.0,8916277777274046.0,57010256710.872665,226437479803.34766,9594800139078.371,346818077965310.3
4.9994477633122765,1.0634684147708838e+16,2.5213750420161252e+16,5106084323655687.0,9093993479259066.0,60569636909.99159,240574905526.51572,10193892003493.28,368493432991759.44
5.199436718578522,1.084225740681528e+16,2.5721673957879924e+16,5205747515451708.0,9271494743494578.0,64271571229.33432,255278539814.22995,10816979635342.16,391037762371988.25
5.403425452950093,1.1049655864255634e+16,2.6230108890458356e+16,5305326778855636.0,9448846530407046.0,68120189350.63357,270564785328.2862,11464758251957.027,414476273713381.06
5.611493962009095,1.1256950677960548e+16,2.6739248139572476e+16,5404856279282406.0,9626109688985800.0,72119752236.05821,286450566164.71704,12137945175576.744,438834977849732.75
5.823723841249277,1.1464208642813418e+16,2.7249275281398828e+16,5504368087295197.0,9803341337265764.0,76274654874.50606,302953338761.9412,12837280295975.47,464140705734819.4
6.040198318074262,1.1671492583080964e+16,2.7760365481334224e+16,5603892367024995.0,9980595197904868.0,80589429173.40816,320091103386.8746,13563526557607.605,490421126233230.0
6.261002284435747,1.187886169959766e+16,2.8272686323941116e+16,5703457542866139.0,1.015792189507058e+16,85068746990.24687,337882416175.98895,14317470470294.586,517704764773293.56
6.486222330124463,1.208637187781228e+16,2.8786398552352096e+16,5803090447380157.0,1.0335369217858338e+16,89717423299.09477,356346401712.65283,15099922642662.605,546021022833620.9
6.715946776726952,1.2294075961853096e+16,2.930165672915289e+16,5902816452884080.0,1.0512982354651914e+16,94540419488.38657,375502766125.7509,15911718337696.045,575400198240484.1
6.950265712261491,1.2502023998983644e+16,2.981860982893503e+16,6002659588822282.0,1.069080410216371e+16,99542846786.92412,395371810697.6214,16753718049900.477,605873506257982.4
7.18927102650672,1.2710263458171036e+16,3.0337401771194556e+16,6102642646708666.0,1.086887505233837e+16,104729969815.75801,415974445971.9924,17626808103680.914,637473101457008.9
7.433056447036854,1.2918839425946948e+16,3.0858171900993644e+16,6202787274166512.0,1.1047233759838464e+16,110107210264.15929,437332206354.7865,18531901272634.117,670232100352446.5
7.681717575977592,1.3127794782289418e+16,3.138105542374674e+16,6303114059375384.0,1.1225916892445512e+16,115680150688.35847,459467265202.5739,19469937419534.59,704184604800985.1
7.935351927497144,1.3337170358872958e+16,3.1906183799609588e+16,6403642607052620.0,1.140495936638383e+16,121454538432.14972,482402450395.06415,20441884156861.91,739365726154476.5
8.194058966047088,1.3547005081714466e+16,3.2433685102201556e+16,6504391606942589.0,1.1584394468300784e+16,127436289668.79922,506161260389.42596,21448737527777.543,775811610165869.6
8.45794014536803,1.3757336099971478e+16,3.2963684345762652e+16,6605378895657261.0,1.1764253965405382e+16,133631493564.00595,530767880755.42487,22491522707508.496,813559462646709.5
8.72709894827539,1.39681989024189e+16,3.349630378430993e+16,6706621512600774.0,1.1944568205070648e+16,140046416559.92242,556247201191.4175,23571294725141.527,852647575876757.2
9.0016409272409,1.4179627422934378e+16,3.403166318590129e+16,6808135750616661.0,1.2125366205036852e+16,146687506780.46835,582624833022.1249,24689139205867.52,893115355767747.0
9.281673745785717,1.4391654136155116e+16,3.456988008472513e+16,6909937201915956.0,1.2306675735210092e+16,153561398558.37244,609927127179.9175,25846173133751.008,935003349784459.8
9.567307220701432,1.4604310144324416e+16,3.511107001339917e+16,7012040799775390.0,1.2488523391927018e+16,160674917084.5437,638181192671.9838,27043545635127.355,978353275627451.1
9.85865336511546,1.4817625256223504e+16,3.5655346717574484e+16,7114460856435227.0,1.2670934665451604e+16,168035083180.52548,667414915536.4146,28282438782755.867,1023208050682641.1
10.155826432417769,1.503162805897698e+16,3.620282235469161e+16,7217211097575636.0,1.2853934001377754e+16,175649118194.916,697656978290.6682,29564068420879.184,1069611822243825.6
10.458942961066125,1.5246345983427866e+16,3.675360767852159e+16,7320304693705468.0,1.3037544856533126e+16,183524449024.75052,728936879876.3962,30889685011358.125,1117609998514890.9
10.768121820287448,1.546180536369856e+16,3.730781221093918e+16,7423754288759674.0,1.3221789749911372e+16,191668713262.9393,761284956104.98,32260574501067.324,1167249280399110.2
11.083484256693197,1.5678031491484002e+16,3.786554440221014e+16,7527572026167206.0,1.3406690309099648e+16,200089764472.94348,794732400608.4463,33678059210752.81,1218577694083476.2
11.405153941827061,1.5895048665562996e+16,3.842691178093909e+16,7631769572623279.0,1.3592267312616788e+16,208795677591.93542,829311286300.7653,35143498745563.39,1271644624426525.8
11.733257020663602,1.611288023696033e+16,3.899202109469425e+16,7736358139773189.0,1.3778540728532936e+16,217794754463.7681,865054587354.7126,36658290927479.55,1326500849158414.0
12.067922161076874,1.633154865014623e+16,3.956097844222347e+16,7841348503993648.0,1.3965529749700024e+16,227095529503.11227,901996201699.804,38223872749872.23,1383198573902529.5
12.409280604298411,1.6551075480618132e+16,4.013388939807628e+16,7946751024437133.0,1.4153252825889022e+16,236706775492.1875,940170974046.8444,39841721354431.66,1441791468028064.8
12.75746621638438,1.6771481469175348e+16,4.071085913036571e+16,8052575659488288.0,1.4341727693099052e+16,246637509511.528,979614719444.9192,41513355030711.516,1502334701343351.8
13.112615540712067,1.6992786553163872e+16,4.1291992512330024e+16,8158831981765721.0,1.453097140027567e+16,256896999006.27228,1020364247376.6864,43240334238542.42,1564884981639894.0
13.474867851526309,1.7215009894941816e+16,4.187739422828871e+16,8265529191789257.0,1.4721000333652438e+16,267494767989.47412,1062457386397.9332,45024262653567.08,1629500593097255.0
13.844365208556836,1.7438169907791398e+16,4.2467168874529144e+16,8372676130421076.0,1.4911830238908662e+16,278440603383.96765,1105933009327.4807,46866788236157.93,1696241435559095.0
14.221252512727972,1.7662284279480016e+16,4.3061421055611256e+16,8480281290178404.0,1.5103476241317634e+16,289744561504.3053,1150831058993.5015,48769604323976.586,1765169064690691.0
14.605677562982532,1.7887369993655998e+16,4.366025547653029e+16,8588352825506134.0,1.5295952864042002e+16,301416974680.3222,1197192574542.3538,50734450748436.73,1836346733028451.8
14.997791114242183,1.811344334924449e+16,4.4263777031138e+16,8696898562089711.0,1.5489274044720274e+16,313468458023.85455,1245059718316.0945,52763114975331.66,1909839431931822.0
15.397746936527026,1.834051997799631e+16,4.4872090887187784e+16,8805926005280743.0,1.5683453150473032e+16,325909916340.1512,1294475803304.7092,54857433269888.805,1985713934448182.5
15.805701875257567,1.856861486032672e+16,4.548530256833569e+16,8915442347701913.0,1.5878502991447042e+16,338752551185.5134,1345485321179.159,57019291886509.03,2064038839101119.0
16.221815912762718,1.8797742339570264e+16,4.610351803340129e+16,9025454476091064.0,1.6074435833005086e+16,352007868072.65735,1398133970911.2734,59250628283448.37,2144884614612487.5
16.64625223101797,1.9027916134765704e+16,4.672684375316734e+16,9135968977439848.0,1.627126340665858e+16,365687683825.3035,1452468687986.3354,61553432362697.18,2228323645568703.8
17.079177275638333,1.925914935207686e+16,4.735538678497281e+16,9246992144477166.0,1.6468996919833838e+16,379804134083.471,1508537674214.326,63929747735306.69,2314430279041360.0
17.5207608211511,1.9491454494944244e+16,4.798925484533472e+16,9358529980543436.0,1.6667647064553116e+16,394369680960.9001,1566390428145.4487,66381673012407.914,2403280872172382.5
17.97117603757412,1.972484347305707e+16,4.862855638081458e+16,9470588203898166.0,1.6867224025106598e+16,409397120856.03815,1626077776095.636,68911363122166.07,2494953840733649.5
18.430599558325603,1.9959327610225216e+16,4.9273400637329224e+16,9583172251499816.0,1.7067737484784232e+16,424899592417.9519,1687651903787.4602,71521030652902.9,2589529708670816.0
18.899211549492115,2.0194917651227696e+16,4.992389772809005e+16,9696287282293890.0,1.7269196631731648e+16,440890584668.5119,1751166388611.7742,74212947222617.0,2687091158640921.0
19.37719578048196,2.0431623767705136e+16,5.058015870034261e+16,9809938180041912.0,1.7471610163989354e+16,457383945282.1429,1816676232515.2798,76989444875124.03,2787723083553190.5
19.864739696091597,2.0669455563161596e+16,5.124229560106384e+16,9924129555723246.0,1.7674986293769462e+16,474393889024.38196,1884237895518.895,79852917503026.83,2891512639122010.5
20.36203449001343,2.0908422077133424e+16,5.191042154176631e+16,1.0038865749536756e+16,1.7879332751021224e+16,491935006350.4638,1953909329871.7468,82805822297725.52,2998549297440920.0
20.869275179813698,2.114853178858306e+16,5.25846507625453e+16,1.0154150832529936e+16,1.808465678633243e+16,510022272165.03827,2025750014845.3472,85850681226658.9,3108924901586217.5
21.38666068340997,2.1389792618565744e+16,5.326509869549887e+16,1.0269988607879622e+16,1.8290965173210396e+16,528671054744.14996,2099820992172.169,88990082537966.22,3222733721258224.0
21.91439389707817,2.1632211932220588e+16,5.395188202764059e+16,1.0386382611847884e+16,1.8498264209784244e+16,547897124820.46704,2176184902132.803,92226682292742.72,3340072509468202.5
22.452681775019734,2.187579654012873e+16,5.464511876341785e+16,1.0503336114434066e+16,1.870655971996655e+16,567716664832.7314,2254906020295.4116,95563205925056.25,3461040560278293.0
23.00173541052013,2.2120552699082444e+16,5.534492828694183e+16,1.062085211974409e+16,1.8915857054110516e+16,588146278340.3265,2336050294911.09,99002449829876.92,3585739767601575.5
23.561770118730532,2.236648611230417e+16,5.605143142403026e+16,1.0738933366095594e+16,1.9126161089197856e+16,609202999603.7601,2419685384968.2773,102547282979059.92,3714274685069031.0
24.133005521105144,2.2613601929153372e+16,5.6764750504155976e+16,1.0857582325877308e+16,1.9337476228587896e+16,630904303331.8226,2505880698909.2905,106200648565512.69,3846752586969491.5
24.715665631527248,2.286190474435793e+16,5.748500942239092e+16,1.09768012051799e+16,1.9549806401360264e+16,653268114596.0608,2594707434011.486,109965565675658.7,3983283530268510.5
25.309978944157795,2.311139859680243e+16,5.821233370143229e+16,1.109659194321414e+16,1.97631550612787e+16,676312818913.1835,2686238616435.4683,113845130990303.14,4123980417711378.0
25.91617852304095,2.3362086967907096e+16,5.894685055378857e+16,1.1216956211532744e+16,1.997752518540502e+16,700057272495.8428,2780549141942.2563,117842520513983.38,4268959062015149.0
26.53450209350177,2.3613972779628004e+16,5.968868894420374e+16,1.1337895413070048e+16,2.0192919272388896e+16,724520812672.252,2877715817280.9536,121960991332879.73,4418338251154020.5
27.165192135371807,2.3867058392107612e+16,6.043797965239429e+16,1.1459410681014132e+16,2.0409339340458776e+16,749723268474.9086,2977817402248.4414,126203883401346.06,4572239814741764.0
27.808495978079243,2.412134560100568e+16,6.119485533616551e+16,1.1581502877524966e+16,2.062678692513948e+16,775684971398.6997,3080934652421.6387,130574621357095.55,4730788691514508.0
28.464665897640828,2.4376835634536612e+16,6.195945059497835e+16,1.1704172592312326e+16,2.084526307671879e+16,802426766328.468,3187150362563.146,135076716365073.61,4894112997916579.0
29.133959215593645,2.463352915024108e+16,6.2731902034028264e+16,1.1827420141085484e+16,2.1064768357486924e+16,829970022636.0992,3296549410700.2676,139713767990026.16,5062344097791269.0
29.816638399905518,2.4891426231517724e+16,6.351234832890081e+16,1.1951245563888016e+16,2.1285302838770484e+16,858336645447.0692,3409218802877.0996,144489466097753.16,5235616673178474.0
30.51297116790363,2.5150526383939532e+16,6.430093029086128e+16,1.2075648623329206e+16,2.150686609778228e+16,887549087076.2504,3525247718579.1836,149407592785029.12,5414068796219602.0
31.223230591261704,2.5410828531380856e+16,6.509779093283936e+16,1.2200628802724516e+16,2.1729457214310184e+16,917630358632.7601,3644727556829.527,154472024338140.88,5597842002170219.0
31.947695203086937,2.5672331011978284e+16,6.590307553616166e+16,1.2326185304156098e+16,2.1953074767262292e+16,948604041793.4188,3767751982954.4907,159686733219993.88,5787081363520250.0
32.686649107148675,2.5935031573949356e+16,6.6716931718090024e+16,1.2452317046465418e+16,2.2177716831092292e+16,980494300744.3907,3894416976017.8467,165055790085702.12,5981935565220500.0
33.44038208929165,2.619892737129353e+16,6.7539509500216136e+16,1.2579022663188924e+16,2.240338097212211e+16,1013325894290.3848,4024820876920.44,170583365826576.25,6182556981013799.0
34.20918973107749,2.6464014959396068e+16,6.837096137776438e+16,1.2706300500447668e+16,2.2630064244784044e+16,1047124188130.7738,4159064437162.9087,176273733642386.56,6389101750868904.0
34.993373525699035,2.6730290290561656e+16,6.921144238985494e+16,1.2834148614802256e+16,2.285776318780016e+16,1081915167301.7948,4297250868268.2627,182131271141786.12,6601729859513605.0
35.793240996213015,2.6997748709495684e+16,7.006111019077421e+16,1.296256477108398e+16,2.3086473820319136e+16,1117725448783.965,4439485891860.83,188160462470736.8,6820605216063960.0
36.60910581613728,2.7266384948760216e+16,7.0920125122301224e+16,1.3091546440212462e+16,2.331619163803007e+16,1154582294273.7092,4585877790397.38,194365900468777.62,7045895734745042.0
37.44128793246003,2.7536193124223484e+16,7.178865028713904e+16,1.3221090797011022e+16,2.3546911609271332e+16,1192513623118.0962,4736537458546.562,200752288852953.03,7277773416698612.0
38.29011369110923,2.7807166730527252e+16,7.266685162349424e+16,1.3351194718030572e+16,2.3778628171154616e+16,1231548025411.478,4891578455211.259,207324444429207.9,7516414432871912.0
39.15591596493141,2.8079298636593844e+16,7.35548979808526e+16,1.3481854779392084e+16,2.401133522572293e+16,1271714775252.7693,5051117056189.165,214087299331025.3,7761999207981340.0
40.03903428423004,2.8352581081194268e+16,7.445296119699506e+16,1.3613067254658806e+16,2.4245026136160548e+16,1313043844161.922,5215272307466.027,221045903285088.44,8014712505544709.0
40.93981496991464,2.8627005668600636e+16,7.536121617629677e+16,1.3744828112748992e+16,2.4479693723075652e+16,1355565914654.148,5384166079135.445,228205425903707.12,8274743513973947.0
