t(s),Total solute volume 1,Total retention volume 1,Total 1 volume 1,Total 2 volume 1,Total 3 volume 1,Total 4 volume 1,Total 5 volume 1,Total 6 volume 1
0.1,878184692305091.0,1002349173156223.1,60489917771387.09,63674563079745.664,0.0,0.0,0.0,0.0
0.202,1323168799228467.0,1510273425846793.8,91140705007771.2,95939039184602.27,52205405.12783589,92358746.47606267,1183640324.81822,23554221477.163418
0.30604000000000003,1662048106588392.0,1897104338735989.8,114482926367244.03,120510171187258.12,132460112.31632897,234340702.68304008,3003241095.710008,59764551185.22057
0.41216080000000005,1948680081286922.2,2224311549681022.2,134226318349571.14,141293004265533.0,235287380.24935585,416256730.89813936,5334626796.324745,106159608089.09694
0.5204040160000001,2203223291823769.0,2514902641704134.0,151759415928145.56,159749176363619.72,358256948.3129009,633807356.9808536,8122696230.89705,161642828068.46515
0.6308120963200001,2435720264456974.5,2780339409108553.5,167773954674295.3,176606841235019.38,500065382.6649575,884686623.8362134,11337896775.07463,225626093481.30515
0.7434283382464002,2652007521623392.0,3027283231456957.5,182671957950980.7,192289187786365.72,659967594.8247464,1167576366.7116632,14963335138.24145,297773217113.63306
0.8582969050113283,2855823897086884.5,3260001367155917.5,196710958996340.84,207067307748633.56,837543301.50061,1481733047.4393053,18989482310.494297,377894565397.32715
0.9754628431115548,3049731396605905.5,3481417957620043.5,210067430389961.38,221126964549432.44,1032581967.6045647,1826784202.3039873,23411564882.596443,465895143694.5854
1.094972099973786,3235574791571928.5,3693638571412279.5,222868441153868.44,234601917082759.22,1245019092.806204,2202615723.9293027,28228120476.455338,561745848433.8733
1.2168715419732616,3414733919264715.5,3898238158395972.0,235209035353946.16,247592213251146.9,1474897929.9463603,2609304135.7343855,33440129790.588017,665466194314.6855
1.3412089728127268,3588272483924533.0,4096430877802744.0,247162481612062.97,260174979089449.94,1722345063.7155678,3047073387.1660213,39050462898.25371,777113295345.4966
1.4680331522689813,3757030878099260.5,4289176035602176.0,258786666699252.28,272411148965014.66,1987554107.692972,3516266011.4621615,45063509612.41876,896774508920.4347
1.597393815314361,3921686756225839.5,4477247217068150.5,270128267882384.56,284349857588158.5,2270774433.0752788,4017323185.188849,51484923933.722404,1024562350210.0795
1.729341691620648,4082796058722055.5,4661279107354517.0,281225578689588.8,296031414547201.9,2572303161.770106,4550770562.901194,58321442511.027145,1160610879440.7688
1.863928525453061,4240821673491160.5,4841800202614958.0,292110483132849.8,307489382469041.0,2892479358.9375668,5117208002.940142,65580752969.81462,1305073081568.4211
2.001207095962122,4396153996799782.5,5019256275896452.0,302809871954304.44,318752067827328.25,3231679755.642036,5717302000.212054,73271396932.60078,1458118936339.7566
2.1412312378813647,4549126022649408.0,5194027598444616.0,313346681991702.06,329843615027976.5,3590315565.7128797,6351780054.779169,81402697848.22237,1619933982061.2744
2.284055862638992,4700024638264577.0,5366441831099438.0,323740674218794.06,340784825411460.25,3968830104.217546,7021426458.616846,89984706995.99538,1790718241056.0327
2.4297369798917723,4849099228019729.0,5536783843862077.0,334009026389258.94,351593781097993.6,4367697005.954654,7727079143.891932,99028163094.05809,1970685415849.4492
2.578331719489608,4996568328941883.0,5705303311772604.0,344166791471946.25,362286327558257.1,4787418901.888578,8469627341.405088,108544462290.57402,2160062291978.2373
2.7298983538794,5142624850266532.0,5872220671985487.0,354227257177190.0,372876452067887.6,5228526451.381297,9250009868.49007,118545636221.89397,2359088301334.952
2.884496320956988,5287440217253170.0,6037731853629493.0,364202231387829.9,383376584171813.8,5691577656.448207,10069213929.748013,129044340016.15073,2568015685091.817
3.0421862473761276,5431167700087081.0,6202012075211805.0,374102271446460.0,393797837018408.9,6177157396.777042,10928274239.050797,140053827591.87802,2787107400620.346
3.2030299723236504,5573945109875468.0,6365218924569724.0,383936869871921.6,404150202890649.6,6685877157.995951,11828272621.677126,151587966671.8572,3016639815237.6807
3.3670905717701234,5715897009066574.0,6527494879822794.0,393714606604553.7,414442713441648.5,7218374902.238678,12770337730.27165,163661221772.6756,3256900775625.5474
3.5344323832055258,5857136534227767.0,6688969390352047.0,403443274562775.5,424683571867835.8,7775315070.697021,13755645063.115759,176288657772.54443,3508190075757.927
3.7051210308696363,5997766912690919.0,6849760607932606.0,413129984110595.0,434880262876415.56,8357388693.335839,14785417158.253296,189485942399.19055,3770819506415.6265
3.879223451487029,6137882733225311.0,7009976837160803.0,422781250582354.56,445039644818071.8,8965313591.71626,15860923952.338913,203269350828.7686,4045112946700.46
4.0568079205167695,6277571017683010.0,7169717758752438.0,432403068098345.4,455168027388803.75,9599834663.075556,16983483283.242651,217655772127.12967,4331406492212.588
4.237944078927105,6416912130345588.0,7329075467629441.0,442000972201188.0,465271237563951.5,10261724236.247608,18154461519.751705,232662717319.9259,4630048615642.283
4.422702960505647,6555980553963728.0,7488135358882289.0,451580093309927.56,475354675866517.1,10951782491.907415,19375274305.07264,248308328921.15955,4941400356384.811
4.61115701971576,6694845555564152.0,7646976887941833.0,461145202581238.25,485423364642852.5,11670837941.121355,20647387403.485332,264611391783.69824,5265835536462.85
4.803380160110075,6833571760530383.0,7805674226081757.0,470700751452476.25,495481989687551.94,12419747957.373682,21972317641.606388,281591345162.28156,5603741000577.49
4.9994477633122765,6972219649908343.0,7964296828314061.0,480250905896390.5,505534936301596.44,13199399358.195414,23351633937.408012,299268295901.17786,5955516878539.97
5.199436718578522,7110845993094959.0,8122909927554105.0,489799576225004.06,515586320665332.0,14010709033.29229,24786958411.50103,317663032676.125,6321576868683.655
5.403425452950093,7249504225862354.0,8281574966412933.0,499350443128146.75,525640017247861.2,14854624616.69658,26279967576.305866,336797041234.4556,6702348541139.802
5.611493962009095,7388244781909931.0,8440349975967302.0,508906980510979.7,535699682846918.4,15732125200.984636,27832393599.644142,356692520588.9907,7098273660093.52
5.823723841249277,7527115384728839.0,8599289909249921.0,518472475597800.5,545768777751087.75,16644222092.027414,29446025640.042454,377372400130.9654,7509808524328.13
6.040198318074262,7666161305424561.0,8758446935903349.0,528050046691032.9,555850584433751.06,17591959603.09829,31122711251.665592,398860357635.3249,7937424325527.788
6.261002284435747,7805425591220615.0,8917870703388353.0,537642658910701.0,565948224121218.6,18576415887.459984,32864357857.32846,421180838138.4848,8381607523941.846
6.486222330124463,7944949268613107.0,9077608569276704.0,547253138187842.06,576064671522852.2,19598703808.80566,34672934288.47846,444359073674.38696,8842860241129.314
6.715946776726952,8084771524526834.0,9237705808453366.0,556884183742658.3,586202767966168.9,20659971849.144775,36550472391.426704,468421103859.5691,9321700669598.434
6.950265712261491,8224929868314329.0,9398205798470652.0,566538379243112.5,596365233142899.9,21761405053.908295,38499068699.42756,493393797322.14124,9818663499239.66
7.18927102650672,8365460277016233.0,9559150185814856.0,576218202810550.8,606554675641396.4,22904226014.20917,40520886170.49452,519304873973.2218,10334300360523.537
7.433056447036854,8506397325949735.0,9720579035444134.0,585926036014724.1,616773602415203.0,24089695886.332428,42618155991.08218,546182928122.5007,10869180284496.348
7.681717575977592,8647774306397556.0,9882530965621176.0,595664171980274.9,627024427316340.0,25319115448.652325,44793179445.98784,574057452442.4504,11423890179663.467
7.935351927497144,8789623331923194.0,1.0045043269781652e+16,605434822709795.5,637309478803907.4,26593826196.28429,47048329855.01107,602958862788.1031,11999035325898.512
8.194058966047088,8931975434629593.0,1.0208152026942794e+16,615240125714194.5,647631006923504.0,27915211473.87305,49386054577.08855,632918523881.5713,12595239885559.926
8.45794014536803,9074860652502796.0,1.0371892201954662e+16,625082150028976.9,657991189640276.4,29284697647.01147,51808877082.77285,663968775872.447,13213147432037.742
8.72709894827539,9218308108832122.0,1.0536297736726492e+16,634962901684763.1,668392138597430.1,30703755312.858524,54319399096.06569,696142961787.0416,13853421495987.586
9.0016409272409,9362346084571528.0,1.0701401633414818e+16,644884328691569.6,678835904362920.2,32173900550.60252,56920302806.74693,729475455881.0679,14516746129542.781
9.281673745785717,9507002084396838.0,1.0867236030435928e+16,654848325588890.9,689324481219091.6,33696696212.481068,59614353154.45728,764001692911.9196,15203826488826.043
9.567307220701432,9652302897121476.0,1.1033832272058808e+16,664856737607167.9,699859811543238.0,35273753256.1318,62404400185.90747,799758198348.1196,15915389435110.07
9.85865336511546,9798274651052100.0,1.1201220972242226e+16,674911364480706.6,710443789821256.1,36906732119.1103,65293381486.6888,836782619534.8344,16652184155003.732
10.155826432417769,9944942864795888.0,1.1369432073301536e+16,685013963947343.0,721078266331554.4,38597344136.46132,68284324689.25961,875113757835.651,17414982800065.031
10.458942961066125,1.0092332493972446e+16,1.153849489992149e+16,695166254965957.0,731765050531976.6,40347353002.29073,71380350058.77794,914791601772.0264,18204581146266.785
10.768121820287448,1.0240467974229774e+16,1.1708438208972394e+16,705369920679459.5,742505914178779.0,42158576276.32987,74584673158.53836,955857361182.8927,19021799273763.88
11.083484256693197,1.0389373260919682e+16,1.1879290235535082e+16,715626611147663.0,753302594203364.8,44032886936.53763,77900607596.86111,998353502428.1837,19867482267432.258
11.405153941827061,1.0539071865747996e+16,1.2051078735495584e+16,725937945871756.0,764156795369685.2,45972214978.8314,81331567857.36674,1042323784660.9746,20742500938673.934
11.733257020663602,1.0689586890680046e+16,1.2223831025029912e+16,736305516129744.2,775070192732620.8,47978549065.08587,84881072214.64726,1087813297194.0707,21647752569000.19
12.067922161076874,1.084094105935269e+16,1.239757401726625e+16,746730887140122.4,786044433915576.2,50053938220.585,88552745737.43584,1134868497987.946,22584161675928.516
12.409280604298411,1.0993156746216178e+16,1.2572334256380838e+16,757215600069204.5,797081141223485.2,52200493582.15709,92350323381.44672,1183537253287.8894,23552680801748.215
12.75746621638438,1.1146256003607672e+16,1.2748137949356952e+16,767761173895938.0,808181913605809.0,54420390198.26618,96277653174.14313,1233868878439.2717,24554291325729.53
13.112615540712067,1.1300260586935328e+16,1.292501099561317e+16,778369107146621.0,819348328482569.5,56715868882.38296,100338699493.76982,1285914179910.8875,25590004300372.555
13.474867851526309,1.145519197813558e+16,1.3102979014686806e+16,789040879510640.9,830581943445166.5,59089238120.99564,104537546445.05972,1339725498557.2625,26660861312310.01
13.844365208556836,1.1611071407549182e+16,1.3282067372139032e+16,799777953347315.4,841884297842545.8,61542876037.66972,108878401334.11038,1395356754151.9053,27767935368500.703
14.221252512727972,1.1767919874347288e+16,1.3462301203832628e+16,810581775092855.1,853256914262228.8,64079232414.61238,113365598244.99757,1452863491224.3745,28912331808367.867
14.605677562982532,1.1925758165626484e+16,1.3643705438718248e+16,821453776575641.1,864701299914847.2,66700830773.23395,118003601720.77711,1512302926235.2092,30095189242558.812
14.997791114242183,1.2084606874279806e+16,1.3826304820253108e+16,832395376247192.8,876218947929904.9,69410270515.25078,122797010551.60283,1573733996123.579,31317680519020.992
15.397746936527026,1.224448641574163e+16,1.4010123926563278e+16,843407980335556.0,887811338569902.5,72210229125.91878,127750561672.76842,1637217408263.7568,32581013717110.477
15.805701875257567,1.2405417043693618e+16,1.4195187189450854e+16,854492983927156.2,899479940369134.6,75103464441.0253,132869134175.56215,1702815691867.3313,33886433170470.223
16.221815912762718,1.2567418864812822e+16,1.4381518912339216e+16,865651771982646.2,911226211203032.1,78092816979.32182,138157753433.90497,1770593250869.2856,35235220519433.53
16.64625223101797,1.2730511852634214e+16,1.4569143287239074e+16,876885720291765.1,923051599293288.8,81181212342.11925,143621595349.82187,1840616418337.0266,36628695793732.555
17.079177275638333,1.2894715860594184e+16,1.4758084410812724e+16,888196196371787.0,934957544153595.2,84371663681.81947,149265990720.88144,1912953512442.515,38068218526309.52
17.5207608211511,1.3060050634314928e+16,1.4948366299606054e+16,899584560313675.8,946945477480370.1,87667274241.19942,155096429732.8223,1987674894038.7659,39555188899051.41
17.97117603757412,1.3226535823185658e+16,1.5140012904511644e+16,911052165579804.9,959016823992452.8,91071239965.31554,161118566580.6668,2064853025882.9944,41091048921290.02
18.430599558325603,1.3394190991289852e+16,1.5333048124521842e+16,922600359756641.8,971173002223426.2,94586852187.93962,167338224221.70947,2144562533549.8389,42677283641929.06
18.899211549492115,1.3563035627725294e+16,1.5527495819824578e+16,934230485265581.9,983415425269877.2,98217500394.4921,173761399263.85056,2226880268079.1304,44315422396086.086
19.37719578048196,1.3733089156357858e+16,1.5723379824290888e+16,945943880034812.2,995745501498622.6,101966675063.48044,180394266992.83447,2311885370403.8145,46007040087152.23
19.864739696091597,1.3904370945047726e+16,1.5920723957398164e+16,957741878134811.8,1008164635215669.4,105837970588.50146,187243186542.0351,2399659337604.687,47753758505201.58
20.36203449001343,1.4076900314382306e+16,1.6119552035629832e+16,969625810379873.4,1020674227299418.6,109835088282.91516,194314706208.51547,2490286091039.7383,49557247682697.305
20.869275179813698,1.4250696545947262e+16,1.6319887883388718e+16,981597004897833.1,1033275675800365.5,113961839469.34698,201615568919.17688,2583852046396.995,51419227288468.016
21.38666068340997,1.4425778890163876e+16,1.6521755343456322e+16,993656787669903.2,1045970376509375.8,118222148656.2152,209152717850.8913,2680446185720.719,53341468060946.23
21.91439389707817,1.4602166573718312e+16,1.672517828702919e+16,1005806483042400.5,1058759723496344.2,122620056803.53522,216933302208.59247,2780160131461.9487,55325793281681.93
22.452681775019734,1.4779878806604634e+16,1.6930180623357988e+16,1018047414211884.1,1071645109620871.9,127159724680.28827,224964683165.38336,2883088222605.3125,57374080290162.07
23.00173541052013,1.4958934788801442e+16,1.7136786309013052e+16,1030380903685039.8,1084627927016368.4,131845436315.68639,233254439968.78003,2989327592925.0083,59488262040990.63
23.561770118730532,1.5139353716598536e+16,1.7345019356796434e+16,1042808273714464.9,1097709567548773.0,136681602546.70348,241810376217.284,3098978251423.6006,61670328704492.3
24.133005521105144,1.5321154788586738e+16,1.7554903844316656e+16,1055330846711254.4,1110891423250872.2,141672764664.27377,250640526311.5404,3212143165008.128,63922329311824.97
24.715665631527248,1.5504357211321548e+16,1.7766463922238988e+16,1067949945635113.4,1124174886732936.5,146823598160.58423,259753162084.3677,3328928343458.5947,66246373445694.0
25.309978944157795,1.568898020466689e+16,1.7979723822220248e+16,1080666894362440.8,1137561351570194.0,152138916579.91022,269156799613.9991,3449442926744.331,68644632977772.12
25.91617852304095,1.5875043006822326e+16,1.8194707864532616e+16,1093483018032596.6,1151052212667323.2,157623675475.45377,278860206224.8835,3573799274743.9146,71119343853930.89
26.53450209350177,1.6062564879032198e+16,1.8411440465376372e+16,1106399643372293.8,1164648866599926.8,163282976474.6392,288872407680.39575,3702113059424.5215,73672807928392.86
27.165192135371807,1.6251565109972138e+16,1.862994614387687e+16,1119418098997715.6,1178352711932547.8,169122071455.31747,299202695571.7843,3834503359536.0596,76307394847904.95
27.808495978079243,1.6442063019801166e+16,1.8850249528753944e+16,1132539715693648.5,1192165149512492.8,175146366835.28363,309860634907.62744,3971092757874.746,79025543987021.06
28.464665897640828,1.6634077963864798e+16,1.90723753646483e+16,1145765826668540.0,1206087582738341.8,181361427977.48785,320856071907.9949,4112007441170.101,81829766435558.98
29.133959215593645,1.6827629336026676e+16,1.929634851807979e+16,1159097767783988.0,1220121417801499.5,187772983713.22888,332199142007.37537,4257377302647.19,84722647039270.66
29.816638399905518,1.7022736571600584e+16,1.9522193983007132e+16,1172536877756707.0,1234268063898793.2,194386930985.54105,343900278070.2765,4407336047314.246,87706846494711.11
30.51297116790363,1.721941914984761e+16,1.9749936885949416e+16,1186084498330532.8,1248528933413530.8,201209339614.85153,355970218823.185,4562021300022.99,90785103499254.81
31.223230591261704,1.7417696595995148e+16,1.9979602490620624e+16,1199741974415468.0,1262905442061890.8,208246457188.84875,368420017506.3067,4721574716345.226,93960236957116.5
31.947695203086937,1.7617588482726144e+16,2.021121620202064e+16,1213510654190303.0,1277399009000914.8,215504714078.28842,381261050748.1566,4886142096305.335,97235148242168.08
32.686649107148675,1.7819114431078716e+16,2.0444803569912424e+16,1227391889164545.5,1292011056893714.5,222990728580.25775,394505027665.68414,5055873501002.916,100612823518227.36
33.44038208929165,1.802229411068559e+16,2.0680390291608316e+16,1241387034194938.5,1306743011926855.8,230711312190.1352,408163999192.12274,5230923372153.518,104096336117376.0
34.20918973107749,1.8227147239274348e+16,2.0918002213973344e+16,1255497447451015.0,1321596303774101.5,238673475003.1621,422250367634.19574,5411450654568.64,107688848976720.33
34.993373525699035,1.843369358133758e+16,2.115766533454426e+16,1269724490323527.8,1336572365499996.5,246884431246.17645,436776896459.6416,5597618921587.016,111393617133839.28
35.793240996213015,1.8641952945873012e+16,2.139940580164746e+16,1284069527268748.8,1351672633396016.0,255351604939.62408,451756720315.282,5789596503460.28,115213990280970.44
36.60910581613728,1.8851945183081296e+16,2.1643249913390892e+16,1298533925581039.5,1366898546741117.5,264082635689.4926,467203355274.99194,5987556618684.562,119153415377773.42
37.44128793246003,1.9063690179899944e+16,2.1889224115387516e+16,1313119055085210.8,1382251547477928.8,273085384608.2499,483130709315.9555,6191677508257.72,123215439322251.69
38.29011369110923,1.9277207854239196e+16,2.213735499705888e+16,1327826287739504.0,1397733079794817.5,282367940363.27185,499553093020.53296,6402142572827.121,127403711679151.14
39.15591596493141,1.9492518147777976e+16,2.2387669286354236e+16,1342656997139347.2,1413344589603519.2,291938625350.5606,516485230499.85376,6619140512679.1875,131721987464841.42
40.03903428423004,1.970964101716559e+16,2.264019384270854e+16,1357612557911328.8,1429087523901212.5,301806001990.82477,533942270533.93634,6842865470503.28,136174129987352.6
40.93981496991464,1.9928596423466948e+16,2.2894955648052184e+16,1372694344986199.8,1444963330005235.8,311978879144.1567,551939797921.7219,7073517176845.294,140764113739878.4
41.85861126931294,2.0149404319682296e+16,2.315198179567707e+16,1387903732739190.2,1460973454648153.8,322466318638.7034,570493845032.8195,7311301098146.473,145496027345654.75
42.7957834946992,2.0372084636162556e+16,2.341129947675274e+16,1403242093985442.5,1477119342920294.2,333277641907.74677,589620903551.1505,7556428587240.62,150374076551706.53
43.751699164593184,2.059665726373929e+16,2.3672935964281496e+16,1418710798817955.0,1493402437046519.5,344422436728.6284,609337936398.8307,7809117036161.338,155402587268490.84
44.72673314788505,2.0823142034381412e+16,2.3936918594277304e+16,1434311213275247.0,1509824174983730.5,355910564055.8733,629662389826.8038,8069590031085.495,160586008651991.47
