t(s),Total solute volume 1,Total retention volume 1,Total 1 volume 1,Total 2 volume 1,Total 3 volume 1,Total 4 volume 1,Total 5 volume 1,Total 6 volume 1
0.1,858476762157242.6,970941579421749.6,55300119698977.766,57164697565528.79,0.0,0.0,0.0,0.0
0.202,1293526299680419.8,1462985711247736.0,83324514366407.6,86134003045252.2,2064722.0627803865,3552216.34061589,43657231.39331404,844881486.4292898
0.30604000000000003,1624839127100402.5,1837703577083675.5,104666546973335.61,108195634226607.2,5238870.0670076655,9013126.563231505,110772726.17811944,2143758608.0440257
0.41216080000000005,1905077478112024.2,2154656337232408.5,122718537503936.83,126856291542408.6,9305850.404850502,16010095.503316129,196766670.23264256,3807991426.220427
0.5204040160000001,2153949429986570.8,2436133885625542.5,138750012503436.52,143428306725895.44,14169565.886967836,24377794.30682708,299607134.2686458,5798255142.41081
0.6308120963200001,2381272754614478.0,2693240149842295.5,153393399064177.5,158565430690236.3,19778486.24208286,34027568.56201005,418204537.02762717,8093462809.818854
0.7434283382464002,2592753277899224.0,2932428435218842.5,167016246862707.44,172647605944449.6,26103164.43161275,44908756.596530005,551936236.2432266,10681564303.234697
0.8582969050113283,2792046096186320.0,3157832667104496.0,179854004631909.34,185918219948636.34,33127000.270414468,56992798.89745186,700451229.6869717,13555766602.960163
0.9754628431115548,2981655840674787.0,3372285592515195.5,192068012097544.9,198544052390100.66,40841690.08450799,70265409.54877757,863573940.4457561,16712671720.647444
1.094972099973786,3163385984202548.5,3577826947299612.0,203774442775767.0,210645193857811.72,49244706.99398826,84722241.22530252,1041250938.8019338,20151245595.519413
1.2168715419732616,3338585491542408.5,3775982418221558.0,215060192336700.75,222311469920863.9,58337787.01335631,100366280.6287114,1233518931.6202686,23872198587.223484
1.3412089728127268,3508294286977909.0,3967928167109198.0,225992249125273.84,233612127599232.16,68125963.31664325,117206187.00485401,1440484342.3979735,27877590285.556347
1.4680331522689813,3673333995597113.5,4154593459440136.5,236623539403203.06,244601877692323.16,78616921.57870372,135255183.05127087,1662309680.3025627,32170565708.776623
1.597393815314361,3834367159128191.5,4336727637559401.0,246996741829419.34,255324837873892.28,89820554.31770074,154530288.19305918,1899204116.9845498,36755172935.65892
1.729341691620648,3991937340293717.5,4514945478770791.0,257146870844609.53,265817203181684.78,101748644.34315263,175051773.97629026,2151416793.2584167,41636233569.05824
1.863928525453061,4146497141632433.5,4689758884667257.0,267103081547327.94,276109111749335.62,114414635.19368811,196842769.1214412,2419231965.1341105,46819248796.64337
2.001207095962122,4298428305275687.5,4861599614006957.0,276889964452451.62,286225983220755.9,127833462.09341867,219928968.69508916,2702965429.482112,52310330216.50741
2.1412312378813647,4448056463890597.0,5030835966050484.0,286528495696192.5,296189500993622.06,142021426.18801063,244338417.74145877,3002961864.8241825,58116148373.28973
2.284055862638992,4595662182816611.0,5197785269232633.0,296036748332545.75,306018347498915.8,156996100.48908162,270101349.4660291,3319592842.5793657,64243894269.67346
2.4297369798917723,4741489371009068.0,5362723393951907.0,305430434137349.0,315728764273220.3,172776259.55464962,297250064.2554512,3653255340.195983,70701250590.915
2.578331719489608,4885751787248486.0,5525892111125969.0,314723322718008.2,325334985204916.75,189381827.33227545,325818840.376177,4004370740.079486,77496383168.2747
2.7298983538794,5028638142717157.0,5687504863125534.0,323927570195374.1,334849576277475.06,206833838.8548828,355843866.3553183,4373383613.749652,84637874217.13708
2.884496320956988,5170316152179016.0,5847751345802755.0,333053980179811.6,344283705376700.25,225154413.51005393,387363197.5648579,4760761763.985932,92134787836.3172
3.0421862473761276,5310935786735726.0,6006801187276534.0,342112213293773.3,353647358856427.94,244366736.7876275,420416723.1085455,5166995434.926534,99996611698.98271
3.2030299723236504,5450631911807942.0,6164806931520915.0,351110957103706.75,362949517205541.4,264495049.5254614,455046147.74686974,5592597185.456371,108233265334.86055
3.3670905717701234,5589526446410578.0,6321906480514217.0,360058065213140.9,372198298830916.56,285564643.12344104,491294983.66311234,6038101788.010337,116855098171.94218
3.5344323832055258,5727730145537022.0,6478225110124784.0,368960672077743.2,381401078743744.0,307601859.79884195,529208550.9027171,6504066233.972747,125872889640.92584
3.7051210308696363,5865344082875251.0,6633877147072397.0,377825288516786.0,390564587291410.44,330634097.12717724,568833985.1855624,6991069829.69138,135297851033.3279
3.879223451487029,6002460893078725.0,6788967373946471.0,386657881735975.75,399694992878474.7,354689816.27575994,610220252.0712988,7499714370.571558,145141628870.6819
4.0568079205167695,6139165819483790.0,6943592214184940.0,395463942817796.7,408797971732625.06,379798553.46182287,653418166.6723198,8030624383.352045,155416309593.25946
4.237944078927105,6275537603178211.0,7097840737621079.0,404248543992241.3,417878767106426.25,405990934.26337975,698480418.2747073,8584447428.700612,166134425416.16312
4.422702960505647,6411649241761060.0,7251795518652611.0,413016387513526.6,426942239802034.9,433298690.48620635,745461599.3567907,9161854457.857088,177308961231.40234
4.61115701971576,6547568640351560.0,7405533372543900.0,421771847595830.6,435992911520902.3,461754679.349522,794418238.5968971,9763540218.304455,188953362458.80286
4.803380160110075,6683359172937154.0,7559125990322905.0,430519006573413.3,445035002243115.06,491392904.8000928,845408837.5428996,10390223704.444035,201081543767.89105
4.9994477633122765,6819080168676377.0,7712640488802251.0,439261686226568.1,454072462609589.6,522248540.8022279,898493910.6811643,11042648650.049772,213707898608.3197
5.199436718578522,6954787335042334.0,7866139889167513.0,448003475039074.5,463109002098563.94,554357956.4816601,953736028.6949948,11721584059.922316,226847309498.93213
5.403425452950093,7090533127535105.0,8019683535135526.0,456747752013795.94,472148113644200.0,587758743.0262382,1011199864.7455385,12427824778.68953,240515159035.71933
5.611493962009095,7226367073972525.0,8173327459741226.0,465497707562378.06,481193095230638.9,622489742.2667583,1070952243.643293,13162192095.13285,254727341587.3098
5.823723841249277,7362336059990827.0,8327124708253390.0,474256361896213.94,490247068903043.1,658591076.8781959,1133062193.807362,13925534380.77591,269500275653.53348
6.040198318074262,7498484581274385.0,8481125623461647.0,483026581274223.75,499312997563225.56,696104182.1556981,1197601001.9340415,14718727761.771267,284850916868.4033
6.261002284435747,7634854967132066.0,8635378098556763.0,491811092404866.0,508393699857255.7,735071839.3315849,1264642270.3165772,15542676823.370136,300796771633.67786
6.486222330124463,7771487579300228.0,8789927801992948.0,500612495252349.75,517491863413458.5,775538210.4096044,1334261976.7752466,16398315346.473946,317355911373.2993
6.715946776726952,7908420989248401.0,8944818378037280.0,509433274458051.8,526610056648941.1,817548874.5012524,1406538537.1717055,17286607075.946815,334546987402.49567
6.950265712261491,8045692136765308.0,9100091626147684.0,518275809556086.9,535750739329597.7,861150865.656385,1481552870.4941182,18208546520.5232,352389246408.3566
7.18927102650672,8183336472189291.0,9255787661853106.0,527142384135298.5,544916272041025.06,906392712.1866738,1559388466.5106235,19165159784.28128,370902546541.27704
7.433056447036854,8321388084303750.0,9411945061421964.0,536035194077843.0,554108924704889.75,953324477.4860263,1640131455.9983044,20157505429.76946,390107374119.0075
7.681717575977592,8459879815630410.0,9568600992277332.0,544956354985990.94,563330884256137.2,1001997802.3571097,1723870683.5632293,21186675372.977417,410024860946.96545
7.935351927497144,8598843366611978.0,9725791330847344.0,553907908893207.3,572584261580360.2,1052465948.8573273,1810697783.074666,22253795810.43622,430676802260.36383
8.194058966047088,8738309389972051.0,9883550769306204.0,562891830342499.25,581871097797085.5,1104783845.6816413,1900707255.7433274,23360028178.814304,452085675295.2045
8.45794014536803,8878307576368359.0,1.0041912912468852e+16,571910031903897.6,591193369963297.2,1159008135.1031165,1993996550.8795938,24506570147.449554,474274658496.7036
8.72709894827539,9018866732308654.0,1.0200910365935294e+16,580964369193535.2,600552996261737.4,1215197221.4952707,2090666149.3731182,25694656644.329338,497267651375.017
9.0016409272409,9160014851174762.0,1.0360574816440752e+16,590056645448771.9,609951840730302.9,1273411321.4633315,2190819649.9404516,26925560916.0889,521089295019.33466
9.281673745785717,9301779178093128.0,1.0520937105247008e+16,599188615706926.6,619391717581660.4,1333712515.6141992,2294563858.1919713,28200595622.659817,545764993282.54517
9.567307220701432,9444186269299154.0,1.0682027295307026e+16,608361990629323.9,628874395156250.8,1396164801.9975274,2402008878.573891,29521113967.253696,571320934649.7429
9.85865336511546,9587262046564072.0,1.0843874732845874e+16,617578440007296.6,638401599546480.9,1460834151.2527235,2513268209.245135,30888510862.416164,597784114804.8014
10.155826432417769,9731031847185562.0,1.1006508103924938e+16,626839595982399.9,647975017925523.0,1527788563.4990335,2628458839.9531245,32304224132.93735,625182359910.2415
10.458942961066125,9875520469983952.0,1.1169955486489312e+16,636147056009328.5,657596301610148.9,1597098127.0079677,2747701352.9759936,33769735756.450256,653544350616.4319
10.768121820287448,1.0020752217695776e+16,1.1334244398341228e+16,645502385586764.8,667267068883632.6,1668835078.6996095,2871120027.202624,35286573142.59229,682899646817.1511
11.083484256693197,1.016675093611166e+16,1.1499401841432518e+16,654907120778509.0,676988907601910.9,1743073866.5062084,2998842945.4252872,36856310451.65203,713278713169.2604
11.405153941827061,1.0313540050267286e+16,1.166545434282419e+16,664362770544778.8,686763377603458.2,1819891213.6487122,3131002104.9233136,38480569953.66128,744712945395.1305
11.733257020663602,1.0461142597962176e+16,1.1832427992625332e+16,673870818901361.0,696592012941267.0,1899366184.8735542,3267733531.419361,40161023428.93864,777234697387.2771
12.067922161076874,1.0609581260851434e+16,1.2000348479187478e+16,683432726922458.8,706476323953210.1,1981580254.6992915,3409177396.4934144,41899393611.12783,810877309135.385
12.409280604298411,1.075887839333026e+16,1.216924112180367e+16,693049934601306.2,716417799185395.2,2066617377.7242944,3555478138.54273,43697455673.81811,845675135496.7611
12.75746621638438,1.090905604940718e+16,1.2339130901133344e+16,702723862581259.9,726417907181633.4,2154564061.0488324,3706784587.379495,45557038761.87046,881663575832.006
13.112615540712067,1.1060136007742598e+16,1.251004248755367e+16,712455913768710.8,736478098150706.0,2245509438.866625,3863250092.5608954,47480027568.61764,918879104528.4319
13.474867851526309,1.1212139795011362e+16,1.2682000267615806e+16,722247474837988.8,746599805522051.6,2339545349.2829847,4025032655.5499225,49468363960.144295,957359302434.6285
13.844365208556836,1.1365088707731688e+16,1.2855028368767922e+16,732099917637546.5,756784447399323.0,2436766413.4184427,4192295065.8081555,51524048647.89007,997142889230.2345
14.221252512727972,1.1519003832689894e+16,1.3029150682490776e+16,742014600505612.2,767033427920430.9,2537270116.858716,4365205040.925375,53649142910.869446,1038269756755.8724
14.605677562982532,1.167390606607646e+16,1.3204390885977136e+16,751992869502892.5,777348138531792.9,2641156893.5138273,4543935370.893919,55845770368.82681,1080781003328.893
14.997791114242183,1.1829816131439416e+16,1.3380772462474442e+16,762036059569060.1,787729959183815.2,2748530211.951183,4728664066.639313,58116118807.70501,1124718969071.4287
15.397746936527026,1.1986754596549854e+16,1.3558318720398504e+16,772145495609173.5,798180259453963.5,2859496664.269052,4919574512.921629,60462442058.82959,1170127272278.0676
15.805701875257567,1.2144741889266718e+16,1.3737052811315986e+16,782322493515633.2,808700399603141.2,2974166057.5794787,5116855625.726032,62887061933.26563,1217050846851.1858
16.221815912762718,1.2303798312478754e+16,1.3916997746884688e+16,792568361130688.0,819291731570683.5,3092651508.170936,5320702014.26386,65392370212.83852,1265535980832.9011
16.64625223101797,1.2463944058195542e+16,1.4098176414832788e+16,802884399154131.8,829955599912641.6,3215069538.423686,5531314147.709395,67980830699.357834,1315630356063.3567
17.079177275638333,1.2625199220852564e+16,1.428061159404972e+16,813271902000375.1,840693342687756.1,3341540176.5524993,5748898526.801057,70654981323.62357,1367383088995.9268
17.5207608211511,1.2787583809889418e+16,1.4464325968857028e+16,823732158608673.5,851506292295009.0,3472187059.2534246,5973667860.438781,73417436315.83849,1420844772700.7507
17.97117603757412,1.2951117761655092e+16,1.4649342142518862e+16,834266453210054.9,862395776266391.2,3607137537.3336725,6205841247.413799,76270888439.0938,1476067520088.8577
18.430599558325603,1.3115820950689592e+16,1.4835682650048574e+16,844876066054010.9,873363118018126.9,3746522784.4056053,6445644363.409695,79218111287.64459,1533105008390.0344
18.899211549492115,1.3281713200426182e+16,1.502336997036157e+16,855562274097919.0,884409637563314.8,3890477908.7276125,6693309653.417941,82261961651.72447,1592012524918.3542
19.37719578048196,1.3448814293355322e+16,1.5212426537820496e+16,866326351661759.8,895536652188729.5,4039142068.2774377,6949076529.714392,85405381950.7058,1652847014160.2693
19.864739696091597,1.3617143980686262e+16,1.5402874753214052e+16,877169571050486.5,906745477098178.5,4192658589.144989,7213191575.546706,88651402736.44911,1715667126220.8843
20.36203449001343,1.3786721991540032e+16,1.5594736994206636e+16,888093203146201.5,918037426024648.2,4351175087.333822,7485908754.686434,92003145268.72578,1780533266664.9304
20.869275179813698,1.3957568041702496e+16,1.578803562529285e+16,899098517972011.8,929413811813151.8,4514843594.0628195,7767489627.002756,95463824164.64742,1847507647789.8062
21.38666068340997,1.412970184196431e+16,1.5982793007285366e+16,910186785229234.0,940875946976076.9,4683820684.66094,8058203570.218055,99036750124.07002,1916654341368.6636
21.91439389707817,1.4303143106069438e+16,1.6179031506362604e+16,921359274809442.2,952425144222473.9,4858267611.150219,8358328008.0087185,102725332732.97823,1988039332902.484
22.452681775019734,1.447791155829215e+16,1.6376773502697056e+16,932617257282523.2,964062716962579.5,5038350438.613413,8668148644.617384,106533083346.89583,2061730577420.5005
23.00173541052013,1.465402694065694e+16,1.6576041398682156e+16,943962004361784.2,975789979788599.4,5224240185.444335,8987959706.145027,110463618056.38861,2137798056869.148
23.561770118730532,1.4831509019814216e+16,1.6776857626770606e+16,955394789346837.6,987608248932530.2,5416112967.5801325,9318064188.693724,114520660736.76,2216313839129.941
24.133005521105144,1.501037759357782e+16,1.6979244656933204e+16,966916887544736.8,999518842701500.5,5614150146.815412,9658774113.531982,118708046184.0538,2297352138707.2715
24.715665631527248,1.5190652497129016e+16,1.7183225003741266e+16,978529576669627.8,1011523081890874.4,5818538483.298626,10010410789.455624,123029723339.48454,2380989379127.1465
25.309978944157795,1.5372353608884476e+16,1.7388821233071236e+16,990234137220716.5,1023622290174997.8,6029470292.31151,10373305082.516962,127489758604.42314,2467304257087.8857
25.91617852304095,1.5555500856021894e+16,1.7596055968424228e+16,1002031852838235.2,1035817794475136.8,6247143605.4308605,10747797693.293991,132092339248.048,2556377808403.6646
26.53450209350177,1.5740114219651002e+16,1.78049518968458e+16,1013924010636525.4,1048110925303805.2,6471762336.171826,11134239441.869503,136841776909.7404,2648293475781.0825
27.165192135371807,1.5926213739610976e+16,1.801553177442597e+16,1025911901513081.4,1060503017084228.1,6703536450.208714,11532991560.685425,141742511198.27353,2743137178468.265
27.808495978079243,1.6113819518869484e+16,1.8227818431349996e+16,1037996820431912.2,1072995408443245.1,6942682140.267045,11944425995.434254,146799113389.76068,2840997383814.639
28.464665897640828,1.6302951727490106e+16,1.844183477646347e+16,1050180066679115.8,1085589442475522.9,7189422005.776388,12368925714.140474,152016290226.26157,2941965180777.989
29.133959215593645,1.649363060612788e+16,1.865760380130572e+16,1062462944088048.4,1098286466976296.1,7443985237.36788,12806885024.577436,157398887816.8233,3046134355413.044
29.816638399905518,1.6685876469003174e+16,1.8875148583555244e+16,1074846761230889.4,1111087834639402.8,7706607806.294114,13258709900.152761,162951895642.59476,3153601468373.46
30.51297116790363,1.6879709706295674e+16,1.9094492289821316e+16,1087332831572845.8,1123994903216686.6,7977532658.840965,13724818314.382053,168680450667.48016,3264465934455.3955
31.223230591261704,1.7075150785889692e+16,1.9315658177704812e+16,1099922473584605.0,1137009035634232.5,8257009915.790762,14205640584.05306,174589841555.60077,3378830104207.0405
31.947695203086937,1.7272220254392586e+16,1.9538669597038052e+16,1112617010807906.5,1150131600060159.5,8545297076.985109,14701619721.163542,180685512996.56818,3496799347623.811
32.686649107148675,1.7470938737336328e+16,1.9763549990204024e+16,1125417771868540.4,1163363969918052.8,8842659231.021383,15213211793.691568,186973070139.30743,3618482139943.0645
33.44038208929165,1.7671326938462146e+16,1.9990322891419956e+16,1138326090430269.0,1176707523839328.5,9149369270.10229,15740886295.230879,193458283134.82047,3743990149546.1797
34.20918973107749,1.787340563797597e+16,2.0219011924859864e+16,1151343305082449.5,1190163645547075.8,9465708110.038683,16285126523.49248,200147091787.90903,3873438327968.0376
34.993373525699035,1.807719568965233e+16,2.0449640801476156e+16,1164470759153458.2,1203733723663179.5,9791964915.386333,16846429967.639076,207045610317.43973,4006945002006.004
35.793240996213015,1.828271801665119e+16,2.068223331436842e+16,1177709800441257.8,1217419151429796.8,10128437329.674534,17425308704.37886,214160132224.2605,4144631967911.006
36.60910581613728,1.848999360590405e+16,2.091681333253571e+16,1191061780851732.2,1231221326335527.5,10475431710.658266,18022289802.703213,221497135265.33267,4286624587632.9087
37.44128793246003,1.8699043500912188e+16,2.1153404792835612e+16,1204528055934809.5,1245141649635860.0,10833263370.498896,18637915737.102898,229063286532.05872,4433051887081.081
38.29011369110923,1.8909888792793104e+16,2.1392031689963344e+16,1218109984307674.2,1259181525756955.2,11202256820.746439,19272744809.045223,236865447630.12613,4584046656348.278
39.15591596493141,1.912255060940027e+16,2.1632718064254708e+16,1231808926953917.8,1273342361571163.2,11582746021.964392,19927351576.438747,244910679957.50397,4739745551832.665
40.03903428423004,1.933705010233547e+16,2.1875487987106812e+16,1245626246386921.2,1287625565532183.0,11975074637.801315,20602327290.748093,253206250076.4579,4900289200177.982
40.93981496991464,1.9553408431666144e+16,2.2120365543804668e+16,1259563305665366.0,1302032546657411.5,12379596293.275541,21298280341.3574,261759635174.63,5065822303936.011
41.85861126931294,1.977164674815491e+16,2.2367374813537124e+16,1273621467248569.5,1316564713344649.8,12796674836.998589,22015836706.710003,270578528609.3885,5236493748839.207
42.7957834946992,1.9991786172808956e+16,2.26165398463814e+16,1287802091679092.5,1331223472010293.8,13226684607.019218,22755640411.677578,279670845528.7371,5412456712553.291
43.751699164593184,2.0213847773552172e+16,2.2867884637036228e+16,1302106536080044.8,1346010225536009.5,13670010699.92618,23518353990.535202,289044728561.09766,5593868774761.815
44.72673314788505,2.0437852538828976e+16,2.312143309508489e+16,1316536152454743.8,1360926371511009.8,14127049242.799377,24304658954.837673,298708553565.3197,5780892028414.46
