t(s),Total solute volume 1,Total retention volume 1,Total 1 volume 1,Total 2 volume 1,Total 3 volume 1,Total 4 volume 1,Total 5 volume 1,Total 6 volume 1
0.1,1144268928618327.0,1596229672649425.0,193012778181123.2,258947965849975.12,0.0,0.0,0.0,0.0
0.202,1668659057509081.2,2459041743761047.0,281465759705595.97,377617423719494.6,76436616942.74413,196394513577.46658,4402871190964.022,126623800505388.19
0.30604000000000003,2032191317054819.0,3157995135363686.0,342785586472681.06,459884750251397.8,188035512533.78558,483137934517.6674,10831701074739.152,311630607062998.8
0.41216080000000005,2312840495635678.0,3783623992123873.5,390124876317596.5,523395640822364.25,324218376289.11206,833051756071.1384,18676950802474.004,537428758413397.1
0.5204040160000001,2540977013312530.5,4369203472588733.0,428606445356578.06,575022919841446.1,479701181499.6754,1232560360788.3374,27634226553644.08,795250605982244.9
0.6308120963200001,2732235819289547.5,4930991970321100.0,460867562639722.44,618304775291404.8,651255780943.8063,1673370320667.6367,37517578805665.74,1079741608193153.0
0.7434283382464002,2895955001435435.5,5478276463391323.0,488483356406924.9,655354415808132.1,836707731872.4796,2149895488861.6216,48201760084729.016,1387295326435367.2
0.8582969050113283,3038249566268454.0,6016921865705411.0,512485292582629.5,687555666930570.6,1034507127432.3278,2658154338528.975,59597500465737.32,1715341177992060.8
0.9754628431115548,3163382020745434.5,6550904917489993.0,533592361516529.56,715873133675446.9,1243508814857.888,3195205282317.0156,71638846520795.19,2061979840934607.0
1.094972099973786,3274460564960493.5,7083071303633351.0,552328847601466.94,741010201498760.0,1462846302307.8184,3758822706082.2314,84275897626154.39,2425774122938083.0
1.2168715419732616,3373830116414199.5,7615546590963498.0,569090286392046.5,763497525060896.4,1691853520593.0552,4347295955605.2046,97470299068405.31,2805619214551749.5
1.3412089728127268,3463307407140962.5,8149975807881369.0,584183120273875.9,783746230689877.4,1930013424770.6907,4959297282377.227,111192281292568.34,3200657457776934.0
1.4680331522689813,3544330336275888.5,8687671159165741.0,597849890927852.2,802081714856455.1,2176922732059.8362,5593791247948.0625,125418628687907.95,3610219874437633.5
1.597393815314361,3618057113505040.5,9229707297573234.0,610285962630474.1,818766080329668.2,2432266894328.296,6249970423579.113,140131237933346.38,4033784665856809.0
1.729341691620648,3685434473588852.5,9776985094380510.0,621651028530415.4,834013573118457.2,2695801843046.023,6927208490115.203,155316066466416.34,4470946942343203.0
1.863928525453061,3747246027305203.0,1.0330275675010786e+16,632077266379826.4,848001524286508.8,2967340372400.966,7625025254483.395,170962348129596.4,4921396143282771.0
2.001207095962122,3804147402404389.5,1.0890251645452698e+16,641675266033742.5,860878302347760.4,3246741790327.65,8343060062296.212,187061997061781.2,5384898875752406.0
2.1412312378813647,3856692335580417.0,1.1457509749598742e+16,650538430586715.2,872769217877547.9,3533903927533.092,9081051268760.076,203609147420228.66,5861285662937549.0
2.284055862638992,3905352406346101.0,1.2032587642428766e+16,658746305039693.5,883780989287093.2,3828756882840.121,9838820170642.496,220599793121988.34,6350440571580422.0
2.4297369798917723,3950532204059999.5,1.26159765295889e+16,666367134640939.1,894005175120555.0,4131258069643.9453,10616258281156.086,238031502535603.75,6852292996880991.0
2.578331719489608,3992581150924143.0,1.320813084428561e+16,673459859163421.9,903520849598542.1,4441388252354.914,11413317148403.4,255903190201192.66,7366811088997574.0
2.7298983538794,4031802834417184.0,1.380947576260383e+16,680075687079235.8,912396714547051.6,4759148346293.472,12230000135366.363,274214932529862.97,7893996445548843.0
2.884496320956988,4068462456626168.5,1.442041311647373e+16,686259352096561.4,920692785180688.9,5084556813418.147,13066355730791.46,292967817827131.6,8433879792198970.0
3.0421862473761276,4102792840459777.5,1.5041326101757138e+16,692050126274604.1,928461749308287.5,5417647528076.705,13922472067739.871,312163823393349.0,8986517442725307.0
3.2030299723236504,4134999316445654.0,1.5672583068578946e+16,697482644317856.0,935750073214785.0,5758468017139.727,14798472404082.553,331805714191985.3,9551988379987440.0
3.3670905717701234,4165263731644959.0,1.6314540604391728e+16,702587579791043.1,942598908878291.6,6107078000971.911,15694511375991.812,351896958849422.8,1.013039183585103e+16
3.5344323832055258,4193747763220624.5,1.6967546066161108e+16,707392204044572.0,949044843830359.8,6463548178099.084,16610771877621.69,372441659694755.9,1.0721845275315064e+16
3.7051210308696363,4220595676220152.0,1.7631939679295902e+16,711920851391290.6,955120525242001.6,6827959208752.485,17547462451832.639,393444494257977.44,1.132648271052389e+16
3.879223451487029,4245936633412652.5,1.8308056292792804e+16,716195308724755.8,960855182639678.8,7200400861834.39,18504815100870.18,414910666184238.6,1.1944453285868786e+16
4.0568079205167695,4269886641323344.0,1.8996226859360564e+16,720235143772071.8,966275068292748.0,7580971297033.255,19483083444364.688,436845863935697.1,1.2575920087295342e+16
4.237944078927105,4292550198708497.0,1.9696779693884276e+16,724057983155042.6,971403830263232.8,7969776459380.543,20482541166315.523,459256225972997.8,1.322105913815881e+16
4.422702960505647,4314021700054376.0,2.0410041552008276e+16,727679749129295.9,976262830017529.0,8366929567887.541,21503480703886.93,482148311358737.9,1.3880058551176506e+16
4.61115701971576,4334386636161361.5,2.113633856181959e+16,731114862096197.5,980871414118516.2,8772550683321.573,22546212139637.043,505529074922414.3,1.4553117811698168e+16
4.803380160110075,4353722625697798.0,2.1875997034874372e+16,734376414603090.9,985247147666110.0,9186766342894.467,23611062265766.977,529405846282567.3,1.5240447172016152e+16
4.9994477633122765,4372100305202108.5,2.262934417759501e+16,737476321466906.1,989406015704684.2,9609709251802.22,24698373794548.117,553786312146700.75,1.594226714002827e+16
5.199436718578522,4389584099955189.5,2.339670872000926e+16,740425449803234.2,993362597671445.6,10041518023295.203,25808504693553.625,578678501409753.4,1.6658808048452794e+16
5.403425452950093,4406232894125394.0,2.4178421475610692e+16,743233732064922.8,997130219050179.9,10482336960365.36,26941827627936.668,604090772652997.9,1.7390309693128872e+16
5.611493962009095,4422100615371415.5,2.4974815843600172e+16,745910264651595.2,1000721083666868.1,10932315873280.129,28098729494935.746,630031803711069.1,1.813702103083098e+16
5.823723841249277,4437236746498173.0,2.57862282627615e+16,748463394214661.2,1004146389477364.1,11391609928126.98,29279611038186.918,656510583028668.5,1.889919992857634e+16
6.040198318074262,4451686774662838.5,2.6612998624616364e+16,750900793428405.1,1007416430222685.5,11860379522299.299,30484886531394.84,683536402572678.6,1.9677112957676064e+16
6.261002284435747,4465492586919335.5,2.7455470652208424e+16,753229527709562.0,1010540684940717.5,12338790183488.424,31714983522539.965,711118852101897.4,2.0471035226830896e+16
6.486222330124463,4478692819491082.5,2.8313992249818544e+16,755456114131882.0,1013527897006601.6,12827012489269.129,32970342631147.53,739267814626769.8,2.128125024944182e+16
6.715946776726952,4491323167010727.0,2.918891582805582e+16,757586573588016.6,1016386144113676.1,13325222004803.605,34251417392263.85,767993462916687.0,2.2108049841029664e+16
6.950265712261491,4503416657014692.0,3.008059860807217e+16,759626477090650.2,1019122900391561.6,13833599236553.23,35558674141723.68,797306256933404.0,2.2951734043263556e+16
7.18927102650672,4515003894190545.0,3.0989402908070004e+16,761580986971624.2,1021745091679342.0,14352329600192.754,36892591938077.29,827216942086738.4,2.3812611071603496e+16
7.433056447036854,4526113278217182.0,3.1915696414799204e+16,763454893626730.5,1024259144822764.9,14881603401179.2,38253662517207.86,857736548223553.6,2.4690997283990536e+16
7.681717575977592,4536771198486418.0,3.285985244234307e+16,765252648360932.5,1026671031739734.6,15421615826645.148,39642390276227.805,888876389273562.2,2.5587217168379576e+16
7.935351927497144,4547002208532090.0,3.3822250180165964e+16,766978392810687.0,1028986308893619.0,15972566947470.0,41059292283716.49,920648063486093.6,2.6501603347212316e+16
8.194058966047088,4556829182602265.0,3.480327493211797e+16,768635985354185.6,1031210152725494.5,16534661729539.78,42504898313765.52,953063454200986.5,2.7434496597191736e+16
8.45794014536803,4566273456479481.0,3.580331834786366e+16,770229024864624.5,1033347391521795.4,17108110053339.492,43979750901639.305,986134731104520.5,2.838624588293826e+16
8.72709894827539,4575354954374127.0,3.682277864800531e+16,771760872114291.4,1035402534130261.0,17693126741135.805,45484405419153.24,1019874351927802.5,2.9357208403298544e+16
9.0016409272409,4584092303476822.0,3.78620608440076e+16,773234669097013.4,1037379795883129.6,18289931591107.06,47019430168126.055,1054295064550787.8,3.034774964924062e+16
9.281673745785717,4592502937551636.0,3.892157695389069e+16,774653356502038.9,1039283122040285.6,18898749417860.34,48585406490474.8,1089409909479862.9,3.1358243472408516e+16
9.567307220701432,4600603190777439.0,4.000174621454085e+16,776019689542983.1,1041116209025542.0,19519810098849.156,50182928893714.93,1125232222671217.5,3.2389072163531176e+16
9.85865336511546,4608408382894165.0,4.110299529138591e+16,777336252320118.6,1042882523695237.6,20153348626268.105,51812605190783.21,1161775638675809.2,3.34406265399835e+16
10.155826432417769,4615932896581587.0,4.222575848609498e+16,778605470872455.6,1044585320849058.1,20799605164055.027,53475056653246.11,1199054094084867.8,3.451330604188971e+16
10.458942961066125,4623190247886454.0,4.3370477942891624e+16,779829625057246.4,1046227659167682.0,21458825109678.133,55170918177077.164,1237081831257662.5,3.560751883623584e+16
10.768121820287448,4630193150417000.0,4.453760385400092e+16,781010859378159.6,1047812415739997.1,22131259160428.145,56900838460292.34,1275873402315627.2,3.672368192852947e+16
11.083484256693197,4636953573939786.0,4.572759466469917e+16,782151192869282.0,1049342299323559.9,22817163383970.94,58665480191827.12,1315443673389024.0,3.78622212816017e+16
11.405153941827061,4643482797940973.0,4.694091727838554e+16,783252528129702.1,1050819862465516.4,23516799292946.516,60465520251118.46,1355807829104108.8,3.902357194120125e+16
11.733257020663602,4649791460650206.0,4.817804726205689e+16,784316659592770.2,1052247512596694.4,24230433923429.996,62301649917930.01,1396981377300504.8,4.020817816807545e+16
12.067922161076874,4655889603969798.0,4.943946905252645e+16,785345281104641.8,1053627522199088.1,24958339917093.04,64174575092016.125,1438980153969726.8,4.14164935762741e+16
12.409280604298411,4661786714702978.0,5.072567616370024e+16,786339992878565.5,1054962038135785.8,25700795606926.453,66085016522282.95,1481820328407160.5,4.264898127744661e+16
12.75746621638438,4667491762432294.0,5.203717139519765e+16,787302307884140.1,1056253090222877.2,26458085106402.65,68033710045148.305,1525518408570914.8,4.39061140309359e+16
13.112615540712067,4673013234361794.0,5.337446704257651e+16,788233657724414.2,1057502599114209.6,27230498401974.57,70021406831846.58,1570091246641843.2,4.51883743995005e+16
13.474867851526309,4678359167403064.0,5.473808510940522e+16,789135398048086.6,1058712383562490.9,28018331448822.254,72048873644469.7,1615556044779988.2,4.649625491051834e+16
13.844365208556836,4683537177756657.0,5.612855752140584e+16,790008813539235.8,1059884167113526.4,28821886269770.12,74116893100557.48,1661930361073493.0,4.783025822255264e+16
14.221252512727972,4688554488213816.0,5.7546426342876e+16,790855122522518.9,1061019584284626.2,29641471057312.22,76226263946096.89,1709232115676607.0,4.919089729717506e+16
14.605677562982532,4693417953381221.0,5.899224399558361e+16,791675481218024.4,1062120186272946.8,30477400278690.69,78377801336803.31,1757479597134140.0,5.057869557596178e+16
14.997791114242183,4698134083010722.0,6.046657348031845e+16,792470987676482.5,1063187446235021.5,31329994783984.36,80572337127589.52,1806691468890252.5,5.199418716259434e+16
15.397746936527026,4702709063598317.0,6.196998860127003e+16,793242685422530.0,1064222764174595.6,32199581917170.406,82810720170151.77,1856886775979929.5,5.3437917010007384e+16
15.805701875257567,4707148778400322.0,6.350307419339813e+16,793991566831000.9,1065227471472294.8,33086495630132.02,85093816618613.1,1908084951901955.5,5.491044111254386e+16
16.221815912762718,4711458826000586.0,6.506642635294675e+16,794718576258791.8,1066202835087374.6,33991076599590.164,87422510243195.36,1960305825672693.5,5.6412326703084424e+16
16.64625223101797,4715644537549681.0,6.666065267125204e+16,795424612952745.9,1067150061458964.0,34913672346943.62,89797702751895.62,2013569629060175.5,5.794415245513165e+16
17.079177275638333,4719710992785925.0,6.8286372471986136e+16,796110533752034.0,1068070300131603.0,35854637361008.93,92220314120166.8,2067897003998546.2,5.950650868983677e+16
17.5207608211511,4723663034937334.0,6.994421705197011e+16,796777155601779.5,1068964647127560.8,36814333223653.766,94691282928609.86,2123309010183088.2,6.109999758796808e+16
17.97117603757412,4727505284594810.0,7.163482992569118e+16,797425257893175.4,1069834148086348.6,37793128738325.06,97211566708701.98,2179827132846310.0,6.272523340682352e+16
18.430599558325603,4731242152638970.0,7.335886707364866e+16,798055584643932.4,1070679801190046.4,38791400061475.11,99782142296594.0,2237473290715996.8,6.438284270210169e+16
18.899211549492115,4734877852294805.0,7.511699719465437e+16,798668846531641.0,1071502559891269.1,39809530836893.28,102404006195021.14,2296269844156202.5,6.607346455474854e+16
19.37719578048196,4738416410382350.0,7.690990196220786e+16,799265722791520.4,1072303335459213.5,40847912332954.94,105078174943383.12,2356239603492455.5,6.779775080280601e+16
19.864739696091597,4741861677825686.0,7.873827628506438e+16,799846862989036.6,1073082999357818.2,41906943582801.59,107805685496056.03,2417405837522650.5,6.955636627829036e+16
20.36203449001343,4745217339476416.0,8.060282857211098e+16,800412888676916.6,1073842385468835.9,42987031527470.13,110587595609008.16,2479792282215280.0,7.13499890491371e+16
20.869275179813698,4748486923303861.0,8.250428100166635e+16,800964394945319.0,1074582292171556.8,44088591161989.89,113424984234799.88,2543423149596878.0,7.31793106662519e+16
21.38666068340997,4751673808998915.0,8.444336979531424e+16,801501951873130.6,1075303484289886.1,45212045684470.164,116318951926055.92,2608323136830637.5,7.504503641571117e+16
21.91439389707817,4754781236035346.0,8.642084549638382e+16,802026105887712.4,1076006694916586.6,46357826648204.73,119270621247502.34,2674517435488376.5,7.694788557616046e+16
22.452681775019734,4757812311227897.0,8.843747325318534e+16,802537381039799.9,1076692627123697.8,47526374116816.234,122281137196672.4,2742031741018233.0,7.888859168146216e+16
23.00173541052013,4760770015824013.0,9.04940331071086e+16,803036280199701.6,1077361955567382.4,48718136822473.14,125351667633384.42,2810892262410400.0,8.086790278865122e+16
23.561770118730532,4763657212162396.0,9.259132028569626e+16,803523286180459.0,1078015327994758.9,49933572327205.44,128483403718107.4,2881125732063650.0,8.28865817512496e+16
24.133005521105144,4766476649929350.0,9.473014550079522e+16,803998862793161.5,1078653366659723.2,51173147187355.695,131677560359333.14,2952759415855309.5,8.494540649801085e+16
24.715665631527248,4769230972041323.0,9.691133525189613e+16,804463455839185.5,1079276669654140.0,52437337121194.21,134935376670077.16,3025821123417411.0,8.704517031715282e+16
25.309978944157795,4771922720179392.0,9.913573213476483e+16,804917494043743.0,1079885812160331.0,53726627179737.29,138258116433639.02,3100339218622239.0,8.91866821461456e+16
25.91617852304095,4774554340000100.0,1.014041951554758e+17,805361389934848.6,1080481347630260.8,55041511920802.31,141647068578754.34,3176342630279984.5,9.137076686713112e+16
26.53450209350177,4777128186044630.0,1.0371760004995126e+17,805795540671366.8,1081063808896498.9,56382495586338.29,145103547664280.6,3253860863052104.0,9.3598265608036e+16
27.165192135371807,4779646526366782.0,1.060768396091134e+17,806220328823662.5,1081633709219520.1,57750092283069.8,148628894373557.12,3332924008583228.5,9.587003604946363e+16
27.808495978079243,4782111546898690.0,1.0848282400975808e+17,806636123109997.1,1082191543275671.6,59144826166495.07,152224476018586.4,3413562756855453.5,9.818695273743318e+16
28.464665897640828,4784525355571784.0,1.1093648115125208e+17,807043279091645.0,1082737788089738.2,60567231628277.9,155891687054191.88,3495808407768084.0,1.0054990740204845e+17
29.133959215593645,4786889986209056.0,1.1343875699816763e+17,807442139829428.0,1083272903915782.0,62017853487075.34,159631949602310.47,3579692882946728.0,1.0295980928217731e+17
29.816638399905518,4789207402203812.0,1.159906159289548e+17,807833036504242.9,1083797335069614.8,63497247182844.27,163446713986570.9,3665248737785287.0,1.0541758545622234e+17
30.51297116790363,4791479499998503.0,1.1859304109076522e+17,808216289003869.1,1084311510716091.8,65005978974669.21,167337459277332.84,3752509173724599.5,1.0792418117907006e+17
31.223230591261704,4793708112376864.0,1.2124703476053038e+17,808592206478257.9,1084815845614080.2,66544626142155.305,171305693847350.56,3841508050771672.5,1.1048056022529992e+17
31.947695203086937,4795895011580831.0,1.2395361871240629e+17,808961087865318.8,1085310740821863.9,68113777190432.68,175352955938233.44,3932279900263421.0,1.1308770523874608e+17
32.686649107148675,4798041912263847.0,1.267138345916929e+17,809323222389049.6,1085796584365434.5,69714032058815.29,179480814237881.1,4024859937878957.0,1.1574661808849891e+17
33.44038208929165,4800150474290437.0,1.2952874429533546e+17,809678890031775.4,1086273751872064.1,71346002333162.55,183690868469068.62,4119284076904556.0,1.1845832023143472e+17
34.20918973107749,4802222305391852.0,1.323994303591214e+17,810028361982093.8,1086742607171269.1,73010311461986.83,187984749989374.97,4215588941755565.5,1.2122385308136914e+17
34.993373525699035,4804258963686631.0,1.3532699635167842e+17,810371901060045.5,1087203502865206.4,74707594976357.61,192364122402629.94,4313811881759515.5,1.2404427838492806e+17
35.793240996213015,4806261960074497.0,1.3831256727539008e+17,810709762120887.6,1087656780870410.2,76438500713645.56,196830682182079.16,4413990985204814.5,1.2692067860422373e+17
36.60910581613728,4808232760510977.0,1.4135728997433587e+17,811042192438809.8,1088102772932563.5,78203689045158.6,201386159305457.28,4516165093659553.0,1.2985415730644344e+17
37.44128793246003,4810172788170537.0,1.444623335493691e+17,811369432071768.0,1088541801115979.4,80003833107711.42,206032317902173.12,4620373816564946.0,1.3284583956043618e+17
38.29011369110923,4812083425504331.0,1.4762888978044653e+17,811691714208607.9,1088974178269295.1,81839619039184.67,210770956912795.1,4726657546108054.0,1.3589687234040446e+17
39.15591596493141,4813966016199319.0,1.5085817355631933e+17,812009265499512.1,1089400208468813.8,83711746218114.1,215603910761060.47,4835057472378486.0,1.390084249367937e+17
40.03903428423004,4815821867044369.0,1.5415142331170112e+17,812322306370778.8,1089820187440796.6,85620927507364.2,220533050038599.53,4945615598813967.0,1.421816893744849e+17
40.93981496991464,4817652249708939.0,1.575099014720271e+17,812631051324833.8,1090234402963988.5,87567889501931.16,225560282202597.97,5058374757939577.0,1.454178808383853e+17
41.85861126931294,4819458402439449.0,1.609348949059175e+17,812935709226377.4,1090643135253494.4,89553372780925.61,230687552286607.62,5173378627405680.0,1.4871823810652557e+17
42.7957834946992,4821241531677994.0,1.6442771538545674e+17,813236483575434.8,1091046657327113.2,91578132163783.3,235916843624724.47,5290671746329588.0,1.52084023990758e+17
43.751699164593184,4823002813608199.0,1.679897000544095e+17,813533572768091.6,1091445235355152.0,93642936970749.95,241250178589356.2,5410299531946004.0,1.5551652578517194e+17
