t(s),Total solute volume 1,Total retention volume 1,Total 1 volume 1,Total 2 volume 1,Total 3 volume 1,Total 4 volume 1,Total 5 volume 1,Total 6 volume 1
0.1,858476762157242.6,970941579421749.6,55300119698977.766,57164697565528.79,0.0,0.0,0.0,0.0
0.202,1284729668282467.0,1470181143188702.5,82757865635697.95,85548248380770.2,39590248687.37874,68114997354.4595,837145023123.8634,16200510620600.402
0.30604000000000003,1602731511223759.5,1855902244590485.8,103242450416348.48,106723520803404.48,99762136243.3464,171644104682.8366,2109541405333.624,40823814500711.41
0.41216080000000005,1866190896832343.0,2186885537530429.5,120213597720170.08,124266891641758.31,175980486103.22604,302786462301.8794,3721315395185.1846,72014068992565.69
0.5204040160000001,2095324874888141.8,2485062262537692.5,134973620350443.42,139524584355481.12,266087514296.86133,457831210987.1437,5626860985101.358,108888403233238.31
0.6308120963200001,2300260824803579.5,2761334247028304.5,148174889250952.12,153170966164533.3,368807615311.79126,634585163059.8014,7799224676522.326,150924949354347.22
0.7434283382464002,2486915448256260.5,3022030111916681.0,160198537990141.1,165600021483692.47,483301806894.8278,831606294928.3654,10220684923896.979,197780511160868.97
0.8582969050113283,2659097673589803.0,3271203879458306.0,171289924628980.53,177065381218169.44,608983493498.1346,1047886803331.3876,12878856842032.115,249215172882498.5
0.9754628431115548,2819429648313939.5,3511637037709656.0,181617958889675.94,187741650292489.53,745427064679.1248,1282695869845.6262,15764759761090.822,305054897517931.06
1.094972099973786,2969807640819126.5,3745337734200021.5,191304791858623.44,197755098414130.03,892316889096.3564,1535491919076.2856,18871738870983.344,365170655428986.1
1.2168715419732616,3111655736829121.5,3973814318965715.5,200442158239165.88,207200553345128.7,1049416396726.8152,1805869434855.0457,22194811588936.945,429465773131779.8
1.3412089728127268,3246075860941507.0,4198236389587310.0,209101040223156.9,216151390614606.03,1216548149866.621,2093524680422.8655,25730246259640.598,497867778718110.44
1.4680331522689813,3373941604857435.0,4419535078240350.0,217337711582741.2,224665781401815.84,1393580372629.1113,2398232529087.1226,29475277404535.36,570322890092105.5
1.597393815314361,3495959616748670.5,4638468389002852.0,225197692162201.75,232790780363305.25,1580417495523.95,2719830201949.9736,33427905859842.695,646792146171352.8
1.729341691620648,3612711284180597.0,4855665377985077.0,232718432948464.0,240565101237108.22,1776993311474.4946,3058205498046.743,37586754126843.21,727248606682540.8
1.863928525453061,3724681929301884.5,5071656973195230.0,239931196724784.38,248021060907247.12,1983265894695.7283,3413288057115.459,41950958993555.91,811675273315939.0
2.001207095962122,3832281804507555.0,5286898052375775.0,246862410539134.47,255185977473882.28,2199213747287.2427,3785042734414.553,46520090113757.055,900063513259745.6
2.1412312378813647,3935861538428169.0,5501783624368948.0,253534660681691.38,262083198778886.4,2424832823842.984,4173464486027.3213,51294087150098.16,992411842020225.4
2.284055862638992,4035723725987355.5,5716660927632815.0,259967439276473.06,268732874170636.2,2660134198518.919,4578574359443.201,56273210501255.14,1088724969139135.4
2.4297369798917723,4132131777333775.0,5931838636219547.0,266177714299090.3,275152543741296.72,2905142211667.014,5000416309212.052,61458002169390.55,1189013040155119.2
2.578331719489608,4225316778473610.0,6147593974756410.0,272180371515098.6,281357595166199.56,3159892980784.138,5439054639421.46,66849254331424.64,1293291027649873.0
2.7298983538794,4315482883637861.0,6364178294559365.0,277988561837740.56,287361622773600.25,3424433192569.796,5894571929872.377,72447983855107.33,1401578237332602.5
2.884496320956988,4402811605928267.5,6581821498958826.0,283613977716601.06,293176713252447.94,3698819114935.7207,6367067340758.379,78255411467049.56,1513897904138757.2
3.0421862473761276,4487465269308088.5,6800735595587759.0,289067075502975.5,298813675515341.4,3983115783291.54,6856655217285.013,84272944607168.11,1630276859653617.2
3.2030299723236504,4569589813836599.0,7021117577684331.0,294357256153430.4,304282227494945.56,4277396326498.0815,7363463934704.0,90502163237981.8,1750745256700169.8
3.3670905717701234,4649317096210911.0,7243151783579879.0,299493013422785.94,309591149333675.0,4581741405921.962,7887634938071.405,96944808047222.7,1875336340221297.2
3.5344323832055258,4726766792206264.0,7467011845992625.0,304482056412780.8,314748410064368.6,4896238746956.164,8429321941241.463,103602770607616.08,2004086256013400.8
3.7051210308696363,4802047981977898.0,7692862315680528.0,309331411691763.9,319761273173206.9,5220982746803.929,8988690257233.28,110478085151401.61,2137033890682225.0
3.879223451487029,4875260480417784.0,7920860024231667.0,314047508991697.7,324636385186188.7,5556074145677.661,9565916237877.793,117572921688083.58,2274220737564363.5
4.0568079205167695,4946495960838785.0,8151155236137102.0,318636253592027.06,329379850493608.94,5901619751131.861,10161186805068.285,124889580248171.03,2415690784408310.5
4.237944078927105,5015838909815277.0,8383892629339139.0,323103087827223.8,333997294931472.1,6257732207233.018,10774699059352.678,132430486077633.28,2561490419420939.5
4.422702960505647,5083367443088908.0,8619212135161406.0,327453043644635.7,338493920111457.1,6624529801820.283,11406659954270.512,140198185640562.3,2711668352919759.5
4.61115701971576,5149154006382984.0,8857249662195684.0,331690787748533.75,342874550087109.4,7002136306330.593,12057286026940.166,148195343313347.44,2866275552330425.5
4.803380160110075,5213265980280141.0,9098137723837128.0,335820660564247.8,347143671631745.25,7390680843631.845,12726803177067.219,156424738674160.53,3025365188666133.5
4.9994477633122765,5275766204661908.0,9342005985361600.0,339846710020768.9,351305469160116.9,7790297780083.83,13415446487882.445,164889264307982.47,3188992592942855.5
5.199436718578522,5336713435336444.0,9588981743459654.0,343772720965125.94,355363855134566.2,8201126638672.503,14123460083593.44,173591924060609.94,3357215221240688.0
5.403425452950093,5396162743204151.0,9839190348788752.0,347602240875273.0,359322496644885.6,8623312030570.952,14851097018809.113,182535831685844.06,3530092627329207.5
5.611493962009095,5454165864497421.0,1.009275558023181e+16,351338602421315.6,363184838730248.25,9057003602895.602,15598619196109.156,191724209838845.12,3707686441944967.5
5.823723841249277,5510771509172204.0,1.034979997805135e+16,354984943331045.8,366954124914563.5,9502356000767.373,16366297308519.828,201160389375828.47,3890060357948436.0
6.040198318074262,5566025633353176.0,1.0610445141917254e+16,358544223939919.1,370633415348186.25,9959528842069.016,17154410804140.273,210847808926278.94,4077280120703468.0
6.261002284435747,5619971680776564.0,1.0874811998806724e+16,362019242743967.3,374225602885242.0,10428686703525.137,17963247870569.57,220790014708785.88,4269413523118048.0
6.486222330124463,5672650797392780.0,1.114302104497546e+16,365412650223766.6,377733427373695.8,10909999116925.572,18793105437120.055,230990660565771.8,4466530404865379.0
6.715946776726952,5724102022648510.0,1.1415192565542052e+16,368726961166172.0,381159488392550.44,11403640574478.928,19644289193086.51,241453508195851.06,4668702655371382.0
6.950265712261491,5774362460437068.0,1.1691446834688828e+16,371964565676341.6,384506256635168.0,11909790542419.875,20517113620578.797,252182427565495.0,4876004220211747.0
7.18927102650672,5823467432264971.0,1.197190429903378e+16,375127739044216.1,387776084108413.75,12428633482112.262,21411902040628.83,263181397484165.72,5088511110609292.0
7.433056447036854,5871450614816361.0,1.2256685746357584e+16,378218650605932.44,390971213292861.56,12960358877989.29,22328986671454.344,274454506329200.03,5306301415763793.0
7.681717575977592,5918344163788456.0,1.2545912461556966e+16,381239371720885.8,394093785388819.56,13505161271757.43,23268708697907.832,286005952908529.0,5529455317780625.0
7.935351927497144,5964178825613526.0,1.2839706371437472e+16,384191882968466.3,397145847755724.2,14063240302363.475,24231418351268.598,297840047450872.9,5758055108995255.0
8.194058966047088,6008984038464104.0,1.3138190179736662e+16,387078080654478.0,400129360637934.44,14634800751287.361,25217474998639.95,309961212714380.75,5992185211515846.0
8.45794014536803,6052788023753820.0,1.3441487493585352e+16,389899782705297.9,403046203257633.2,15220052592776.98,26227247241311.883,322373985205856.2,6231932198828663.0
8.72709894827539,6095617869188410.0,1.3749722942455234e+16,392658734017743.6,405898179345069.1,15819211048688.82,27261113021527.16,335083016503686.9,6477384819330128.0
9.0016409272409,6137499604287928.0,1.4063022290508952e+16,395356611323951.9,408687022167476.5,16432496647638.604,28319459737163.152,348093074678484.56,6728634021666303.0
9.281673745785717,6178458269185783.0,1.4381512543152704e+16,397995027623173.0,411414399110293.94,17060135288201.826,29402684363900.18,361409045806201.3,6985772981775133.0
9.567307220701432,6218517977411923.0,1.470532204849479e+16,400575536226049.4,414081915857805.9,17702358305934.88,30511193584505.023,375035935569154.06,7248897131539397.0
9.85865336511546,6257701973282223.0,1.503458059432779e+16,403099634451448.5,416691120214621.4,18359402544015.258,31645403924901.875,388978870940968.8,7518104188969596.0
10.155826432417769,6296032684443080.0,1.5369419501181104e+16,405568767011191.75,419243505604531.6,19031510427323.13,32805741896748.844,403243101951980.4,7793494189846230.0
10.458942961066125,6333531770055870.0,1.5709971711926004e+16,407984329113946.1,421740514279049.7,19718930039806.645,33992644146273.027,417834003532085.06,8075169520758970.0
10.768121820287448,6370220165051426.0,1.6056371878362742e+16,410347669315936.0,424183540264252.44,20421915204993.605,35206557609149.695,432757077428437.8,8363234953488554.0
11.083484256693197,6406118120836012.0,1.6408756445170478e+16,412660092143082.9,426573932071320.06,21140725569527.715,36447939671242.87,448017954195747.8,8657797680683556.0
11.405153941827061,6441245242788100.0,1.6767263731560598e+16,414922860506424.06,428912995193405.06,21875626689622.062,37717258335048.586,463622395257266.6,8958967352790715.0
11.733257020663602,6475620524848942.0,1.7132034010937536e+16,417137197930311.2,431201994408953.25,22626890120335.63,39014992391705.69,479576295034825.56,9266856116202446.0
12.067922161076874,6509262381476953.0,1.7503209588840482e+16,419304290610805.9,433442155909508.5,23394793507591.49,40341631598460.78,495885683146549.9,9581578652590604.0
12.409280604298411,6542188677207895.0,1.7880934879410124e+16,421425289319845.8,435634669268080.56,24179620682862.812,41697676861492.766,512556726671115.4,9903252219398844.0
12.75746621638438,6574416754037703.0,1.8265356480602772e+16,423501311169149.75,437780689262523.4,24981661760465.766,43083640424019.234,529595732477618.2,1.0231996691471338e+16
13.112615540712067,6605963456822533.0,1.8656623248350724e+16,425533441246399.1,439881337566890.1,25801213237402.71,44500046059620.49,547009149620307.9,1.0567934603797546e+16
13.474867851526309,6636845156870974.0,1.9054886369849164e+16,427522734134977.7,441937704322400.06,26638578095710.23,45947429270736.01,564803571797632.2,1.0911191195356714e+16
13.844365208556836,6667077773886313.0,1.9460299436135624e+16,429470215327401.8,443950849598544.94,27494065907270.438,47426337492293.93,582985739875164.9,1.126189445404867e+16
14.221252512727972,6696676796400682.0,1.987301851410912e+16,431376882541631.56,445921804753770.3,28367992941050.797,48937330300451.23,601562544472164.0,1.1620175162699368e+16
14.605677562982532,6725657300829982.0,2.0293202218126396e+16,433243706948510.1,447851573704303.3,29260682272744.06,50480979626431.305,620541028611623.0,1.1986166946132796e+16
14.997791114242183,6754033969265146.0,2.0721011781300024e+16,435071634317829.44,449741134108864.0,30172463896783.027,52057869975452.51,639928390433776.4,1.2360006319302178e+16
15.397746936527026,6781821106105506.0,2.115661112661195e+16,436861586089783.3,451591438476242.2,31103674840710.496,53668598650755.87,659731985973204.2,1.274183273647574e+16
15.805701875257567,6809032653629276.0,2.1600166937947748e+16,438614460377972.56,453403415202119.1,32054659281887.31,55313775982740.945,679959331999661.6,1.3131788641474092e+16
16.221815912762718,6835682206587912.0,2.205184873114812e+16,440331132909517.8,455177969540887.7,33025768666527.402,56994025563234.13,700618108922989.4,1.3530019518957076e+16
16.64625223101797,6861783025903013.0,2.251182892516719e+16,442012457907368.7,456915984517698.0,34017361831047.78,58709984484914.03,721716163762442.4,1.3936673946760692e+16
17.079177275638333,6887348051537306.0,2.2980282913419376e+16,443659268919407.7,458618321785527.75,35029805125728.82,60462303585929.89,743261513180905.2,1.4351903649284526e+16
17.5207608211511,6912389914604976.0,2.345738913539249e+16,445272379598560.6,460285822431588.0,36063472540678.5,62251647699751.24,765262346584538.9,1.4775863551932364e+16
17.97117603757412,6936920948781018.0,2.3943329148597696e+16,446852584437736.75,461919307737048.4,37118745834099.89,64078695910296.04,787727029288439.4,1.5208711836609038e+16
18.430599558325603,6960953201063335.0,2.443828770092253e+16,448400659463105.1,463519579893686.5,38196014662860.46,65944141812386.65,810664105749006.4,1.5650609998278132e+16
18.899211549492115,6984498441937934.0,2.4942452803449348e+16,449917362888874.2,465087422680747.2,39295676715365.64,67848693777589.586,834082302863730.6,1.6101722902585128e+16
19.37719578048196,7007568174991614.0,2.5456015803797412e+16,451403435736538.06,466623602105065.8,40418137846738.47,69793075225501.266,857990533339214.5,1.6562218844552724e+16
19.864739696091597,7030173646014595.0,2.5979171460042264e+16,452859602421212.1,468128867007177.06,41563812216310.62,71778024900541.28,882397899128238.4,1.7032269608354156e+16
20.36203449001343,7052325851630229.0,2.6512118015264308e+16,454286571307545.56,469603949635964.6,42733122427428.984,73804297154323.28,907313694936810.8,1.7512050528172012e+16
20.869275179813698,7074035547487179.0,2.7055057272775216e+16,455685035237423.7,471049566194163.5,43926499669585.625,75872662233677.84,932747411802116.9,1.8001740550151066e+16
21.38666068340997,7095313256045611.0,2.7608194672065924e+16,457055672031531.1,472466417356833.4,45144383862876.49,77983906574399.23,958708740742365.1,1.8501522295452396e+16
21.91439389707817,7116169273986957.0,2.817173936552167e+16,458399144966666.3,473855188764761.44,46387223804798.37,80138833100800.31,985207576479606.5,1.90115821244181e+16
22.452681775019734,7136613679274085.0,2.874590429594256e+16,459716103230527.06,475216551494587.25,47655477319388.66,82338261531155.27,1012254021236540.5,1.9532110201856308e+16
23.00173541052013,7156656337886564.0,2.93309062749106e+16,461007182355577.7,476551162507300.56,48949611408722.14,84583028689118.12,1039858388608507.9,2.0063300563454788e+16
23.561770118730532,7176306910253800.0,2.992696606203808e+16,462273004633446.56,477859665076605.1,50270102406767.836,86873988821203.55,1068031207511752.8,2.0605351183334516e+16
24.133005521105144,7195574857407021.0,3.053430844513353e+16,463514179511220.5,479142689198578.06,51617436135617.016,89212013920426.31,1096783226209234.0,2.1158464042751372e+16
24.715665631527248,7214469446869471.0,3.1153162321318492e+16,464731303970864.4,480400851983885.94,52992108064091.08,91597994056188.8,1126125416415158.0,2.1722845199958868e+16
25.309978944157795,7232999758302329.0,3.1783760779126996e+16,465924962892916.44,481634758033737.2,54394623468737.86,94032837710516.77,1156068977479532.8,2.229870486123924e+16
25.91617852304095,7251174688923051.0,3.242634118161757e+16,467095729405519.6,482844999800683.5,55825497597221.68,96517472120744.66,1186625340654040.0,2.2886257453116324e+16
26.53450209350177,7269002958710969.0,3.308114525052826e+16,468244165219745.4,484032157935253.3,57285255834120.02,99052843628747.36,1217806173440578.0,2.3485721695758844e+16
27.165192135371807,7286493115414400.0,3.374841915150185e+16,469370820952134.9,485196801619363.1,58774433869127.5,101639918036828.33,1249623384023811.2,2.409732067758619e+16
27.808495978079243,7303653539371825.0,3.4428413580407836e+16,470476236435264.44,486339488887360.75,60293577867678.984,104279680970368.8,1282089125789192.0,2.472128193108607e+16
28.464665897640828,7320492448159316.0,3.5121383850787256e+16,471560941017114.7,487460766935482.06,61843244643994.07,106973138247345.56,1315215801927771.5,2.5357837509856268e+16
29.133959215593645,7337017901074986.0,3.5827589982445492e+16,472625453849947.0,488561172420469.5,63424001836548.64,109721316254831.56,1349016070129408.0,2.600722406687937e+16
29.816638399905518,7353237803470960.0,3.654729679121499e+16,473670284169349.94,489641231748030.75,65036428085977.42,112525262332588.08,1383502847365713.2,2.666968293404243e+16
30.51297116790363,7369159910941945.0,3.7280773979912824e+16,474695931564054.9,490701461351748.44,66681113215410.3,115386045163869.22,1418689314764388.8,2.734546020291132e+16
31.223230591261704,7384791833379347.0,3.8028296230512296e+16,475702886237089.4,491742367963034.6,68358658413241.94,118304755173550.11,1454588922576380.5,2.803480680676965e+16
31.947695203086937,7400141038899014.0,3.879014329755243e+16,476691629258783.9,492764448872681.25,70069676418336.81,121282504933701.05,1491215395237498.5,2.8737978603932476e+16
32.686649107148675,7415214857650015.0,3.956660010280191e+16,477662632812126.3,493768192184474.5,71814791707667.38,124320429576727.02,1528582736526061.5,2.9455236462344864e+16
33.44038208929165,7430020485511520.0,4.035795683119903e+16,478616360430898.3,494754077061365.94,73594640686380.4,127419687216194.95,1566705234818232.2,3.0186846345474468e+16
34.20918973107749,7444564987684109.0,4.116450902808432e+16,479553267231019.4,495722573964614.3,75409871880291.28,130581459375474.55,1605597468442604.0,3.093307939950619e+16
34.993373525699035,7458855302181757.0,4.1986557697744904e+16,480473800135478.56,496674144886313.06,77261146130793.73,133806951424313.48,1645274311135840.5,3.1694212041850264e+16
35.793240996213015,7472898243229716.0,4.2824409403284e+16,481378398093229.1,497609243575642.9,79149136792180.69,137097393023481.22,1685750937600928.2,3.247052605096874e+16
36.60910581613728,7486700504573890.0,4.3678376367835384e+16,482267492292352.9,498528315759242.94,81074529931364.25,140454038577603.92,1727042829169866.0,3.3262308657531068e+16
37.44128793246003,7500268662706095.0,4.454877657713332e+16,483141506367833.9,499431799355980.94,83038024529980.83,143878167696324.72,1769165779572523.8,3.4069852636904572e+16
38.29011369110923,7513609180010245.0,4.543593388345461e+16,484000856604208.44,500320124686445.2,85040332688868.98,147371085663918.25,1812135900813330.2,3.489345640298761e+16
39.15591596493141,7526728407833030.0,4.634017811094498e+16,484845952133383.4,501193714677418.56,87082179834898.84,150934123917496.4,1855969629157758.2,3.5733424103390904e+16
40.03903428423004,7539632589483564.0,4.726184516234086e+16,485677195127856.6,502052985061624.1,89164304930136.44,154568640533934.06,1900683731230259.8,3.6590065715973496e+16
40.93981496991464,7552327863165337.0,4.820127712710037e+16,486494980989579.3,502898344572954.25,91287460683314.8,158276020725655.16,1946295310225584.2,3.7463697146737944e+16
41.85861126931294,7564820264843924.0,4.915882239095014e+16,487299698534690.7,503730195137432.1,93452413763593.7,162057677345415.44,1992821812235283.2,3.835464032908971e+16
42.7957834946992,7577115731053743.0,5.013483574685984e+16,488091730174318.75,504548932060107.3,95659945016571.27,165915051400216.6,2040281032691305.0,3.926322332446359e+16
43.751699164593184,7589220101646882.0,5.112967850745272e+16,488871452091641.6,505354944208093.2,97910849682519.34,169849612574493.34,2088691122928546.8,4.0189780424320456e+16
44.72673314788505,7601139122486527.0,5.214371861885672e+16,489639234415402.9,506148614189923.9,100205937616808.97,173862859762715.78,2138070596868324.0,4.1134652253517e+16
