t(s),Total solute volume 1,Total retention volume 1,Total 1 volume 1,Total 2 volume 1,Total 3 volume 1,Total 4 volume 1,Total 5 volume 1,Total 6 volume 1
0.1,1117071271046687.6,1512117690109863.2,171218609237430.47,223827809825744.56,0.0,0.0,0.0,0.0
0.202,1681586076713497.8,2277360050163162.5,257744370216570.22,336939771663481.7,727158434.017213,1795250741.0793047,37914707270.09654,1049394453168.2544
0.30604000000000003,2111411710455361.0,2860866280897480.0,323625706386076.1,423064029479581.0,1844284555.2146611,4553280686.303141,96165439573.3565,2662271571649.511
0.41216080000000005,2474711948727065.0,3354790971746325.0,379310391559874.06,495858578578800.1,3274914891.160122,8085310496.579138,170763937683.36063,4727928717513.997
0.5204040160000001,2797084273155089.0,3793732879268884.5,428721868612109.9,560452392404890.25,4984972904.8263,12307209810.404408,259933155846.11752,7197119758236.755
0.6308120963200001,3091289999973122.5,4194938710120813.0,473816122724519.94,619402458801415.8,6956074354.5113,17173590536.696535,362714413100.80396,10043284543765.186
0.7434283382464002,3364747800580847.0,4568434790531716.0,515730247517037.8,674195258624545.4,9177607531.010315,22658253942.17829,478554349165.7905,13251093598639.508
0.8582969050113283,3622210342412134.0,4920645400831736.0,555192706014316.7,725783084908971.6,11643477656.893394,28746152998.075024,607135146860.3575,16811742718795.043
0.9754628431115548,3866934078583722.0,5255973847045514.0,592702629644670.6,774818433889746.5,14350502055.06083,35429430265.176414,748290843792.281,20720634151265.08
1.094972099973786,4101263296312656.0,5577591720795838.0,628619338006548.1,821771030916505.1,17297520861.77025,42705222364.32181,901960958825.969,24976091858073.125
1.2168715419732616,4326950823769984.5,5887872220179893.0,663211495071548.0,866992090558016.5,20484862229.184143,50574339634.37884,1068162604346.9675,29578588974133.004
1.3412089728127268,4545347215233085.0,6188645726859427.0,696686106456030.8,910752223673565.6,23914000740.090187,59040422805.186226,1246972673956.0278,34530254399236.582
1.4680331522689813,4757518783993223.0,6481359238062294.0,729206610863448.4,953265087692991.1,27587328991.962845,68109379070.362686,1438515931550.898,39834542873025.89
1.597393815314361,4964324639664650.0,6767180410313835.0,760904687944249.8,994702822599476.5,31507999313.847267,77788991308.58865,1642956757569.1528,45496006357276.16
1.729341691620648,5166468868915113.0,7047068024423151.0,791888256274538.4,1035206506394098.4,35679810970.172554,88088639605.96596,1860493267191.6763,51520131121628.664
1.863928525453061,5364536995355362.0,7321821215985541.0,822247061729685.5,1074893460571987.4,40107127997.90384,99019098407.95746,2091353025946.6694,57913219076162.484
2.001207095962122,5559022136992006.0,7592114791987774.0,852056686756508.5,1113862491296958.5,44794818338.84938,110592386246.19084,2335789875764.032,64682299861951.96
2.1412312378813647,5750344204163089.0,7858525149515984.0,881381492928431.1,1152197736096104.2,49748208183.96976,122821653021.66101,2594081554268.758,71835064912888.58
2.284055862638992,5938864271286955.0,8121549678211562.0,910276823769016.2,1189971543530295.5,54973047444.95752,135721094759.67532,2866527894311.5864,79379817588769.2
2.4297369798917723,6124895524322903.0,8381621539923659.0,938790682719206.6,1227246666739298.2,60475483537.49836,149305888885.2483,3153449456916.417,87325435312911.58
2.578331719489608,6308711729132309.0,8639121102030307.0,966965031121680.4,1264077960249164.5,66262041490.64578,163592145116.84775,3455186494105.7915,95681340846443.02
2.7298983538794,6490553872613345.0,8894384904689483.0,994836806137863.2,1300513710657854.5,72339608953.69962,178596868451.4498,3772098167109.1245,104457480635901.42
2.884496320956988,6670635435347920.0,9147712781420272.0,1022438728910588.8,1336596693116674.0,78715425054.28996,194337931657.75046,4104561965394.001,113664308722973.8
3.0421862473761276,6849146624472083.0,9399373576804572.0,1049799953355451.0,1372365019471447.0,85397072329.16864,210834055355.50992,4452973285925.524,123312775091994.97
3.2030299723236504,7026257806174291.0,9649609784496796.0,1076946592275478.9,1407852826032963.2,92392471140.19809,228104794230.5743,4817745142018.026,133414317606693.06
3.3670905717701234,7202122314773475.0,9898641344397840.0,1103902147921358.8,1443090836432559.0,99709876126.51251,246170528276.97955,5199307978364.551,143980856887670.75
3.5344323832055258,7376878770935411.0,1.0146668777910018e+16,1130687867315009.0,1478106826123642.8,107357874345.70378,265052458209.08917,5598109574142.331,155024793629258.16
3.7051210308696363,7550653009555094.0,1.0393875796945344e+16,1157323037744941.5,1512926008671914.5,115345384832.87402,284772604374.3087,6014615020054.4,166559007964119.62
3.879223451487029,7723559694406447.0,1.0640431490733498e+16,1183825234250963.2,1547571359283092.2,123681659363.75526,305353808638.55316,6449306758159.151,178596860566856.1
4.0568079205167695,7895703679308452.0,1.0886492171054624e+16,1210210528256328.0,1582063887540052.2,132376284251.91109,326819738824.7817,6902684675624.019,191152195251092.8
4.237944078927105,8067181162556734.0,1.1132202938973108e+16,1236493664512730.2,1616422868716560.2,141439183043.8226,349194895368.37115,7375266245301.038,204239342863374.7
4.422702960505647,8238080671524357.0,1.1377699022863382e+16,1262688212014573.8,1650666041061923.5,150880620002.00342,372504619918.0871,7867586707396.323,217873126315201.22
4.61115701971576,8408483906804478.0,1.162310692735309e+16,1288806693384548.5,1684809774942074.5,160711204286.9667,396775105662.52515,8380199287583.309,232068866624444.1
4.803380160110075,8578466469455501.0,1.1868545424967952e+16,1314860696341832.2,1718869218557814.8,170941894765.28964,422033409202.37256,8913675447765.992,246842389861045.6
4.9994477633122765,8748098490381772.0,1.2114126416152312e+16,1340860970170123.2,1752858424053975.8,181584005384.0997,448307463821.187,9468605166380.492,262210034910850.6
5.199436718578522,8917445177331077.0,1.2359955678548354e+16,1366817509558459.0,1786790457121431.8,192649211062.85928,475626094033.39905,10045597245673.818,278188661986616.25
5.403425452950093,9086567292179738.0,1.260613352262421e+16,1392739627756875.2,1820677492630806.8,204149554061.85248,504019031309.3403,10645279643842.625,294795661827585.06
5.611493962009095,9255521568938220.0,1.2852755367723604e+16,1418636020646017.2,1854530898388355.2,216097450793.73068,533516930894.2121,11268299830278.053,312048965539036.9
5.823723841249277,9424361081115534.0,1.3099912250187808e+16,1444514823044788.0,1888361308744864.8,228505699050.17572,564151389652.0408,11915325162459.658,329967055031468.8
6.040198318074262,9593135565632994.0,1.3347691273249004e+16,1470383658358056.8,1922178689498294.0,241387485620.43692,595954964877.2277,12587043283286.791,348568974025860.7
6.261002284435747,9761891709302098.0,1.359617600680722e+16,1496249682486457.2,1955992395295442.0,254756394282.38467,628961194025.9161,13284162537837.54,367874339597051.5
6.486222330124463,9930673402922518.0,1.384544684391144e+16,1522119622773119.8,1989811220545600.5,268626414149.96826,663204615327.3809,14007412408716.342,387903354231979.94
6.715946776726952,1.0099521967268382e+16,1.409558131970184e+16,1547999812641646.2,2023643444701475.8,283011948363.6657,698720789242.3728,14757543969289.363,408676818383430.1
6.950265712261491,1.026847635458218e+16,1.4346654397696032e+16,1573896222479990.0,2057496872632573.0,297927823112.7824,735546320740.8768,15535330354228.832,430216143503189.06
7.18927102650672,1.0437573328657434e+16,1.4598738727575928e+16,1599814487242536.2,2091378870708399.0,313389296980.38043,773718882376.5393,16341567246883.977,452543365541310.7
7.433056447036854,1.0606847626143212e+16,1.4851904878028588e+16,1625759931173989.5,2125296399119079.5,329412070603.21234,813277238138.9788,17177073383082.107,475681158900489.6
7.681717575977592,1.0776332101329132e+16,1.5106221547688656e+16,1651737590001250.5,2159256040885967.5,346012296640.43915,854261268068.5535,18042691071035.312,499652850836554.25
7.935351927497144,1.0946057856355496e+16,1.5361755756807104e+16,1677752230891275.0,2193264027951862.5,363206590046.02563,896711993621.0739,18939286727086.605,524482436297733.3
8.194058966047088,1.1116054358527228e+16,1.5618573021913146e+16,1703808370432370.5,2227326264687263.8,381012038640.7324,940671603772.3394,19867751427083.71,550194593196797.3
8.45794014536803,1.1286349546187376e+16,1.5876737515433914e+16,1729910290861856.2,2261448349104219.5,399446213980.4639,986183481854.5122,20829001473210.215,576814698111404.1
8.72709894827539,1.1456969924414292e+16,1.6136312211980322e+16,1756062054734052.8,2295635592031243.0,418527182518.42444,1033292233118.0594,21823978976142.914,604368842408984.4
9.0016409272409,1.1627940651645362e+16,1.6397359022788842e+16,1782267518197462.5,2329893034470088.0,438273517059.1764,1082043713014.5526,22853652452435.246,632883848793419.1
9.281673745785717,1.1799285618191216e+16,1.665993891962113e+16,1808530343029010.0,2364225463327655.5,458704308503.18585,1132485056196.8787,23919017437054.21,662387288271481.6
9.567307220701432,1.1971027517484958e+16,1.6924112049264854e+16,1834854007554766.8,2398637425692272.0,479839177880.93134,1184664706234.5068,25021097111021.254,692907497537713.9
9.85865336511546,1.2143187910809906e+16,1.7189937839639782e+16,1861241816571009.8,2433133241803145.5,501698288675.9639,1238632446042.4202,26160942944127.64,724473596776859.9
10.155826432417769,1.2315787286159766e+16,1.7457475098394752e+16,1887696910366036.5,2467717016844208.0,524302359436.68365,1294439429023.0542,27339635352710.176,757115507883555.1
10.458942961066125,1.2488845111809912e+16,1.7726782104778734e+16,1914222272931272.5,2502392651678212.0,547672676676.8314,1352138210921.303,28558284372489.184,790863973099225.2
10.768121820287448,1.2662379885111788e+16,1.7997916695479226e+16,1940820739440186.0,2537163852623678.5,571831108064.9321,1411782782393.1353,29818030346480.01,825750574066617.1
11.083484256693197,1.2836409176965144e+16,1.8270936345044356e+16,1967495003064770.2,2572034140365771.0,596800115903.0862,1473428602288.8823,31120044628000.47,861807751302489.5
11.405153941827061,1.3010949672372232e+16,1.854589824143662e+16,1994247621191484.2,2607006858082218.5,622602770895.6924,1537132631652.5999,32465530298803.395,899068824089348.1
11.733257020663602,1.3186017207435564e+16,1.8822859357208276e+16,2021081021092029.0,2642085178856504.5,649262766208.7625,1602953368439.1587,33855722902370.496,937568010787173.4
12.067922161076874,1.3361626803120376e+16,1.9101876516734996e+16,2047997505098300.5,2677272112442867.5,676804431820.5978,1670950882950.9702,35291891192406.98,977340449566295.8
12.409280604298411,1.353779269607143e+16,1.9383006459900724e+16,2074999255325838.2,2712570511441115.5,705252749164.6826,1741186853996.4844,36775337896582.17,1018422219562616.2
12.75746621638438,1.3714528366743106e+16,1.966630590258533e+16,2102088337985402.5,2747983076932987.5,734633366065.6201,1813724605772.531,38307400495559.93,1060850362456419.9
13.112615540712067,1.3891846565075396e+16,1.9951831594271796e+16,2129266707318508.2,2783512363626926.0,764972611969.0496,1888629145472.8088,39889452017368.33,1104662904476162.9
13.474867851526309,1.406975933392655e+16,2.023964037305947e+16,2156536209189003.0,2819160784553242.0,796297513466.4458,1965967201624.7217,41522901847153.98,1149898878828461.5
13.844365208556836,1.424827803045144e+16,2.052978921834028e+16,2183898584359860.5,2854930615347703.5,828635810115.63,2045807263156.7705,43209196552368.53,1196598348555639.8
14.221252512727972,1.442741334559786e+16,2.082233530137253e+16,2211355471481460.8,2890823998158023.0,862015970557.9343,2128219619198.6704,44949820723432.66,1244802429822033.2
14.605677562982532,1.4607175321876182e+16,2.1117336033964572e+16,2238908409815214.0,2926842945204394.0,896467208932.7621,2213276399616.1514,46746297829919.96,1294553315630323.0
14.997791114242183,1.4787573369543946e+16,2.141484911545965e+16,2266558841714245.5,2962989342022340.0,932019501590.3546,2301051616282.3994,48600191092300.76,1345894299968925.2
15.397746936527026,1.4968616281334318e+16,2.171493257819912e+16,2294308114880943.0,2999264950413897.0,968703604103.4,2391621205087.8696,50513104369283.37,1398869802391484.2
15.805701875257567,1.5150312245845904e+16,2.201764483162306e+16,2322157484419180.0,3035671411130537.0,1006551068578.1821,2485063068689.945,52486683060784.18,1453525393029365.5
16.221815912762718,1.5332668859701598e+16,2.232304470515493e+16,2350108114698052.0,3072210246309443.0,1045594261265.7003,2581457120003.8228,54522615026554.766,1509907818037997.2
16.64625223101797,1.551569313857494e+16,2.263119149000455e+16,2378161081041867.5,3108882861682824.5,1085866380473.2534,2680885326435.649,56622631520489.65,1568065025477533.0
17.079177275638333,1.5699391527174442e+16,2.2942144980012256e+16,2406317371260553.5,3145690548578520.5,1127401474776.791,2783431754858.8296,58788508140630.71,1628046191628471.8
17.5207608211511,1.5883769908269452e+16,2.3255965511647188e+16,2434577887033029.5,3182634485728505.0,1170234461534.2214,2889182617333.8516,61022065794881.51,1689901747742480.5
17.97117603757412,1.6068833610834298e+16,2.357271400326481e+16,2462943445155542.0,3219715740900701.5,1214401145699.7905,2998226317572.1104,63325171682433.43,1753683407228542.0
18.430599558325603,1.625458741738167e+16,2.3892451993718216e+16,2491414778665657.5,3256935272368418.0,1259938238939.4702,3110653498143.369,65699740290905.984,1819444193274449.8
18.899211549492115,1.6441035570551208e+16,2.421524168041379e+16,2519992537852145.0,3294293930230463.5,1306883379047.1716,3226557088426.782,68147734409190.49,1887238466903329.0
19.37719578048196,1.6628181779014864e+16,2.4541145956893268e+16,2548677291160115.5,3331792457594463.5,1355275149661.5256,3346032353304.396,70671166155980.52,1957121955464843.8
19.864739696091597,1.6816029222755464e+16,2.487022845001711e+16,2577469526000072.0,3369431491634429.5,1405153100282.667,3469176942596.253,73272098023968.38,2029151781560324.8
20.36203449001343,1.7004580557771938e+16,2.5202553556823356e+16,2606369649469121.5,3407211564533662.0,1456557766588.5103,3596090941235.5854,75952643939674.66,2103386492401096.2
20.869275179813698,1.7193837920261372e+16,2.553818648112483e+16,2635377988991981.5,3445133104322630.5,1509530691049.7432,3726876920182.1294,78714970338874.14,2179886089598813.2
21.38666068340997,1.7383802930323838e+16,2.587719326991003e+16,2664494792888816.0,3483196435621340.0,1564114443842.5857,3861639988071.6084,81561297257568.61,2258712059386569.5
21.91439389707817,1.7574476695234834e+16,2.621964084960204e+16,2693720230876823.5,3521401780295011.5,1620352644058.2769,4000487843598.489,84493899438454.8,2339927403269227.0
22.452681775019734,1.776585981232603e+16,2.656559706223307e+16,2723054394511782.0,3559749258031318.5,1678289981208.0747,4143530828629.251,87515107452821.98,2423596669101278.0
23.00173541052013,1.7957952371513918e+16,2.6915130701583624e+16,2752497297575643.0,3598238886847051.5,1737972237022.3594,4290881982042.699,90627308837810.42,2509785982590151.0
23.561770118730532,1.8150753957513388e+16,2.7268311549334556e+16,2782048876415814.5,3636870583531643.5,1799446307542.3706,4442657094293.601,93832949248949.92,2598563079222900.5
24.133005521105144,1.8344263651771516e+16,2.7625210411277384e+16,2811708990241509.5,3675644164034633.5,1862760225502.7476,4598974762695.41,97134533627890.1,2689997336613709.0
24.715665631527248,1.853848003415494e+16,2.7985899153626576e+16,2841477421382476.0,3714559343803827.5,1927963183003.2185,4759956447417.7705,100534627385231.31,2784159807269686.0
25.309978944157795,1.8733401184423504e+16,2.8350450739471696e+16,2871353875514756.0,3753615738080453.0,1995105554467.2454,4925726528193.663,104035857598347.62,2881123251771937.0
25.91617852304095,1.892902468351995e+16,2.871893926541078e+16,2901337981858444.5,3792812862157695.0,2064238919885.617,5096412361731.051,107640914224093.44,2980962172369023.0
26.53450209350177,1.9125347614705656e+16,2.909143999839933e+16,2931429293351755.0,3832150131608191.5,2135416088342.6062,5272144339823.46,111352551326276.23,3083752846979271.0
27.165192135371807,1.9322366564571028e+16,2.9468029412849764e+16,2961627286805852.5,3871626862486527.5,2208691121822.3164,5453055948153.44,115173588317766.98,3189573363598642.5
27.808495978079243,1.952007762394678e+16,2.9848785228015664e+16,2991931363044565.5,3911242271511794.0,2284119359292.6313,5639283825782.587,119106911217118.53,3298503655110346.0
28.464665897640828,1.971847638874334e+16,3.023378644569049e+16,3022340847033041.5,3950995476235836.0,2361757441064.041,5830967825321.745,123155473919549.08,3410625534492353.5
29.133959215593645,1.991755796074349e+16,3.062311338825273e+16,3052854987999194.0,3990885495201962.5,2441663333420.592,6028251073774.149,127322299482149.17,3526022730418777.0
29.816638399905518,2.011731694837238e+16,3.101684773708514e+16,3083472959551800.5,4030911248099383.0,2523896353519.971,6231280034044.756,131610481423158.89,3644780923250895.5
30.51297116790363,2.0317747467469704e+16,3.141507257139654e+16,3114193859798794.5,4071071555917792.0,2608517194559.7793,6440204567107.994,136023185035158.05,3766987781413406.5
31.223230591261704,2.0518843142086304e+16,3.1817872407472404e+16,3145016711469423.5,4111365141107105.5,2695587951206.8184,6655177994826.518,140563648712010.52,3892732998151534.0
31.947695203086937,2.0720597105328544e+16,3.222533323838104e+16,3175940462043571.0,4151790627746492.5,2785172145286.171,6876357163413.119,145235185289397.47,4022108328664288.5
32.686649107148675,2.0923002000271544e+16,3.263754257415815e+16,3206963983891842.5,4192346541727536.0,2877334751726.9854,7103902507527.759,150041183398769.2,4155207627609190.5
33.44038208929165,2.1126049980963404e+16,3.305458948249623e+16,3238086074429449.0,4233031310955352.5,2972142224761.403,7337978115001.751,154985108834547.03,4292126886973711.0
34.20918973107749,2.132973271354113e+16,3.3476564629960028e+16,3269305456287209.5,4273843265572192.5,3069662524373.5273,7578751792180.737,160070505934400.12,4432964274308516.0
34.993373525699035,2.1534041377478284e+16,3.3903560323751616e+16,3300620777502816.0,4314780638207412.5,3169965142994.9575,7826395129878.406,165300998972428.12,4577820171317807.0
35.793240996213015,2.173896666698393e+16,3.4335670554046224e+16,3332030611735308.0,4355841564257895.0,3273121132443.4854,8081083569932.756,170680293565069.22,4726797212801622.0
36.60910581613728,2.1944498792573824e+16,3.4772991036920896e+16,3363533458505774.0,4397024082202719.0,3379203131101.743,8342996472356.363,176212178089565.62,4880000325945480.0
37.44128793246003,2.215062748283044e+16,3.5215619257895136e+16,3395127743467241.5,4438326133955894.5,3488285391332.36,8612317183073.209,181900525114814.94,5037536769952399.0
38.29011369110923,2.235734198637197e+16,3.5663654516105612e+16,3426811818706416.5,4479745565260908.5,3600443807126.4414,8889233102233.379,187749292844438.66,5199516176012466.0
39.15591596493141,2.2564631074048184e+16,3.6117197969131704e+16,3458583963080220.0,4521280126130654.0,3715755941982.212,9173935753098.521,193762526571902.16,5366050587605685.0
40.03903428423004,2.277248304137929e+16,3.657635267849407e+16,3490442382589688.5,4562927471336144.0,3834301057010.7017,9466620851490.174,199944360147532.2,5537254501132940.0
40.93981496991464,2.2980885711256764e+16,3.704122365584208e+16,3522385210793872.0,4604685160947697.0,3956160139265.532,9767488375793.986,206299017457275.0,5713244906871371.0
41.85861126931294,2.3189826436921404e+16,3.751191790984974e+16,3554410509266310.5,4646550660931547.0,4081415930294.002,10076742637512.727,212830813913051.84,5894141330249620.0
42.7957834946992,2.3399292105234904e+16,3.798854449383786e+16,3586516268096516.5,4688521343805515.0,4210152954906.9326,10394592352362.158,219544157954580.75,6080065873439044.0
43.751699164593184,2.360926914026139e+16,3.847121455413882e+16,3618700406438875.0,4730594489356505.0,4342457550164.654,10721250711903.441,226443552562532.53,6271143257257491.0
