t(s),Total solute volume 1,Total retention volume 1,Total 1 volume 1,Total 2 volume 1,Total 3 volume 1,Total 4 volume 1,Total 5 volume 1,Total 6 volume 1
0.1,1301436301972856.8,2401541677724917.5,422763850992510.6,677341524759550.8,0.0,0.0,0.0,-2.162416271574588e-76
0.202,1954258440025309.0,3612772930115921.5,634829260874066.4,1017107460969200.5,1579377386.481268,5331586811.44844,179147480631.6095,6391709802517.33
0.30604000000000003,2450932413906693.5,4539444853309576.0,796170856912126.1,1275604918595827.8,4001131384.5780854,13506934673.392605,454017454694.0274,16265138374174.57
0.41216080000000005,2869838289571293.5,5325459693916800.0,932249946536336.0,1493627417266912.2,7097929141.870653,23961116096.740456,805542432451.2859,28907439064567.543
0.5204040160000001,3240668737182072.0,6025287333556714.0,1052712018239610.5,1686628720811588.2,10794267074.283073,36439239727.896545,1225141324127.1152,44005482492512.99
0.6308120963200001,3578257689769990.5,6666125242770123.0,1162375787353347.2,1862329254887824.0,15048727353.996788,50801485163.47322,1708109054305.7104,61388551492134.56
0.7434283382464002,3891236292409668.5,7263796617969084.0,1264045030218920.8,2025221159820621.5,19836759317.197617,66964973426.47903,2251657148018.435,80955676639113.34
0.8582969050113283,4185135891255284.0,7828446025159806.0,1359516571850319.8,2178183263615695.5,25143589247.394634,84879831097.01733,2854107757254.8076,102646167260910.73
0.9754628431115548,4463746400953972.5,8367031115911795.0,1450021543552788.8,2323188053961487.5,30960720008.10809,104517373521.5776,3514495928088.3564,126425143421929.33
1.094972099973786,4729795210271033.0,8884567174582379.0,1536445921395597.8,2461655019471956.0,37283988027.46338,125863545472.23586,4232348871595.011,152275527038706.38
1.2168715419732616,4985320259104379.0,9384810600617466.0,1619451718070202.8,2594644820252715.5,44112392254.09527,148914967881.13626,5007552949152.489,180193222880881.94
1.3412089728127268,5231890250438643.0,9870662093932976.0,1699548517438632.8,2722973898763770.0,51447344032.818016,173676405540.58002,5840268475969.297,210184035066388.28
1.4680331522689813,5470742111510267.0,1.0344418184539372e+16,1777138127978267.5,2847286022449657.0,59292163573.4303,200159067264.71927,6730872535416.897,242261598834942.84
1.597393815314361,5702870752001414.0,1.0807935382394334e+16,1852543740199050.0,2968098999022085.0,67651729235.080154,228379421932.92355,7679919150469.888,276445940870135.7
1.729341691620648,5929089885961138.0,1.1262741350058886e+16,1926029684283968.2,3085836331655708.5,76532225896.15521,258358349030.1508,8688110708822.427,312762446874312.5
1.863928525453061,6150074545433862.0,1.171011257284941e+16,1997815240389257.5,3200849345504378.5,85940960011.99603,290120514314.6203,9756276961759.902,351241103085822.06
2.001207095962122,6366391591736206.0,1.2151130076648462e+16,2068084550051707.8,3313433067509059.5,95886220982.31316,323693901819.4645,10885359282253.207,391915927946442.2
2.1412312378813647,6578522116245270.0,1.2586720318884596e+16,2136993892951932.2,3423837885045135.5,106377175546.2368,359109457350.20306,12076398673775.713,434824539335590.5
2.284055862638992,6786878215145925.0,1.301768579952453e+16,2204677136091541.8,3532278276457174.0,117423786280.89159,396400813351.71643,13330526516332.652,480007820713925.3
2.4297369798917723,6991815771255117.0,1.3444728379670572e+16,2271249885892980.0,3638939463448910.5,129036748047.87491,435604074364.34595,14648957350630.986,527509660900526.56
2.578331719489608,7193644344313355.0,1.3868467321813642e+16,2336812701002052.0,3743982558554740.0,141227438043.09644,476757648402.6798,16032983207007.883,577376749650030.2
2.7298983538794,7392634929545446.0,1.4289453440595962e+16,2401453612610361.5,3847548603136978.5,154007876321.03522,519902113694.2362,17483969123791.889,629658416189374.2
2.884496320956988,7589026119317539.0,1.4708180341317286e+16,2465250126033059.5,3949761774263413.0,167390694499.10037,565080113032.8363,19003349594557.402,684406501301180.9
3.0421862473761276,7783029051216122.0,1.512509344632104e+16,2528270828062984.5,4050731959969644.5,181389110932.53384,612336269975.4679,20592625750139.465,741675255941236.2
3.2030299723236504,7974831421796174.0,1.5540597319103458e+16,2590576690812902.0,4150556848242419.5,196016911067.4519,661717122519.7339,22253363128649.996,801521261089730.9
3.3670905717701234,8164600772447136.0,1.5955061662929466e+16,2652222139109622.5,4249323637171603.0,211288431982.107,713271070920.0676,23987189921086.586,864003364777127.9
3.5344323832055258,8352487202067020.0,1.6368826276168982e+16,2713255931690065.0,4347110446780326.0,227218550349.07434,767048337052.4882,25795795605405.883,929182633138746.2
3.7051210308696363,8538625623883050.0,1.67822051783429e+16,2773721894316051.5,4443987493603144.5,243822673217.09528,823100933298.1028,27680929900786.566,997122313033343.8
3.879223451487029,8723137656432755.0,1.7195490070975066e+16,2833659534048328.0,4540018074860387.0,261116731136.7002,881482639338.8988,29644401988046.44,1067887804275072.6
4.0568079205167695,8906133218477728.0,1.7608953260397514e+16,2893104557344840.5,4635259398542121.0,279117173249.4832,942248985582.5613,31688079953050.54,1141546639920924.8
4.237944078927105,9087711882453152.0,1.8022850141977616e+16,2952089309720731.0,4729763287820472.0,297840964034.79517,1005457242182.55,33813890418338.055,1218168473358703.2
4.422702960505647,9267964029566526.0,1.8437421324276416e+16,3010643150975385.0,4823576782228855.0,317305581465.19586,1071166412814.0172,36023818334734.06,1297825071176647.5
4.61115701971576,9446971840869840.0,1.8852894455618544e+16,3068792777136286.0,4916742653472357.0,337529016367.2863,1139437232518.9492,38319906909852.37,1380590310981319.5
4.803380160110075,9624810151842528.0,1.926948580318311e+16,3126562498065240.0,5009299850201481.0,358529772820.4069,1210332169055.121,40704257654470.11,1466540183477535.2
4.9994477633122765,9801547192738018.0,1.968740162509358e+16,3183974477955592.5,5101283883330614.0,380326869454.39374,1283915427280.1877,43179030531011.66,1555752798241585.5
5.199436718578522,9977245232797554.0,2.010683936842481e+16,3241048944601222.0,5192727161323714.0,402939841530.64124,1360252956180.2183,45746444191001.055,1648308392713595.8
5.403425452950093,1.0151961143152726e+16,2.0527988720069468e+16,3297804372252083.0,5283659283160741.0,426388743709.44244,1439412458215.1345,48408776290464.6,1744289344011535.0
5.611493962009095,1.032574689062389e+16,2.095103253264435e+16,3354257642021770.5,5374107295338643.0,450694153421.856,1521463400704.9934,51168363874000.52,1843780183231890.8
5.823723841249277,1.049864997252507e+16,2.137614764380165e+16,3410424183131183.5,5464095918168444.0,475877174776.85236,1606477029023.4827,54027603819655.58,1946867611953458.5
6.040198318074262,1.067071380089292e+16,2.1803505604231412e+16,3466318097723169.5,5553647745750063.0,501959442944.87933,1694526381399.837,56988953337923.78,2053640520702961.0
6.261002284435747,1.0841978043184796e+16,2.223327332714173e+16,3521952271536161.0,5642783423290874.0,528963128967.5829,1785686305159.4958,60054930519158.945,2164190009176588.8
6.486222330124463,1.1012478925368318e+16,2.2665613669964852e+16,3577338472361072.5,5731521804850865.0,556910944950.5793,1880033474258.1067,63228114924510.98,2278609408040859.0
6.715946776726952,1.118224950240493e+16,2.3100685957363624e+16,3632487437906267.5,5819880094117648.0,585826149602.2753,1977646407983.7957,66511148216178.984,2396994302161015.5
6.950265712261491,1.1351319900370266e+16,2.3538646453233056e+16,3687408954448926.0,5907873970419708.0,615732554086.7748,2078605490719.9546,69906734823356.24,2519442555126043.0
7.18927102650672,1.1519717533824606e+16,2.397964878824827e+16,3742111927446580.5,5995517701858469.0,646654528163.2866,2182992992675.3787,73417642640733.05,2646054334957043.5
7.433056447036854,1.1687467301523336e+16,2.442384434855859e+16,3796604445112375.0,6082824247166927.0,678617006588.1433,2290893091501.0796,77046703756844.02,2776932140900987.5
7.681717575977592,1.1854591763116974e+16,2.4871382630432148e+16,3850893835815212.5,6169805347674725.0,711645495758.7239,2402391894723.917,80796815209909.34,2912180831224844.0
7.935351927497144,1.2021111299124914e+16,2.5322411564987176e+16,3904986720046120.0,6256471610567363.0,745766080581.2931,2517577462936.351,84670939769129.84,3051907651936128.5
8.194058966047088,1.2187044256154176e+16,2.577707781658328e+16,3958889057591745.0,6342832584466408.0,781005431547.2307,2636539833689.838,88672106739664.52,3196222266366036.5
8.45794014536803,1.2352407079072712e+16,2.6235527057970116e+16,4012606190470099.5,6428896828220044.0,817390812004.1111,2759371046046.223,92803412789764.08,3345236785559435.5
8.72709894827539,1.2517214431623906e+16,2.669790422488692e+16,4066142882111433.0,6514671973677618.0,854950085610.033,2886165165747.9863,97068022798732.73,3499065799423847.5
9.0016409272409,1.2681479306777522e+16,2.7164353752460732e+16,4119503353205081.5,6600164783122698.0,893711723961.1302,3017018310973.319,101469170724580.84,3657826408595895.5
9.281673745785717,1.2845213127950634e+16,2.7635019795458436e+16,4172691314580517.5,6685381201954127.0,933704814383.726,3152028678647.1924,106010160490395.34,3821638256989747.0
9.567307220701432,1.3008425842091808e+16,2.8110046434194468e+16,4225709997445149.0,6770326407132314.0,974959067883.7958,3291296571283.8115,110694366888596.66,3990623564997420.0
9.85865336511546,1.31711260055012e+16,2.8589577867678e+16,4278562181262513.5,6855004851844986.0,1017504827247.7021,3434924424339.8584,115525236502392.61,4164907163315278.0
10.155826432417769,1.3333320863156188e+16,2.9073758595398684e+16,4331250219520692.5,6939420306792706.0,1061373075289.0792,3583016834061.4688,120506288643853.12,4344616527375920.0
10.458942961066125,1.349501642222133e+16,2.956273358898579e+16,4383776063611642.5,7023575898447636.0,1106595443237.8684,3735680585811.255,125641116308141.4,4529881812368009.0
10.768121820287448,1.3656217520343934e+16,3.005664845483543e+16,4436141285016543.0,7107474144598479.0,1153204219268.2866,3893024682864.662,130933387143546.25,4720835888830820.0
11.083484256693197,1.3816927889267746e+16,3.0555649588679828e+16,4488347095970361.5,7191116987458647.0,1201232357163.4204,4055160375667.8535,136386844437044.94,4917614378813224.0
11.405153941827061,1.3977150214238618e+16,3.10598843229647e+16,4540394368759453.0,7274505824584367.0,1250713485114.8945,4222201191551.817,142005308115222.53,5120355692590400.0
11.733257020663602,1.4136886189623308e+16,3.1569501067808184e+16,4592283653788937.0,7357641537821825.0,1301681914656.8064,4394262964900.0166,147792675760452.66,5329201065934152.0
12.067922161076874,1.4296136571116812e+16,3.208464944623343e+16,4644015196541987.0,7440524520478903.0,1354172649733.7664,4571463867769.192,153752923642328.06,5544294597935900.0
12.409280604298411,1.4454901224874052e+16,3.2605480424295284e+16,4695588953539940.0,7523154702896042.0,1408221395903.676,4753924440965.136,159890107764395.34,5765783289383958.0
12.75746621638438,1.4613179173865362e+16,3.313214643665909e+16,4747004607400648.0,7605531576572344.0,1463864569676.3154,4941767625577.521,166208364926340.56,5993817081699158.0
13.112615540712067,1.4770968641724284e+16,3.366480150813334e+16,4798261581082089.0,7687654216986411.0,1521139307989.6511,5135118794979.769,172711913801809.38,6228548896435757.0
13.474867851526309,1.492826709432837e+16,3.4203601371609076e+16,4849359051389742.0,7769521305237337.0,1580083477826.1665,5334105787302.069,179405056032153.97,6470134675356377.0
13.844365208556836,1.5085071279328408e+16,3.4748703582817508e+16,4900295961817359.0,7851131148618087.0,1640735685972.2224,5538858938387.623,186292177336418.5,6718733421092865.0
14.221252512727972,1.524137726382027e+16,3.5300267632275188e+16,4951071034784442.0,7932481700221915.0,1703135288923.9558,5749511115243.945,193377748637984.84,6974507238406414.0
14.605677562982532,1.5397180470332674e+16,3.5858455054756264e+16,5001682783326666.0,8013570577672576.0,1767322402943.8054,5966197750003.029,200666327208325.3,7237621376063075.0
14.997791114242183,1.5552475711287852e+16,3.642342953659761e+16,5052129522290265.0,8094395081059526.0,1833337914272.245,6189056874405.95,208162557828388.6,7508244269342932.0
15.397746936527026,1.5707257222075266e+16,3.699535702111781e+16,5102409379075740.0,8174952210151407.0,1901223489499.9211,6418229154829.349,215871173968200.94,7786547583202801.0
15.805701875257567,1.5861518692864768e+16,3.7574405812405336e+16,5152520303972264.0,8255238680953453.0,1971021586105.7693,6653857927872.597,223796998985330.72,8072706256115578.0
16.221815912762718,1.601525329927251e+16,3.8160746677712104e+16,5202460080119239.0,8335250941667729.0,2042775463167.3706,6896089236527.072,231944947342902.6,8366898544609982.0
16.64625223101797,1.616845373198199e+16,3.87545529486652e+16,5252226333128622.0,8414985188109594.0,2116529192250.1047,7145071866949.385,240320025847924.97,8669306068537910.0
17.079177275638333,1.632111222541084e+16,3.935600062149815e+16,5301816540397059.0,8494437378627662.0,2192327668482.4138,7400957385863.235,248927334910747.4,8980113857097473.0
17.5207608211511,1.6473220585506564e+16,3.996526845648127e+16,5351228040135181.0,8573603248570011.0,2270216621824.6665,7663900178615.704,257772069826507.72,9299510395642652.0
17.97117603757412,1.662477021674283e+16,4.058253807672321e+16,5400458040137296.0,8652478324334958.0,2350242628539.867,7934057487915.171,266859522079494.7,9627687673312180.0
18.430599558325603,1.6775752148383956e+16,4.120799406649652e+16,5449503626313099.0,8731057937040254.0,2432453122874.8174,8211589453280.348,276195080671403.34,9964841231511708.0
18.899211549492115,1.6926157060073998e+16,4.184182406923663e+16,5498361771000234.0,8809337235841365.0,2516896408960.6963,8496659151230.593,285784233474513.2,1.0311170213286374e+16
19.37719578048196,1.707597530680395e+16,4.248421888534584e+16,5547029341074681.0,8887311200925569.0,2603621672942.734,8789432636250.237,295632568610868.06,1.0666877413621504e+16
19.864739696091597,1.722519694330162e+16,4.313537256992981e+16,5595503105873755.0,8964974656206105.0,2692678995348.8228,9090078982560.201,305745775858585.56,1.1032169330711912e+16
20.36203449001343,1.7373811747885902e+16,4.379548253058665e+16,5643779744944926.0,9042322281737106.0,2784119363707.5703,9398770326732.15,316129648086492.4,1.1407256218241786e+16
20.869275179813698,1.7521809245820346e+16,4.446474962535425e+16,5691855855632053.0,9119348625868132.0,2877994685426.581,9715681911182.008,326790082718294.3,1.1792352138718848e+16
21.38666068340997,1.7669178732196852e+16,4.5143378260925976e+16,5739727960509266.0,9196048117154286.0,2974357800942.277,10040992128580.723,337733083227583.44,1.218767501790842e+16
21.91439389707817,1.781590929437697e+16,4.5831576491226936e+16,5787392514670528.0,9272415076035838.0,3073262497152.86,10374882567221.63,348964760664980.75,1.2593446700414184e+16
22.452681775019734,1.7961989834013004e+16,4.652955611644816e+16,5834845912883366.0,9348443726299242.0,3174763521146.486,10717538057385.184,360491335218807.25,1.300989300645521e+16
23.00173541052013,1.810740908866907e+16,4.7237532782623784e+16,5882084496612116.0,9424128206330004.0,3278916594237.1675,11069146718743.354,372319137810679.7,1.3437243789888914e+16
23.561770118730532,1.8252155653057564e+16,4.795572608183489e+16,5929104560916709.0,9499462580165438.0,3385778426321.0493,11429900008846.254,384454611727482.2,1.387573299753253e+16
24.133005521105144,1.839621799990542e+16,4.86843596531209e+16,5975902361230646.0,9574440848354346.0,3495406730566.4062,11799992772736.143,396904314291230.06,1.4325598729835932e+16
24.715665631527248,1.8539584500458944e+16,4.9423661284172504e+16,6022474120022154.0,9649056958629432.0,3607860238450.628,12179623293734.08,409674918568325.75,1.4787083302961522e+16
25.309978944157795,1.8682243444637544e+16,5.017386301388092e+16,6068816033340848.0,9723304816395952.0,3723198715158.2104,12568993345445.63,422773215119797.56,1.5260433312326212e+16
25.91617852304095,1.8824183060840204e+16,5.0935201235811144e+16,6114924277251788.0,9797178295040294.0,3841482975353.6626,12968308245033.688,436206113794119.8,1.574589969766431e+16
26.53450209350177,1.8965391535409556e+16,5.1707916802668536e+16,6160795014158236.0,9870671246060286.0,3962774899343.9043,13377776907806.885,449980645564235.5,1.6243737809668998e+16
27.165192135371807,1.9105857031754668e+16,5.2492255131822216e+16,6206424399013684.0,9943777509017732.0,4087137449644.6543,13797611903172.756,464103964410470.9,1.675420747827286e+16
27.808495978079243,1.9245567709133896e+16,5.328846631195003e+16,6251808585423194.0,1.0016490921314086e+16,4214634687965.7524,14228029512006.574,478583349251000.7,1.7277573082627838e+16
28.464665897640828,1.9384511741095084e+16,5.409680521086339e+16,6296943731633697.0,1.0088805327787644e+16,4345331792630.6084,14669249785486.422,493426205921622.7,1.7814103622847316e+16
29.133959215593645,1.952267733357078e+16,5.491753158457506e+16,6341826006412121.0,1.0160714590131468e+16,4479295076444.987,15121496605446.77,508640069206547.0,1.836407279357225e+16
29.816638399905518,1.96600527426253e+16,5.575091018766457e+16,6386451594810358.0,1.0232212596130148e+16,4616592005030.723,15584997746302.21,524232604921985.0,1.89277590594255e+16
30.51297116790363,1.9796626291847784e+16,5.659721088500173e+16,6430816703815337.0,1.0303293268711592e+16,4757291215639.992,16059984938595.498,540211612054312.25,1.9505445732418464e+16
31.223230591261704,1.9932386389384972e+16,5.7456708764880184e+16,6474917567882019.0,1.0373950574812486e+16,4901462536465.971,16546693934221.9,556585024954605.4,2.009742105137549e+16
31.947695203086937,2.0067321544608188e+16,5.832968425361944e+16,6518750454347516.0,1.0444178534052318e+16,5049177006465.814,17045364573384.83,573360915591353.1,2.0703978263440212e+16
32.686649107148675,2.020142038440554e+16,5.9216423231686616e+16,6562311668723634.0,1.0513971227213018e+16,5200506895711.961,17556240853336.254,590547495863186.9,2.1325415707732252e+16
33.44038208929165,2.0334671669092484e+16,6.011721715139344e+16,6605597559865157.0,1.058332280451945e+16,5355525726287.886,18079570998956.906,608153119973443.8,2.1962036901217744e+16
34.20918973107749,2.0467064307931244e+16,6.103236315622015e+16,6648604525011422.0,1.0652227493716906e+16,5514308293744.436,18615607535229.74,626186286868390.8,2.2614150626863136e+16
34.993373525699035,2.059858737425113e+16,6.196216420181794e+16,6691329014697878.0,1.0720679607940394e+16,5676930689132.944,19164607361663.094,644655642740986.8,2.328207102413677e+16
35.793240996213015,2.072923012015973e+16,6.2906929178745064e+16,6733767537535138.0,1.0788673553371216e+16,5843470321631.317,19726831828716.414,663569983601994.2,2.3966117681926776e+16
36.60910581613728,2.085898199083616e+16,6.386697303698396e+16,6775916664851879.0,1.0856203836676074e+16,6014005941779.306,20302546816284.582,682938257920275.2,2.4666615733941452e+16
37.44128793246003,2.0987832638397496e+16,6.484261691229442e+16,6817773035199274.0,1.0923265072223774e+16,6188617665338.93,20892022814294.74,702769569334144.1,2.5383895956660176e+16
38.29011369110923,2.1115771935327504e+16,6.583418825445365e+16,6859333358713479.0,1.0989851989074638e+16,6367386997796.505,21495535005470.477,723073179435586.2,2.6118294869899216e+16
39.15591596493141,2.1242789987460612e+16,6.684202095743207e+16,6900594421333037.0,1.1055959437737576e+16,6550396859521.906,22113363350316.89,743858510629159.1,2.6870154840061976e+16
40.03903428423004,2.1368877146510028e+16,6.786645549156076e+16,6941553088868823.0,1.1121582396690954e+16,6737731611601.235,22745792674380.98,765135149067403.0,2.763982418613758e+16
40.93981496991464,2.1494024022132652e+16,6.890783903773729e+16,6982206310923161.0,1.1186715978661728e+16,6929477082358.658,23393112757840.87,786912847664565.4,2.8427657288514976e+16
41.85861126931294,2.161822149352203e+16,6.996652562372576e+16,7022551124655774.0,1.1251355436658746e+16,7125720594582.981,24055618427476.055,809201529190412.8,2.9234014700676664e+16
