t(s),Total solute volume 1,Total retention volume 1,Total 1 volume 1,Total 2 volume 1,Total 3 volume 1,Total 4 volume 1,Total 5 volume 1,Total 6 volume 1
0.1,821307387244814.4,914309965951331.9,46537842289353.97,46464736417161.86,0.0,0.0,0.0,0.0
0.202,1197237156042678.0,1410931042265614.8,67839197457582.45,67732629660327.96,216651367091.51636,353437399699.3079,4009315432083.163,73542654906148.95
0.30604000000000003,1456790000576013.8,1813738653766311.5,82546272492502.27,82416601556919.05,532388709759.701,868644011054.6683,9853812322992.912,180730934097071.06
0.41216080000000005,1656551119620056.5,2174829704675052.0,93865361566222.73,93717909630053.5,916981999900.2585,1496362939753.0964,16974773315158.174,311307195603908.5
0.5204040160000001,1818503195139493.2,2513244403760157.0,103042072116400.03,102880204614345.47,1355357115410.1023,2212046558920.607,25093769140278.887,460157759075311.75
0.6308120963200001,1953958652825000.0,2838265679784545.0,110717401523567.42,110543476956481.42,1838324272000.963,3000739628416.8433,34041179367385.812,624165905211696.5
0.7434283382464002,2069670488843010.5,3155187461616367.5,117273995647185.27,117089771422392.53,2359708349009.0537,3852401065966.481,43703125836041.875,801237970452755.4
0.8582969050113283,2170057359359508.0,3467348318791063.0,122962229349640.84,122769069563629.17,2915118816102.9253,4759898908114.531,53998729154247.375,989885913639817.9
0.9754628431115548,2258196078624561.5,3777009180734903.0,127956444538389.62,127755439416015.19,3501319512234.498,5717983169009.236,64868457772626.984,1189013457702065.0
1.094972099973786,2336327440805520.5,4085786130175599.5,132383611611247.53,132175651921066.33,4115867121802.614,6722696697725.91,76267445363980.14,1397793416654253.8
1.2168715419732616,2406139615539831.5,4394885094410275.0,136339387533754.84,136125213777925.06,4756887003222.508,7771009912725.059,88161347669740.14,1615591632973081.0
1.3412089728127268,2468938576246150.0,4705238554829007.0,139897772839707.56,139678009273828.1,5422926079919.467,8860581134806.172,100523624018421.84,1841917065236179.0
1.4680331522689813,2525756377619380.5,5017589766263432.0,143117246972286.94,142892425987301.53,6112852058442.483,9989592420638.611,113333675248226.02,2076387595957158.0
1.597393815314361,2577423025112883.0,5332547031500344.0,146044840633444.7,145815420740337.5,6825782016148.59,11156633258331.3,126575524527536.77,2318705805211664.0
1.729341691620648,2624615910508430.5,5650620000673916.0,148718936957732.34,148485316371893.12,7561030407607.342,12360615907548.97,140236857117841.7,2568641333402857.0
1.863928525453061,2667894837334005.5,5972244716765948.0,151171256161894.25,150933783269820.88,8318070355219.522,13600712387025.445,154308305681615.22,2826017751576354.5
2.001207095962122,2707727462712436.0,6297801361222191.0,153428297159491.16,153187278720871.1,9096504286750.533,14876306693395.799,168782908358053.62,3090702603291210.0
2.1412312378813647,2744508175003843.0,6627627119125648.0,155512407227097.16,155268114896569.28,9896041306659.215,16186957993345.176,183655691308624.88,3362599731389505.0
2.284055862638992,2778572360253027.0,6962025695130539.0,157442590385774.3,157195265964807.72,10716479517273.342,17532371882340.277,198923342761826.34,3641643284365481.0
2.4297369798917723,2810207357650557.0,7301274477953332.0,159235128171724.28,158984987885336.47,11557692042205.441,18912377677227.223,214583955500461.28,3927792979025821.5
2.578331719489608,2839660991621176.0,7645630020473881.0,160904063091073.28,160651301105097.3,12419615861130.5,20326910291276.61,230636821328353.0,4221030317175782.5
2.7298983538794,2867148299993234.5,7995332291580862.0,162461579858968.3,162206371198433.34,13302242808112.447,21775995636322.008,247082265545933.78,4521355536539862.0
2.884496320956988,2892856899070938.5,8350608018000929.0,163918309401331.6,163660812391291.28,14205612254818.812,23259738772255.395,263921512590455.94,4828785133519845.0
3.0421862473761276,2916951304808325.5,8711673342179720.0,165283573706080.7,165023932027807.8,15129805119891.793,24778314219553.07,281156576213017.75,5143349836085044.0
3.2030299723236504,2939576444841537.5,9078735959433910.0,166565584825844.44,166303929260413.62,16074938932189.09,26331957991350.105,298790169162249.6,5465092934420334.0
3.3670905717701234,2960860536469644.0,9451996853963894.0,167771607953351.38,167508057869049.7,17041163738850.266,27920961004624.06,316825628513234.25,5794068898415139.0
3.5344323832055258,2980917462841719.5,9831651722530160.0,168908096063608.0,168642760691837.47,18028658696026.715,29545663606431.312,335266853646656.94,6130342226983865.0
3.7051210308696363,2999848748412923.0,1.0217892152548028e+16,169980801849414.84,169713781384757.6,19037629215292.617,31206451008457.777,354118254533333.75,6473986486143868.0
3.879223451487029,3017745211714711.0,1.0610906605348786e+16,170994871372492.6,170726257925656.44,20068304565440.047,32903749466621.89,373384708472394.6,6825083501831475.0
4.0568079205167695,3034688356294593.0,1.1010881243588248e+16,171954922878466.2,171684801305427.4,21120935849808.703,34638023075786.3,393071523809325.3,7183722680374846.0
4.237944078927105,3050751547701472.5,1.141800063303408e+16,172865113488541.12,172593562114915.8,22195794295112.504,36409771075392.89,413184409452277.94,7550000434906345.0
4.422702960505647,3066001014493274.5,1.1832448342385764e+16,173729195919712.44,173456287176031.88,23293169800056.938,38219525581932.586,433729449232951.6,7924019700181791.0
4.61115701971576,3080496703620570.0,1.2254407459789716e+16,174550566953482.03,174276367934325.88,24413369701730.824,40067849679951.28,454713080337501.9,8305889521562121.0
4.803380160110075,3094293014620599.0,1.268406104088621e+16,175332309037579.44,175056881995357.22,25556717725431.527,41955335815797.52,476142075174771.9,8695724706516656.0
4.9994477633122765,3107439432420481.5,1.3121592500270498e+16,176077226142573.22,175800628924982.53,26723553089697.066,43882604448288.195,498023526162202.8,9093645529082274.0
5.199436718578522,3119981074892321.0,1.3567185955947412e+16,176787874788050.75,176510161226791.66,27914229743225.746,45850302918461.734,520364833000476.6,9499777479378084.0
5.403425452950093,3131959168397412.5,1.4021026534551992e+16,177466590988438.84,177187811245604.72,29129115714319.97,47859104507045.47,543173692081193.94,9914251051617936.0
5.611493962009095,3143411462234112.0,1.4483300643680468e+16,178115513736915.94,177835714614490.22,30368592556705.652,49909707653498.45,566458087731249.4,1.0337201565153504e+16
5.823723841249277,3154372591034270.0,1.495419621653927e+16,178736605539927.53,178455830757023.1,31633054878195.18,52002835314763.64,590226285046059.1,1.0768769013969026e+16
6.040198318074262,3164874392640264.5,1.5433902933209014e+16,179331670429087.03,179049960870894.47,32922909940810.465,54139234445369.6,614486824103569.5,1.1209097940779018e+16
6.261002284435747,3174946187763119.0,1.5922612422088066e+16,179902369807484.25,179619763749322.88,34238577322749.254,56319675583403.81,639248515383627.5,1.1658337332478334e+16
6.486222330124463,3184615026715167.0,1.6420518444485178e+16,180450236430323.84,180166769739734.1,35580488634040.48,58544952529270.53,664520436244489.1,1.2116640534192156e+16
6.715946776726952,3193905907682418.5,1.6927817064848136e+16,180976686772924.22,180692393092328.06,36949087278947.04,60815882106127.0,690311928330692.0,1.2584165179584712e+16
6.950265712261491,3202841970317923.0,1.7444706808717354e+16,181483032000319.53,181197942912452.53,38344828259189.56,63133303992553.38,716632595805301.1,1.306107313542963e+16
7.18927102650672,3211444667870209.0,1.797138881016978e+16,181970487720592.84,181684632898612.9,39768178012905.56,65498080619390.59,743492304315312.8,1.3547530458732752e+16
7.433056447036854,3219733920587914.5,1.8508066950246904e+16,182440182677267.75,182153590021207.9,41219614284977.1,67911097123851.78,770901180612214.9,1.404370736493949e+16
7.681717575977592,3227728252746940.0,1.9054947987639068e+16,182893166513688.78,182605862274716.03,42699626024952.234,70373261354995.9,798869612760835.8,1.4549778205962964e+16
7.935351927497144,3235444915314080.0,1.9612241682709956e+16,183330416723529.4,183042425617282.75,44208713309295.89,72885503925481.36,827408250879116.8,1.5065921456941182e+16
8.194058966047088,3242899995981843.0,2.018016091579075e+16,183752844885708.5,183464190195844.16,45747387285132.67,75448778305229.67,856528008359463.5,1.5592319710777508e+16
8.45794014536803,3250108518072540.0,2.0758921800541144e+16,184161302268602.12,183872005941533.16,47316170133010.48,78064060953225.92,886240063529120.8,1.6129159679643078e+16
8.72709894827539,3257084529609101.5,2.1348743793064416e+16,184556584877079.6,184266667608788.47,48915595046523.29,80732351484206.66,916555861712955.9,1.6676632202725722e+16
9.0016409272409,3263841183679684.0,2.1949849797369636e+16,184939438006207.66,184648919321907.06,50546206226896.28,83454672867413.89,947487117666995.1,1.723493225960053e+16
9.281673745785717,3270390811076978.5,2.2562466267694844e+16,185310560357223.56,185019458684548.84,52208558890866.63,86232071654990.1,979045818355383.9,1.7804258988674818e+16
9.567307220701432,3276744986068763.0,2.3186823308136204e+16,185670607764299.3,185378940500646.72,53903219290383.97,89065618237902.02,1011244226047167.9,1.8384815710226976e+16
9.85865336511546,3282914586048869.0,2.3823154769971652e+16,186020196574553.22,185727980149111.66,55630764742826.75,91956407127571.36,1044094881712549.4,1.8976809953616188e+16
10.155826432417769,3288909845725804.0,2.4471698347016536e+16,186359906718544.4,186067156649498.94,57391783670569.87,94905557261635.94,1077610608700969.4,1.958045348828957e+16
10.458942961066125,3294740406426340.0,2.5132695669304444e+16,186690284503968.2,186397015451320.7,59186875648868.484,97914212332474.58,1111804516685960.2,2.019596235825552e+16
10.768121820287448,3300415361022865.5,2.5806392395353044e+16,187011845161382.6,186718070975767.72,61016651461126.28,100983541137319.69,1146690005863636.5,2.082355691973097e+16
11.083484256693197,3305943294933402.5,2.6493038303238132e+16,187325075167395.56,187030808935249.78,62881733160711.43,104114737948936.23,1182280771393732.0,2.146346188169872e+16
11.405153941827061,3311332323591228.5,2.7192887380673732e+16,187630434367810.22,187335688453209.1,64782754138562.57,107309022906002.67,1218590808073608.5,2.2115906349143324e+16
11.733257020663602,3316590126736051.5,2.79061979142714e+16,187928357920670.9,187633144004105.9,66720359195897.59,110567642422429.62,1255634415237092.5,2.278112386875514e+16
12.067922161076874,3321723979838709.5,2.8633232578128456e+16,188219258076886.44,187923587191253.06,68695204621396.82,113891869614998.11,1293426201871388.0,2.3459352476913804e+16
12.409280604298411,3326740782937482.0,2.9374258521878676e+16,188503525814181.78,188207408378195.88,70707958272284.88,117283004748755.83,1331981091946217.8,2.41508347497816e+16
12.75746621638438,3331647087133063.0,3.012954745832024e+16,188781532338389.72,188484978187646.0,72759299658781.27,120742375699731.3,1371314329950572.0,2.4855817855352064e+16
13.112615540712067,3336449118963206.5,3.089937575072134e+16,189053630464592.3,188756648880455.28,74849920031426.44,124271338434579.22,1411441486633144.8,2.5574553607313904e+16
13.474867851526309,3341152802854216.5,3.1684024499891756e+16,189320155889293.25,189022755625788.1,76980522470823.08,127871277506850.22,1452378464943435.8,2.630729852060135e+16
13.844365208556836,3345763781826065.0,3.248377963109573e+16,189581428363633.22,189283617672493.88,79151821979366.77,131543606569632.34,1494141506171161.0,2.705431386851336e+16
14.221252512727972,3350287436609449.0,3.329893198087079e+16,189837752776624.22,189539539430640.66,81364545574555.34,135289768904374.0,1536747196282267.2,2.7815865741292864e+16
14.605677562982532,3354728903317091.5,3.4129777383809164e+16,190089420156459.7,189790811471251.38,83619432383493.78,139111237965736.56,1580212472450370.0,2.8592225106064744e+16
14.997791114242183,3359093089797215.5,3.497661675934808e+16,190336708597154.0,190037711451485.88,85917233738231.8,143009517942379.4,1624554629783106.0,2.9383667868038468e+16
15.397746936527026,3363384690784316.5,3.583975619860838e+16,190579884117029.3,190280504971784.72,88258713271573.31,146986144333610.97,1669791328243114.5,3.019047493288699e+16
15.805701875257567,3367608201951270.5,3.671950705131335e+16,190819201454956.56,190519446370854.8,90644647013023.81,151042684541882.84,1715940599764066.5,3.1012932270217316e+16
16.221815912762718,3371767932956451.5,3.761618601281318e+16,191054904809643.34,190754779463796.06,93075823484546.66,155180738481132.25,1763020855562344.2,3.185133097805528e+16
16.64625223101797,3375868019570814.0,3.853011521123414e+16,191287228526794.8,190986738228182.75,95553043795799.6,159401939201007.97,1811050893645415.8,3.270596734826612e+16
17.079177275638333,3379912434961738.0,3.94616222947662e+16,191516397738485.03,191215547442435.5,98077121738543.4,163707953527046.38,1860049906518354.2,3.357714293283966e+16
17.5207608211511,3383905000203167.0,4.041104051909765e+16,191742628958702.9,191441423280424.44,100648883879905.8,168100482716884.4,1910037489090125.0,3.4465164610968404e+16
17.97117603757412,3387849394075444.5,4.137870883499819e+16,191966130638635.16,191664573865885.28,103269169654195.88,172581263132621.12,1961033646781650.8,3.5370344656849744e+16
18.430599558325603,3391749162212058.5,4.2364971976051736e+16,192187103684953.3,191885199789886.8,105938831452961.77,177152066929467.84,2013058803837906.8,3.629300080814454e+16
18.899211549492115,3395607725645712.0,4.33701805465307e+16,192405741944058.38,192103494594322.47,108658734712985.06,181814702760826.06,2066133811846528.8,3.723345633502631e+16
19.37719578048196,3399428388801268.5,4.439469110940129e+16,192622232654986.38,192319645224096.62,111429758001909.92,186571016499981.34,2120279958465737.0,3.81920401097533e+16
19.864739696091597,3403214346978922.0,4.543886627444678e+16,192836756873428.62,192533832450485.25,114252793101193.12,191422891978591.22,2175518976364441.5,3.916908667669966e+16
20.36203449001343,3406968693367274.0,4.650307478648835e+16,193049489869115.7,192746231267889.38,117128745086073.17,196372251742176.84,2231873052377836.8,4.016493632277806e+16
20.869275179813698,3410694425622451.0,4.758769161368253e+16,193260601498608.88,192957011266046.25,120058532402239.08,201421057822837.5,2289364836881810.0,4.117993514818858e+16
21.38666068340997,3414394452046485.0,4.869309803586662e+16,193470256555386.84,193166336979563.66,123043086938886.53,206571312529422.44,2348017453389687.5,4.221443513742721e+16
21.91439389707817,3418071597395114.0,4.981968173292412e+16,193678615098935.53,193374368216492.94,126083354097839.77,211825059255409.34,2407854508375293.5,4.326879423048508e+16
22.452681775019734,3421728608342968.5,5.0967836873134264e+16,193885832764420.62,193581260367515.66,129180292858409.81,217184383304746.1,2468900101326027.0,4.434337639417014e+16
23.00173541052013,3425368158631584.0,5.2137964201469064e+16,194092061054390.03,193787164697186.8,132334875837664.44,222651412735937.2,2531178835030257.0,4.543855169348207e+16
23.561770118730532,3428992853923575.0,5.333047112779532e+16,194297447613829.0,193992228618558.97,135548089345759.78,228228319224649.75,2594715826103366.0,4.655469636296557e+16
24.133005521105144,3432605236384667.5,5.454577181493748e+16,194502136489789.1,194196595952402.88,138820933436005.31,233917318945143.8,2659536715756727.5,4.769219287797261e+16
24.715665631527248,3436207789013268.5,5.578428726655165e+16,194706268376717.72,194400407172151.44,142154421949290.34,239720673470824.28,2725667680814462.0,4.8851430025754936e+16
25.309978944157795,3439802939735940.0,5.704644541475815e+16,194909980848518.38,194603799635596.44,145549582552531.88,245640690694237.34,2793135444982638.0,5.003280297630868e+16
25.91617852304095,3443393065285456.0,5.833268120747645e+16,195113408578296.7,194806907804286.38,149007456770761.16,251679725766835.7,2861967290375900.0,5.123671335289496e+16
26.53450209350177,3446980494877164.5,5.96434366954016e+16,195316683546670.7,195009863451515.06,152529100012479.53,257840182058846.34,2932191069306651.5,5.2463569302148216e+16
27.165192135371807,3450567513697814.0,6.0979161118559224e+16,195519935239460.4,195212795859695.06,156115581587899.9,264124512139584.78,3003835216341987.0,5.371378556369282e+16
27.808495978079243,3454156366220200.0,6.2340310992369496e+16,195723290835506.75,195415832007883.16,159767984719676.4,270535218778573.8,3076928760633835.0,5.498778353917383e+16
28.464665897640828,3457749259355866.5,6.3727350193150024e+16,195926875385312.84,195619096750144.12,163487406545722.03,277074855967816.53,3151501338527814.0,5.6285991360617304e+16
29.133959215593645,3461348365457254.5,6.5140750042978584e+16,196130811981155.1,195822712985390.06,167274958113702.97,283746029965608.7,3227583206456541.5,5.760884395801883e+16
29.816638399905518,3464955825179784.0,6.658098939383979e+16,196335221919256.34,196026801819302.12,171131764366780.84,290551400362245.94,3305205254123153.5,5.895678312606916e+16
30.51297116790363,3468573750213621.5,6.8048554710967624e+16,196540224854579.25,196231482718879.3,175058964120188.72,297493681168035.44,3384399017981076.5,6.033025758991127e+16
31.223230591261704,3472204225894267.0,6.954394015529717e+16,196745938948749.2,196436873660127.94,179057710028173.2,304575641923971.7,3465196695016160.0,6.172972306982578e+16
31.947695203086937,3475849313700387.0,7.106764766493268e+16,196952481011585.5,196643091269373.22,183129168540879.75,311800108835502.06,3547631156837365.0,6.315564234473753e+16
32.686649107148675,3479511053646537.5,7.262018703553354e+16,197159966636687.2,196850250958631.66,187274519850700.2,319169965929770.5,3631735964082472.5,6.460848531442874e+16
33.44038208929165,3483191466578427.5,7.420207599951797e+16,197368510331487.22,197058467055455.25,191494957827616.28,326688156236743.75,3717545381145209.0,6.608872906034313e+16
34.20918973107749,3486892556377172.0,7.581384030397693e+16,197578225642147.25,197267852927640.5,195791689943069.6,334357682994646.5,3805094391230632.5,6.7596857904861576e+16
34.993373525699035,3490616312079059.0,7.745601378718686e+16,197789225273679.22,197478521103152.4,200165937181844.78,342181610880123.4,3894418711745340.0,6.913336346892365e+16
35.793240996213015,3494364709916707.0,7.912913845360685e+16,198001621205596.94,197690583385597.16,204618933941489.75,350163067263542.6,3985554810029605.5,7.069874472786421e+16
36.60910581613728,3498139715287128.0,8.083376454723826e+16,198215524803434.38,197904150965567.4,209151927918743.9,358305243489875.44,4078539919438257.0,7.22935080653352e+16
37.44128793246003,3501943284651823.0,8.257045062322104e+16,198431046926414.06,198119334528137.84,213766179982465.62,366611396185585.25,4173412055777696.0,7.3918167325169e+16
38.29011369110923,3505777367373831.5,8.43397636175374e+16,198648298031535.1,198336244356791.5,218462964032521.78,375084848591959.7,4270210034106147.5,7.557324386104443e+16
39.15591596493141,3509643907496157.5,8.61422789146845e+16,198867388274346.8,198554990434038.6,223243566844110.84,383728991925322.3,4368973485904566.0,7.725926658380595e+16
40.03903428423004,3513544845465856.5,8.797858041317739e+16,199088427606642.22,198775682538949.44,228109287896965.7,392547286764561.3,4469742876625752.5,7.897677200627869e+16
40.93981496991464,3517482119807787.0,8.984926058873363e+16,199311525871296.1,198998430341847.3,233061439188878.6,401543264466428.3,4572559523629257.0,8.072630428542827e+16
41.85861126931294,3521457668751715.0,9.175492055499008e+16,199536792894461.9,199223343496362.44,238101345032999.3,410720528609029.8,4677465614509708.0,8.25084152616957e+16
42.7957834946992,3525473431816262.0,9.369617012159014e+16,199764338575324.7,199450531729041.38,243230341838317.6,420082756463982.75,4784504225826521.0,8.43236644953407e+16
43.751699164593184,3529531351353116.0,9.567362784948278e+16,199994272973597.97,199680104926705.06,248449777872769.5,429633700497627.06,4893719342242672.0,8.617261929961662e+16
