t(s),Total solute volume 1,Total retention volume 1,Total 1 volume 1,Total 2 volume 1,Total 3 volume 1,Total 4 volume 1,Total 5 volume 1,Total 6 volume 1
0.1,1373795654025336.8,3540173632894849.0,759959875137435.1,1406418103732074.5,0.0,0.0,0.0,-1.66771727949885e-108
0.202,2058479793863746.2,5304761566992743.0,1138715322265022.8,2107361823624769.5,32023275.591095336,134892920.81013006,6145021658.434276,198315301345.57874
0.30604000000000003,2582709699715675.5,6655991339344951.0,1428710224664189.0,2644040553443992.5,81160398.19061548,341887455.5651215,15610096711.587048,514828376527.9186
0.41216080000000005,3026603047850840.0,7800294654471656.0,1674264331454170.0,3098474943054174.0,144094776.25710002,607006748.2188654,27740743009.89194,923840267936.537
0.5204040160000001,3420972923160152.5,8817063642676692.0,1892422910307123.5,3502209824239307.0,219345139.1971171,924010004.7753103,42249115320.06194,1414592499648.4902
0.6308120963200001,3781263935152258.0,9746092257676418.0,2091729652266548.0,3871056574662183.0,306116184.86424464,1289546638.5850527,58981092599.03732,1981518840011.0105
0.7434283382464002,4116474854957468.0,1.0610566469409016e+16,2277162521794062.0,4214227659992503.5,403953148.6582782,1701700760.8539522,77848616144.162,2621478394917.1143
0.8582969050113283,4432378181061750.5,1.1425359780337988e+16,2451914765093074.5,4537632657994781.0,512599531.0265678,2159391758.3159266,98802018645.36761,3332702178456.6553
0.9754628431115548,4732932895004181.0,1.2200673286165024e+16,2618176422170774.0,4845324563699519.0,631926926.8535632,2662078662.078682,121816412918.02908,4114294872038.742
1.094972099973786,5020991335140207.0,1.2943856961994946e+16,2777525357184015.5,5140223449497417.0,761896143.7401795,3209596340.9253063,146884160053.32254,4965964520774.699
1.2168715419732616,5298687862649348.0,1.3660411062168882e+16,2931142261750509.0,5424514360849091.0,902533831.0042068,3802057041.6713915,174010345795.3295,5887861983267.519
1.3412089728127268,5567668339749030.0,1.4354577364846814e+16,3079937598324444.5,5699882243925124.0,1053917566.3370655,4439787561.259402,203209895456.0961,6880479247628.665
1.4680331522689813,5829233392020067.0,1.5029708279414066e+16,3224630850434239.5,5967658609976754.0,1216165898.1408992,5123287296.694033,234505648231.20813,7944581881576.131
1.597393815314361,6084431956239237.0,1.5688507864753198e+16,3365802271723247.5,6228917304640980.0,1389431460.1697848,5853199238.2241335,267927026003.49362,9081162493035.053
1.729341691620648,6334124667280546.0,1.6333195138875514e+16,3503927950485485.0,6484539400082989.0,1573896079.769719,6630289361.268493,303509087763.3688,10291407753286.502
1.863928525453061,6579028160732725.0,1.6965618219066316e+16,3639404317106021.5,6735258549661427.0,1769767229.5750399,7455431678.105469,341291843816.3449,11576674523425.064
2.001207095962122,6819746864478337.0,1.7587336228464902e+16,3772565730611670.0,6981693534456741.0,1977275413.9443073,8329597227.454614,381319750702.1757,12938472294807.568
2.1412312378813647,7056796336437087.0,1.8199679422342224e+16,3903697388706201.5,7224372155211705.0,2196672223.9199,9253845880.422274,423641335334.61755,14378450133777.88
2.284055862638992,7290620738556542.0,1.8803794207291536e+16,4033044994079116.5,7463749121273438.0,2428228881.9922385,10229320209.89712,468308913802.04865,15898386919546.094
2.4297369798917723,7521606149593031.0,1.9400677439808588e+16,4160822118805390.0,7700219679510255.0,2672235153.5220237,11257240904.599495,515378381019.89044,17500184042828.783
2.578331719489608,7750090864847726.0,1.999120296239797e+16,4287215901980865.0,7934130158633233.0,2928998538.0208607,12338903362.114521,564909054455.7242,19185859979785.934
2.7298983538794,7976373474875529.0,2.0576142417747884e+16,4412391518724060.0,8165786239748485.0,3198843677.883137,13475675197.99898,616963559864.7827,20957546321069.625
2.884496320956988,8200719280622877.0,2.115618177718141e+16,4536495728919161.0,8395459523833714.0,3482111938.90765,14668994478.599403,671607750211.2177,22817484949016.695
3.0421862473761276,8423365444497314.0,2.1731934612640864e+16,4659659726698463.0,8623392805129030.0,3779161128.679172,15920368534.64217,728910651218.4219,24768026135183.875
3.2030299723236504,8644525168367247.0,2.230395286191124e+16,4782001451639332.0,8849804348350649.0,4090365327.2496004,17231373247.91497,788944428609.4579,26811627386811.18
3.3670905717701234,8864391113599973.0,2.287273564126629e+16,4903627480670079.0,9074891389943768.0,4416114810.628212,18603652728.930565,851784373271.7888,28950852911633.46
3.5344323832055258,9083138224294170.0,2.3438736520722164e+16,5024634589833104.0,9298833028357608.0,4756816052.058467,20038919322.286106,917508901443.9298,31188373600481.098
3.7051210308696363,9300926075931450.0,2.400236957678238e+16,5145111053518317.0,9521792628469798.0,5112891789.393027,21538953890.47792,986199567666.007,33526967449488.47
3.879223451487029,9517900843193972.0,2.4564014464189884e+16,5265137733025683.0,9743919836133392.0,5484781149.39831,23105606337.545067,1057941088722.9275,35969520360620.72
4.0568079205167695,9734196959601774.0,2.512402069386e+16,5384788994647824.0,9965352277224972.0,5872939821.745028,24740796342.028526,1132821377181.029,38519027272130.53
4.237944078927105,9949938525817018.0,2.5682711263446748e+16,5504133488719567.0,1.0186216999391704e+16,6277840276.930314,26446514275.001106,1210931583406.5515,41178593580515.39
4.422702960505647,1.0165240511492954e+16,2.6240385756155772e+16,5623234814459829.0,1.04066317024402e+16,6699972023.537379,28224822283.81723,1292366145178.6233,43951436823316.3
4.61115701971576,1.038020978638781e+16,2.679732299982981e+16,5742152090366113.0,1.0626705793936074e+16,7139841901.154572,30077855526.0852,1377222844186.2937,46840888598211.84
4.803380160110075,1.0594946009396216e+16,2.7353783360119716e+16,5860940446011162.0,1.0846541299346862e+16,7597974406.002667,32007823541.431274,1465602868839.5942,49850396698724.56
4.9994477633122765,1.0809542398645734e+16,2.7910010727376188e+16,5979651448047023.0,1.1066233650425956e+16,8074912046.902846,34017011751.079933,1557610882937.334,52983527450745.7
5.199436718578522,1.1024086401486182e+16,2.846623424576548e+16,6098333470831554.0,1.1285872371111886e+16,8571215729.689087,36107783077.26297,1653355099825.3845,56243968237234.98
5.403425452950093,1.1238660279781594e+16,2.9022669824310144e+16,6217032020201809.0,1.1505541676719124e+16,9087465168.552816,38282579676.08708,1752947361753.418,59635530201009.984
5.611493962009095,1.145334162319361e+16,2.9579521462543176e+16,6335790017413445.0,1.1725320999410208e+16,9624259323.123587,40543924778.81911,1856503224198.9463,63162151117643.45
5.823723841249277,1.1668203800961522e+16,3.013698241784208e+16,6454648049057655.0,1.1945285450704176e+16,10182216860.349504,42894424637.64684,1964142044977.9685,66827898432227.42
6.040198318074262,1.1883316360924134e+16,3.0695236236971444e+16,6573644587793151.0,1.2165506229973732e+16,10761976640.459764,45336770572.89023,2075987078003.4883,70636972455206.86
6.261002284435747,1.2098745383098088e+16,3.1254457670682496e+16,6692816187939551.0,1.238605098642019e+16,11364198226.473574,47873741119.406166,2192165571588.402,74593709713705.56
6.486222330124463,1.231455379396137e+16,3.181481348720851e+16,6812197659333535.0,1.2606984140819862e+16,11989562416.873941,50508204270.58233,2312808871219.2217,78702586455792.5
6.715946776726952,1.2530801646632176e+16,3.237646319803198e+16,6931822222318986.0,1.2828367172356414e+16,12638771801.197824,53243119818.8686,2438052526752.353,82968222306015.23
6.950265712261491,1.274754637134418e+16,3.2939559707262276e+16,7051721646305532.0,1.305025887504418e+16,13312551338.405437,56081541792.27241,2568036404006.6396,87395384071275.25
7.18927102650672,1.2964842999964548e+16,3.350424989427768e+16,7171926373968079.0,1.3272715587577602e+16,14011648957.991058,59026620986.656555,2702904800744.678,91988989696777.06
7.433056447036854,1.3182744367756124e+16,3.407067513788197e+16,7292465632858043.0,1.3495791399884666e+16,14736836183.882084,62081607594.03742,2842806567052.0303,96754112372342.9
7.681717575977592,1.3401301295129136e+16,3.4638971789051816e+16,7413367535945352.0,1.3719538339194616e+16,15488908781.248505,65249853927.398895,2987895230137.8345,101695984789892.81
7.935351927497144,1.3620562751746278e+16,3.5209271598366308e+16,7534659172398450.0,1.3944006538039954e+16,16268687426.411812,68534817242.81636,3138329123593.243,106820003553325.48
8.194058966047088,1.384057600502122e+16,3.5781702103378396e+16,7656366689731149.0,1.4169244386281372e+16,17077018400.10163,71940062659.93916,3294271521155.6865,112131733742433.58
8.45794014536803,1.4061386754778824e+16,3.635638698048729e+16,7778515368294338.0,1.4395298668965726e+16,17914774304.36234,75469266182.103,3455890775037.1694,117636913632847.23
8.72709894827539,1.4283039255613348e+16,3.693344636527122e+16,7901129688962374.0,1.462221469158974e+16,18782854803.460438,79126217817.55052,3623360458884.455,123341459574315.34
9.0016409272409,1.4505576428282938e+16,3.7512997144734936e+16,8024233394754604.0,1.4850036394139842e+16,19682187389.188766,82914824803.42928,3796859515447.3887,129251471029945.98
9.281673745785717,1.4729039961310806e+16,3.809515322448756e+16,8147849547039386.0,1.5078806455106016e+16,20613728171.004765,86839114934.40721,3976572409039.946,135373235779282.69
9.567307220701432,1.4953470403818046e+16,3.868002577349857e+16,8272000576887547.0,1.5308566386519008e+16,21578462691.478237,90903239997.91238,4162689282885.6094,141713235288372.47
9.85865336511546,1.5178907250488632e+16,3.926772344875323e+16,8396708332073640.0,1.5539356620933158e+16,22577406767.561386,95111479318.15144,4355406121446.205,148278150250201.94
10.155826432417769,1.5405389019460202e+16,3.985835260185834e+16,8521994120163673.0,1.5771216591166686e+16,23611607358.227066,99468243411.2118,4554924917839.406,155074866299119.94
10.458942961066125,1.5632953323840146e+16,4.045201746940371e+16,8647878748076650.0,1.6004184803516142e+16,24682143459.055016,103978077753.68752,4761453846456.973,162110479903076.6
10.768121820287448,1.5861636937467262e+16,4.104882034868165e+16,8774382558462700.0,1.6238298905079406e+16,25790127024.376263,108645666667.39944,4975207440901.415,169392304437720.62
11.083484256693197,1.6091475855467438e+16,4.1648861760184056e+16,8901525463201516.0,1.6473595745749902e+16,26936703917.617058,113475837322.91267,5196406777365.021,176927876446590.62
11.405153941827061,1.6322505350092526e+16,4.225224059813902e+16,9029326974291382.0,1.6710111435381012e+16,28123054890.513004,118473563864.67558,5425279663580.479,184724962091849.88
11.733257020663602,1.655476002227599e+16,4.285905427021287e+16,9157806232368874.0,1.6947881396566096e+16,29350396591.89266,123643971660.72672,5662060833478.376,192791563800183.78
12.067922161076874,1.6788273849293738e+16,4.346939882737988e+16,9286982033074170.0,1.7186940413431342e+16,30619982606.758827,128992341680.03674,5906992147691.863,201135927108686.1
12.409280604298411,1.7023080228876738e+16,4.408336908486056e+16,9416872851452946.0,1.7427322676795534e+16,31933104526.422306,134524115000.66699,6160322800054.501,209766547715735.8
12.75746621638438,1.725921202008502e+16,4.470105873493057e+16,9547496864567754.0,1.7669061826015042e+16,33291093050.472687,140244897452.04697,6422309530242.501,218692178742053.12
13.112615540712067,1.7496701581222334e+16,4.532256045232586e+16,9678871972471298.0,1.7912190987798648e+16,34695319121.396355,146160464394.78644,6693216842717.86,227921838207306.03
13.474867851526309,1.7735580805040958e+16,4.594796599289131e+16,9811015817681318.0,1.815674281224832e+16,36147195092.68021,152276765641.55252,6973317232134.324,237464816727827.12
13.844365208556836,1.7975881151461862e+16,4.6577366286062216e+16,9943945803280812.0,1.8402749506356464e+16,37648175931.26635,158599930522.65842,7262891415373.202,247330685441167.5
14.221252512727972,1.8217633678013204e+16,4.721085152170369e+16,1.0077679109755974e+16,1.865024286516716e+16,39199760455.25175,165136273100.13174,7562228570381.514,257529304163418.9
14.605677562982532,1.846086906816998e+16,4.784851123178988e+16,1.021223271067338e+16,1.8899254300789016e+16,40803492607.75272,171892297534.12732,7871626581990.389,268070829785401.06
14.997791114242183,1.8705617657760904e+16,4.849043436735238e+16,1.0347623387287626e+16,1.914981486942863e+16,42460962767.88357,178874703605.70297,8191392294896.43,278965724914004.1
15.397746936527026,1.895190945959152e+16,4.9136709371093736e+16,1.0483867742162582e+16,1.940195529659907e+16,44173809099.82449,186090392400.04425,8521841773995.103,290224766765164.94
15.805701875257567,1.919977418642043e+16,4.9787424246021096e+16,1.0620982211881246e+16,1.965570600064096e+16,45943718940.98449,193546472154.39398,8863300572259.654,301859056315139.3
16.221815912762718,1.9449241272410548e+16,5.044266662042481e+16,1.0758983078912394e+16,1.9911097114684052e+16,47772430230.29289,201250264275.02594,9216104006365.314,313880027716925.44
16.64625223101797,1.970033989316891e+16,5.110252380949877e+16,1.0897886482696196e+16,2.016815850716197e+16,49661732977.679596,209209309527.73984,9580597440263.809,326299457988884.25
17.079177275638333,1.9953098984475708e+16,5.176708287387198e+16,1.1037708430004668e+16,2.042691980098672e+16,51613470775.83678,217431374406.47336,9957136576918.795,339129476982804.06
17.5207608211511,2.0207547259795668e+16,5.243643067529742e+16,1.117846480462892e+16,2.0687410391475576e+16,53629542355.38246,225924457684.75946,10346087758418.717,352382577638849.94
17.97117603757412,2.046371322665692e+16,5.311065392972539e+16,1.1320171376439414e+16,2.0949659463118936e+16,55711903184.57762,234696797154.86606,10747828274689.2,366071626535031.2
18.430599558325603,2.0721625201974e+16,5.3789839257967176e+16,1.1462843809862414e+16,2.121369600526699e+16,57862567114.77495,243756876559.60474,11162746681033.305,380209874739046.7
18.899211549492115,2.098131132638491e+16,5.447407323414017e+16,1.1606497671811304e+16,2.147954882680793e+16,60083608072.81632,253113432721.905,11591243124733.445,394810968970551.06
19.37719578048196,2.1242799577668764e+16,5.51634424320682e+16,1.1751148439108458e+16,2.174724656990327e+16,62377161801.61743,262775462877.40466,12033729680955.291,409888963082104.44
19.864739696091597,2.1506117783300344e+16,5.585803346979767e+16,1.1896811505430768e+16,2.2016817722841224e+16,64745427650.21885,272752232215.4153,12490630698199.658,425458329867288.94
20.36203449001343,2.177129363219783e+16,5.655793305237926e+16,1.2043502187807796e+16,2.2288290632063304e+16,67190670414.60816,283053281633.7821,12962383153555.46,441533973204679.8
20.869275179813698,2.203835468571176e+16,5.726322801304943e+16,1.2191235732701094e+16,2.2561693513413916e+16,69715222230.65596,293688435713.2793,13449437018011.87,458131240546590.44
21.38666068340997,2.2307328387901496e+16,5.797400535294077e+16,1.2340027321688692e+16,2.28370544626613e+16,72321484520.5372,304667810917.32947,13952255632095.578,475265935761717.4
21.91439389707817,2.2578242075140348e+16,5.869035227943633e+16,1.248989207677853e+16,2.311440146533026e+16,75011929994.04822,316001824022.9811,14471316092104.78,492954332341071.0
22.452681775019734,2.2851122985087764e+16,5.941235624327699e+16,1.264084506537182e+16,2.339376240588787e+16,77789104706.2587,327701200789.21216,15007109647218.361,511213186976768.9
23.00173541052013,2.3125998265063844e+16,6.014010497452257e+16,1.2792901304895624e+16,2.3675165076316652e+16,80655630172.97687,339776984868.7867,15560142107765.637,530059753523538.5
23.561770118730532,2.3402894979858396e+16,6.087368651746032e+16,1.294607576712258e+16,2.3958637184108892e+16,83614205545.54315,352240546970.03394,16130934264948.959,549511797353003.75
24.133005521105144,2.3681840119003756e+16,6.161318926454822e+16,1.3100383382194336e+16,2.424420635971263e+16,86667609846.49335,365103594275.0843,16720022322317.615,569587610111045.1
24.715665631527248,2.3962860603539564e+16,6.235870198947229e+16,1.3255839042363568e+16,2.453190016345664e+16,89818704267.68488,378378180121.2118,17327958339300.322,590306024888832.9
25.309978944157795,2.424598329229382e+16,6.3110313879396936e+16,1.341245760546837e+16,2.4821746091980788e+16,93070434532.50389,392076713952.15576,17955310687108.418,611686431818317.2
25.91617852304095,2.453123498770336e+16,6.38681145664762e+16,1.357025389815253e+16,2.51137715841948e+16,96425833323.81284,406211971546.3759,18602664517331.258,633748794103256.5
26.53450209350177,2.481864244119569e+16,6.463219415869464e+16,1.3729242718842048e+16,2.5408004026787936e+16,99888022779.33762,420797105529.4324,19270622243551.58,656513664497096.4
27.165192135371807,2.5108232358150628e+16,6.540264327009801e+16,1.3889438840490402e+16,2.570447075930819e+16,103460217056.23302,435845656177.7683,19959804036316.473,680002202239305.8
27.808495978079243,2.54000314024604e+16,6.617955305047346e+16,1.4050857013100752e+16,2.6003199078830984e+16,107145724966.59814,451371562521.4153,20670848331806.406,704236190462020.2
28.464665897640828,2.5694066200704844e+16,6.6963015214533976e+16,1.42135119660357e+16,2.6304216244233356e+16,110947952685.76266,467389173753.2444,21404412354554.727,729238054079095.2
29.133959215593645,2.5990363345956052e+16,6.775312207065906e+16,1.4377418410121932e+16,2.6607549480088972e+16,114870406535.19733,483913260952.5955,22161172654574.164,755030878170002.6
29.816638399905518,2.6288949401227156e+16,6.8549966549239704e+16,1.4542591039558164e+16,2.6913225980198972e+16,118916695841.94684,500959029131.2805,22941825659258.8,781638426871219.1
30.51297116790363,2.6589850902577896e+16,6.9353642230675624e+16,1.4709044533632818e+16,2.7221272910770764e+16,123090535876.52324,518542129610.1201,23747088240435.24,809085162788091.0
31.223230591261704,2.6893094361888124e+16,7.0164243373065816e+16,1.4876793558258492e+16,2.7531717413258224e+16,127395750871.2419,536678672734.35925,24577698296944.938,837396266940378.4
31.947695203086937,2.7198706269310756e+16,7.098186493963801e+16,1.5045852767328852e+16,2.7844586606872148e+16,131836277121.02159,555385240936.4908,25434415353150.57,866597659255064.6
32.686649107148675,2.750671309541333e+16,7.180660262595195e+16,1.521623680390323e+16,2.815990759077302e+16,136416166168.71378,574678902155.1743,26318021173763.35,896716019620204.0
33.44038208929165,2.7817141293017676e+16,7.263855288691778e+16,1.5387960301224462e+16,2.8477707445954468e+16,141139588077.07266,594577223619.1609,27229320395400.203,927778809513964.4
34.20918973107749,2.8130017298745508e+16,7.347781296366387e+16,1.5561037883573634e+16,2.8798013236825396e+16,146010834789.5162,615098286005.2557,28169141175286.484,959814294223263.4
34.993373525699035,2.844536753427748e+16,7.43244809102886e+16,1.5735484166966758e+16,2.9120852012498556e+16,151034323581.87518,636260697979.6125,29138335857528.887,992851565666724.2
35.793240996213015,2.8763218407332268e+16,7.517865562052869e+16,1.591131375969638e+16,2.9446250807793896e+16,156214600607.3733,658083611131.7736,30137781657391.277,1026920565836975.9
36.60910581613728,2.908359631237259e+16,7.604043685437602e+16,1.6088541262721942e+16,2.9774236643960148e+16,161556344537.12408,680586735311.0966,31168381364015.312,1062052110877648.2
37.44128793246003,2.9406527631042224e+16,7.690992526467493e+16,1.626718126991194e+16,3.0104836529123424e+16,167064370298.4713,703790354375.3965,32231064062037.836,1098277915810659.4
38.29011369110923,2.97320387323409e+16,7.778722242372384e+16,1.6447248368140136e+16,3.0438077458465044e+16,172743632913.5588,727715342361.7986,33326785872561.82,1135630619929837.0
39.15591596493141,3.0060155972539536e+16,7.86724308499173e+16,1.6628757137239208e+16,3.077398641413594e+16,178599231440.5438,752383180090.028,34456530713951.383,1174143812877027.5
40.03903428423004,3.039090569484169e+16,7.956565403444912e+16,1.681172214981288e+16,3.111259036490893e+16,184636413019.92368,777815972208.5103,35621311082927.91,1213852061417418.0
