t(s),Total solute volume 1,Total retention volume 1,Total 1 volume 1,Total 2 volume 1,Total 3 volume 1,Total 4 volume 1,Total 5 volume 1,Total 6 volume 1
0.1,964857416365797.9,1154672529873703.2,88762465329957.31,101052648177948.16,0.0,0.0,0.0,0.0
0.202,1453495030890732.2,1739525897265071.5,133714889296786.28,152229252615979.8,120210310.43483287,239919550.86829853,3684098711.1278176,82680233001.48024
0.30604000000000003,1825656621449665.8,2185035659626719.0,167952052056320.78,191206944203981.12,304993183.83955604,608715217.0171572,9347206123.990337,209781002228.6493
0.41216080000000005,2140430843779938.0,2561905805339092.0,196909839613682.78,224174270343392.44,541739350.8927095,1081220965.1905386,16602861533.934996,372625780232.0713
0.5204040160000001,2419952503482685.5,2896621651886898.0,222624552775266.5,253449481140638.3,824851295.9027401,1646265093.0107758,25279512928.28081,567363858988.3513
0.6308120963200001,2675250535592862.5,3202379674997560.5,246110803081938.56,280187672778191.88,1151325704.5168884,2297853494.21351,35285115648.36738,791929249713.5247
0.7434283382464002,2912735193606475.0,3486849969308571.0,267958304513030.3,305060211918169.44,1519444717.6925824,3032557617.512058,46567021425.89862,1045140247136.1057
0.8582969050113283,3136512970839753.5,3754946193132685.0,288544835656291.3,328497184937808.7,1928238227.767103,3848441298.9490833,59095498851.32498,1326329520449.2195
0.9754628431115548,3349397838041197.5,4010035554343428.0,308129268939615.2,350793308129042.5,2377218954.5642943,4744532018.001216,72855614040.19316,1635161868560.6125
1.094972099973786,3553415982534800.0,4254542740320200.5,326898004321874.9,372160790668049.0,2866235733.9237633,5720528086.014225,87842734262.71321,1971533297401.874
1.2168715419732616,3750082905981940.5,4490281465176669.5,344990461018639.1,392758355963589.7,3395385361.7268586,6776622701.649763,104059826169.92241,2335510378271.768
1.3412089728127268,3940566856558444.0,4718650013151655.0,362514112514363.1,412708358439546.94,3964956350.954078,7913391699.416768,121515732081.53627,2727291559167.218
1.4680331522689813,4125790780017053.0,4940753219274897.0,379553865593454.56,432107461200686.8,4575391381.251474,9131718605.329746,140224019155.76804,3147181334555.9536
1.597393815314361,4306498852665999.5,5157482072555646.0,396178181069752.3,451033604247513.1,5227261333.910633,10432742815.117329,160202183624.7894,3595572384608.7266
1.729341691620648,4483301542349585.5,5369567628438690.0,412443219190471.06,469550723859043.2,5921246842.895883,11817822773.205578,181471085379.16602,4072932884595.5576
1.863928525453061,4656707090796258.0,5577618674975308.0,428395735868111.94,487712049841335.56,6658124909.843448,13288509258.544222,204054537750.92044,4579797297688.583
2.001207095962122,4827144098352987.0,5782148753506651.0,444075160372645.0,505562470900030.6,7438759041.785247,14846525701.203627,227979005259.62878,5116759590969.463
2.1412312378813647,4994978098794182.0,5983595988914300.0,459515120138051.75,523140270573892.8,8264091907.847748,16493753526.42671,253273378559.03522,5684468184179.042
2.284055862638992,5160523966850923.0,6182337934099465.0,474744582198228.8,540478426715639.6,9135139841.145971,18232221181.38348,279968805934.4326,6283622167729.462
2.4297369798917723,5324055369233163.0,6378702877321494.0,489788722637760.6,557605601328162.94,10052988721.636198,20064095918.091106,308098567123.1076,6914968470640.445
2.578331719489608,5485812075405813.0,6572978589002856.0,504669599149850.75,574546906245841.5,11018790912.727842,21991677679.462612,337697979429.94916,7579299753326.749
2.7298983538794,5646005691029934.0,6765419181483052.0,519406678486676.3,591324503616459.6,12033763016.406923,24017394618.972027,368804328928.4923,8277452863416.069
2.884496320956988,5804824210175033.0,6956250555628149.0,534017255242072.94,607958082669169.1,13099184274.746744,26143799910.401035,401456821472.1678,9010307736197.096
3.0421862473761276,5962435670112953.0,7145674773848095.0,548516788075841.5,624465242492914.2,14216395489.896818,28373569592.38717,435696549595.70215,9778786651713.049
3.2030299723236504,6118991115382714.0,7333873606803633.0,562919172394155.56,640861802472582.4,15386798366.185,30709501255.440643,471566472353.28656,10583853782213.764
3.3670905717701234,6274627023887672.0,7521011436562934.0,577236963539382.4,657162056382008.6,16611855200.839905,33154513424.75352,509111405841.1623,11426514979412.32
3.5344323832055258,6429467309453808.0,7707237653108176.0,591481561016288.0,673378982118435.4,17893088866.676697,35711645525.72271,548378022668.2131,12307817762574.184
3.7051210308696363,6583624987623849.0,7892688648005313.0,605663361737461.6,689524416166505.5,19232083042.651775,38384058344.18196,589414859023.2102,13228851477107.377
3.879223451487029,6737203571235111.0,8077489484852589.0,619791888410101.5,705609199761693.4,20630482657.68234,41175034912.27778,632272328278.1272,14190747599850.324
4.0568079205167695,6890298247350369.0,8261755308201508.0,633875897808251.4,721643302154064.6,22089994520.380062,44087981765.40619,677002740289.3927,15194680172244.607
4.237944078927105,7042996875886962.0,8445592539217834.0,647923472642122.0,737635925197969.6,23612388112.954586,47126430526.80577,723660325730.542,16241866346433.861
4.422702960505647,7195380841792041.0,8629099896183045.0,661942099954307.1,753595592603112.0,25199496531.911983,50294039785.13802,772301264923.9243,17333567032339.2
4.61115701971576,7347525786110904.0,8812369270158975.0,675938738374715.5,769530226501700.5,26853217561.620953,53594597237.25168,822983720744.5059,18471087636129.41
4.803380160110075,7499502231396148.0,8995486480365744.0,689919875659526.1,785447212967124.9,28575514858.59537,57032022150.80586,875767910565.5723,19655784895366.38
4.9994477633122765,7651376147241908.0,9178531927753028.0,703891580701011.9,801353461173696.0,30368419302.910465,60610367667.984634,930716005775.5195,20889043843662.41
5.199436718578522,7803209395701577.0,9361581165137552.0,717859544529156.0,817255450153006.9,32234030346.787674,64333824084.77838,987892384954.5366,22172314514417.223
5.403425452950093,7955060165943932.0,9544705394522858.0,731829120281122.2,833159274245589.2,34174517570.5914,68206721566.701614,1047363540990.2435,23507089272084.547
5.611493962009095,8106983333085901.0,9727971903641728.0,745805356216469.5,849070680700567.6,36192122280.26661,72233533434.1876,1109198165021.1272,24894909818053.434
5.823723841249277,8259030778388440.0,9911444450370336.0,759793025173718.1,864995103210815.1,38289159206.923546,76418879554.8211,1173467198527.139,26337368360074.53
6.040198318074262,8411251672041722.0,1.009518360243564e+16,773796650585282.8,880937691529960.1,40468018295.07678,80767529912.51572,1240243888137.2036,27836108842332.055
6.261002284435747,8563692723727255.0,1.0279247038622914e+16,787820529528041.5,896903337714572.6,42731166577.41716,85284408349.40717,1309603843088.8738,29392828235039.605
6.486222330124463,8716398405317639.0,1.0463689816700978e+16,801868753210700.4,912896699448226.5,45081150134.57346,89974596477.37604,1381625095292.8315,31009277882496.84
6.715946776726952,8869411149394870.0,1.0648564612469166e+16,815945225236567.9,928922220832982.8,47520596138.809875,94843337757.10593,1456388161969.962,32687264908885.73
6.950265712261491,9022771526708048.0,1.0833921933660892e+16,830053677928839.2,944984150975085.1,50052214981.02754,99896041743.40791,1533976110841.6316,34428653681367.598
7.18927102650672,9176518405226888.0,1.1019810311882016e+16,844197686962811.5,961086560643177.2,52678802480.79978,105138288496.27864,1614474627864.945,36235367330298.62
7.433056447036854,9330689093061482.0,1.120627647530148e+16,858380684513828.6,977233357236731.6,55403242179.48908,110575833157.78273,1697972087514.3228,38109389326593.766
7.681717575977592,9485319467194554.0,1.1393365504423758e+16,872605971100076.1,993428298268614.1,58228507716.76481,116214610695.405,1784559625619.381,40052765116461.805
7.935351927497144,9640444089702696.0,1.158112097294916e+16,886876726274384.5,1009675003537298.2,61157665291.092674,122060740813.0027,1874331214776.4758,42067603813901.54
8.194058966047088,9796096312912448.0,1.1769585075453888e+16,901196018298122.8,1025976966140210.6,64193876204.97811,128120533030.9249,1967383742357.8896,44156079951499.336
8.45794014536803,9952308374745532.0,1.1958798743390362e+16,915566812912522.0,1042337562459541.0,67340399495.94286,134400491937.2562,2063817091148.8152,46320435290199.445
8.72709894827539,1.0109111485341812e+16,1.2148801750712678e+16,929991981307581.1,1058760061234551.0,70600594654.39062,140907322612.48685,2163734222647.4282,48562980688845.24
9.0016409272409,1.0266535905909282e+16,1.233963281026312e+16,944474307375913.1,1075247631819792.8,73977924429.67783,147647936230.2409,2267241263068.5093,50886098034394.8
9.281673745785717,1.0424611020630522e+16,1.2531329661913902e+16,959016494327806.1,1091803351716084.0,77475957725.8554,154629455836.98563,2374447592095.364,53292242233817.43
9.567307220701432,1.0583365402352132e+16,1.272392915333498e+16,973621170734347.6,1108430213450404.9,81098372588.67694,161859222313.91006,2485465934429.273,55783943268774.1
9.85865336511546,1.0742826872695846e+16,1.2917467314153008e+16,988290896057392.2,1125131130871518.6,84848959285.60638,169344800524.42844,2600412454189.204,58363808314268.1
10.155826432417769,1.0903022557153732e+16,1.311197942417593e+16,1003028165718035.6,1141908944920262.0,88731623480.66888,177093985650.99542,2719406852218.683,61034523922537.91
10.458942961066125,1.1063978935663266e+16,1.3307500076278156e+16,1017835415749312.6,1158766428926443.5,92750389506.10634,185114809725.14188,2842572466359.6475,63798858273541.16
10.768121820287448,1.1225721889101928e+16,1.3504063234474056e+16,1032715027073476.2,1175706293478374.2,96909403732.90749,193415548354.86603,2970036374756.888,66659663493450.64
11.083484256693197,1.138827674209041e+16,1.3701702287646538e+16,1047669329439713.6,1192731190905798.2,101212938042.38013,202004727653.7086,3101929502259.566,69619878042658.586
11.405153941827061,1.155166830245074e+16,1.3900450099346886e+16,1062700605054085.1,1209843719412440.5,105665393401.03934,210891131376.04984,3238386729989.3433,72682529174849.72
11.733257020663602,1.1715920897626896e+16,1.4100339054036144e+16,1077811091930075.0,1227046426890479.2,110271303541.1789,220083808263.35178,3379547008147.85,75850735468771.25
12.067922161076874,1.1881058408343182e+16,1.4301401100098802e+16,1093002986985011.9,1244341814445707.5,115035338749.58383,229592079606.2586,3525553472138.805,79127709434394.02
12.409280604298411,1.2047104299746116e+16,1.4503667789924218e+16,1108278448904950.8,1261732339659067.8,119962309766.94186,239425547027.64987,3676553562083.0186,82516760195220.58
12.75746621638438,1.2214081650248754e+16,1.4707170317321372e+16,1123639600798265.5,1279220419607710.2,125057171800.59064,249594100491.92877,3832699145807.4746,86021296248557.05
13.112615540712067,1.238201317827665e+16,1.4911939552505018e+16,1139088532656099.5,1296808433666064.8,130325028653.33672,260107926545.98477,3994146645391.9897,89644828305629.25
13.474867851526309,1.2550921267090522e+16,1.5118006074866814e+16,1154627303635983.8,1314498726105706.0,135771136971.16496,270977516797.47574,4161057167360.0625,93390972213482.2
13.844365208556836,1.272082798784689e+16,1.5325400203725184e+16,1170257944183282.0,1332293608510501.2,141400910612.74182,282213676636.21515,4333596636602.893,97263451960661.81
14.221252512727972,1.2891755121039512e+16,1.5534152027227714e+16,1185982458003724.2,1350195362022262.0,147219925143.7085,293827534204.657,4511935934128.352,101266102768737.78
14.605677562982532,1.3063724176451764e+16,1.574429142956371e+16,1201802823898918.0,1368206239430436.0,153233922458.84207,305830549623.6022,4696251038729.36,105402874271786.73
14.997791114242183,1.323675641173738e+16,1.5955848116629868e+16,1217720997475694.0,1386328467118101.5,159448815535.24707,318234524479.4644,4886723172668.525,109677833786009.34
15.397746936527026,1.3410872849735432e+16,1.616885164027802e+16,1233738912739020.5,1404564246875444.2,165870693319.83167,331051611579.57886,5083538951478.853,114095169671723.95
15.805701875257567,1.3586094294616262e+16,1.6383331421263108e+16,1249858483577331.8,1422915757590762.2,172505825754.40488,344294324982.2057,5286890537982.729,118659194790026.14
16.221815912762718,1.3762441346945414e+16,1.6599316770998256e+16,1266081605148358.2,1441385156828151.8,179360668941.81357,357975550308.07947,5496975800634.193,123374350056469.83
16.64625223101797,1.3939934417745084e+16,1.681683691221433e+16,1282410155172715.5,1459974582300243.5,186441870456.6332,372108555340.4913,5713998476292.011,128245208094188.19
17.079177275638333,1.4118593741625702e+16,1.7035920998613288e+16,1298845995141932.0,1478686153243466.0,193756274804.00797,386707000921.102,5938168337533.764,133276476988923.47
17.5207608211511,1.4298439389052728e+16,1.7256598133596806e+16,1315390971446959.8,1497521971702827.0,201310929030.32156,401784952148.82367,6169701364624.007,138473004148501.11
17.97117603757412,1.447949127780933e+16,1.74788973881444e+16,1332046916432676.2,1516484123732419.2,209113088489.4702,417356889889.30695,6408819922252.026,143839780269343.7
18.430599558325603,1.4661769183709526e+16,1.7702847817909614e+16,1348815649383451.2,1535574680517438.2,217170222768.59946,433437722602.74176,6655752941157.359,149381943412673.75
18.899211549492115,1.4845292750611812e+16,1.7928478479597276e+16,1365698977444335.2,1554795699422956.5,225490021777.24976,450042798497.83606,6910736104764.464,155104783193130.2
19.37719578048196,1.5030081499778688e+16,1.815581844667858e+16,1382698696482128.5,1574149224974182.5,234080402003.94815,467187918020.0546,7174012040949.92,161013745082564.56
19.864739696091597,1.5216154838625172e+16,1.8384896824498548e+16,1399816591890165.0,1593637289772673.8,242949512944.37003,484889346682.34155,7445830519068.819,167114434831858.47
20.36203449001343,1.5403532068892776e+16,1.8615742764823576e+16,1417054439340323.2,1613261915352493.0,252105743705.29794,503163828246.7424,7726448652369.604,173412623013666.38
20.869275179813698,1.5592232394286092e+16,1.88483854798746e+16,1434414005485510.5,1633025112979966.2,261557729788.6678,522028598265.53394,8016131105929.454,179914249689038.97
21.38666068340997,1.5782274927603098e+16,1.9082854255888464e+16,1451897048615654.0,1652928884400467.8,271314360060.10843,541501397990.63873,8315150310244.832,186625429200950.84
21.91439389707817,1.5973678697388794e+16,1.9319178466244852e+16,1469505319269789.2,1672975222535290.2,281384783906.4733,561600488660.2787,8623786680615.018,193552455097824.25
22.452681775019734,1.6166462654139914e+16,1.9557387584195664e+16,1487240560806873.8,1693166112131479.0,291778418586.9231,582344666172.0255,8942328842458.883,200701805190189.28
23.00173541052013,1.6360645676085602e+16,1.9797511195229772e+16,1505104509937568.2,1713503530367258.5,302504956782.2455,603753276151.5636,9271073862708.244,208080146743699.22
23.561770118730532,1.6556246574566308e+16,2.003957900910373e+16,1523098897219085.2,1733989447415382.2,313574374347.1788,625846229426.6808,9610327487423.785,215694341811768.34
24.133005521105144,1.6753284099032704e+16,2.0283620871567612e+16,1541225447515059.8,1754625826966687.5,324996938270.58044,648644017916.1803,9960404385782.213,223551452711172.8
24.715665631527248,1.6951776941683698e+16,2.052966677581209e+16,1559485880422232.0,1775414626715845.0,336783214848.3939,672167730943.5938,10321628400586.564,231658747644001.97
25.309978944157795,1.7151743741760738e+16,2.0777746873662296e+16,1577881910665490.8,1796357798811120.5,348944078074.45306,696439071985.7305,10694332805453.625,240023706469435.72
25.91617852304095,1.7353203089515188e+16,2.1027891486539692e+16,1596415248462859.2,1817457290269881.0,361490718254.2379,721480375866.3148,11078860568835.959,248654026628845.75
26.53450209350177,1.755617352986296e+16,2.1280131116216136e+16,1615087599861713.2,1838715043361379.2,374434650846.79663,747314626405.1033,11475564625037.943,257557629227817.62
27.165192135371807,1.7760673565739502e+16,2.1534496455376224e+16,1633900667047418.5,1860132995958102.8,387787725540.1456,773965474533.0643,11884808152388.273,266742665278712.53
27.808495978079243,1.7966721661167494e+16,2.179101839800876e+16,1652856148625537.2,1881713081857079.2,401562135565.4914,801457256884.3665,12306964858733.8,276217522107469.22
28.464665897640828,1.8174336244047024e+16,2.204972804964256e+16,1671955739878517.0,1903457231072093.0,415770427255.7635,829815014876.0248,12742419274422.068,285990829928385.56
29.133959215593645,1.83835357086774e+16,2.2310656737440664e+16,1691201132997698.8,1925367370097832.8,430425509853.96564,859064514286.312,13191567052941.377,296071468590667.5
29.816638399905518,1.859433841801869e+16,2.2573836020167596e+16,1710594017291343.8,1947445422146684.2,445540665576.9484,889232265343.0354,13654815279390.629,306468574500581.7
30.51297116790363,1.8806762705697704e+16,2.2839297698039108e+16,1730136079369192.0,1969693307358895.8,461129559940.23224,920345543332.9916,14132582786951.252,317191547723084.0
31.223230591261704,1.9020826877763864e+16,2.310707382246471e+16,1749829003303986.8,1992112942986421.2,477206252349.6116,952432409743.9869,14625300481536.607,328250059266822.44
31.947695203086937,1.9236549214196572e+16,2.3377196705689708e+16,1769674470770151.8,2014706243550826.0,493785206965.22284,985521733950.8049,15133411674793.32,339654058556447.75
32.686649107148675,1.9453947970164664e+16,2.364969893034056e+16,1789674161159649.2,2037475120975167.5,510881303843.86505,1019643215456.656,15657372425631.705,351413781096148.06
33.44038208929165,1.9673041377035892e+16,2.3924613358876344e+16,1809829751674853.2,2060421484689740.0,528509850365.2711,1054827406701.525,16197651890460.588,363539756328351.56
34.20918973107749,1.9893847643131972e+16,2.4201973142944372e+16,1830142917397993.2,2083547241711148.2,546686592948.07336,1091105736448.8514,16754732682301.39,376042815691499.94
34.993373525699035,2.0116384954221596e+16,2.4481811732634564e+16,1850615331336525.0,2106854296693912.8,565427729061.1062,1128510533761.822,17329111238955.559,388934100880762.3
35.793240996213015,2.034067147373992e+16,2.476416288562479e+16,1871248664443340.0,2130344551953515.5,584749919535.604,1167075052580.394,17921298200394.973,402225072315492.44
36.60910581613728,2.056672534272156e+16,2.5049060676202204e+16,1892044585610554.2,2154019907459322.8,604670301183.7559,1206833496909.9321,18531818795543.094,415927517817157.94
37.44128793246003,2.0794564679426484e+16,2.5336539504143404e+16,1913004761635133.2,2177882260795444.5,625206499728.8533,1247821046631.941,19161213238606.727,430053561501313.9
38.29011369110923,2.1024207578636496e+16,2.5626634103426824e+16,1934130857154140.0,2201933507087005.5,646376643052.0599,1290073883946.9373,19810037135114.05,444615672887079.6
39.15591596493141,2.1255672110592796e+16,2.591937955074911e+16,1955424534547034.5,2226175538888932.5,668199374760.5961,1333629220458.98,20478861897803.062,459626676227338.3
40.03903428423004,2.1488976319540816e+16,2.621481127380421e+16,1976887453801756.5,2250610246033494.5,690693868081.6216,1378525324910.552,21168275172495.113,475099760062648.25
40.93981496991464,2.1724138221840464e+16,2.651296505928112e+16,1998521272340922.0,2275239515432405.5,713879840085.8615,1424801551575.719,21878881274074.38,491048487001555.0
41.85861126931294,2.1961175803594476e+16,2.6813877060524348e+16,2020327644803606.0,2300065230828433.5,737777566244.3059,1472498369318.3215,22611301632677.945,507486803729615.2
42.7957834946992,2.22001070177389e+16,2.711758380479308e+16,2042308222777700.8,2325089272490665.0,762407895320.8202,1521657391320.846,23366175250180.977,524429051249023.5
43.751699164593184,2.244094978053229e+16,2.742412220004338e+16,2064464654476938.5,2350313516846829.0,787792264602.6725,1572321405488.0244,24144159167041.36,541889975350228.9
