t(s),Total solute volume 1,Total retention volume 1,Total 1 volume 1,Total 2 volume 1,Total 3 volume 1,Total 4 volume 1,Total 5 volume 1,Total 6 volume 1
0.1,821307387244814.4,914309965951331.9,46537842289353.97,46464736417161.86,0.0,0.0,0.0,0.0
0.202,1237236855699557.2,1378007309089159.2,70105705391496.87,69995577144273.164,1855981946.9113295,3026952549.387945,34336419583.72574,629951499753.6857
0.30604000000000003,1553701413235764.2,1731335704776560.8,88037575870905.86,87899278674767.33,4707906521.291227,7678214351.257944,87098372728.31853,1597952501523.4167
0.41216080000000005,1821144351793579.0,2030380003928808.5,103191728269785.0,103029625599174.06,8360249233.320454,13634906312.157188,154668600920.46573,2837634509803.221
0.5204040160000001,2058440968120320.8,2296121490016737.0,116637695871999.84,116454471091510.73,12725922530.494522,20755000459.224438,235435997485.62192,4319438012430.53
0.6308120963200001,2274994371325375.0,2539011110739958.5,128908288215997.06,128705787707739.98,17757932616.138268,28961858238.273464,328531208710.9051,6027412491285.741
0.7434283382464002,2476269260363779.5,2765122587154560.5,140313152216677.39,140092735942655.81,23429138842.091537,38211219934.391205,433452173691.8414,7952346098968.497
0.8582969050113283,2665765908230221.5,2978346927360493.5,151050624276958.8,150813340635097.0,29723935986.698578,48477639250.11924,549910243457.9039,10088942399522.38
0.9754628431115548,2845882378731928.0,3181350800153431.5,161256586183817.78,161003270117053.16,36634154566.54022,59747797113.269684,677754335490.1956,12434428833465.617
1.094972099973786,3018344877047608.5,3376054798233524.5,171028850115410.28,170760182914740.28,44156789172.13948,72016796823.98137,816928907384.5652,14987785662384.56
1.2168715419732616,3184444012948208.0,3563895962658540.5,180440546053266.72,180157094130692.62,52292632339.0365,85285936046.255,967448683248.8661,17749282274737.613
1.3412089728127268,3345174153654037.5,3745982601014276.5,189548017950524.53,189250259208015.44,61045401943.03978,99561283691.69818,1129382510472.3965,20720181005588.105
1.4680331522689813,3501320357663967.0,3923190854991509.5,198395749674275.94,198084092134628.2,70421157651.25658,114852728226.57979,1302842564129.6243,23902539068632.227
1.597393815314361,3653515110136760.5,4096227714510595.5,207019579809517.56,206694375197124.4,80427896497.93733,131173318115.13661,1487976865258.3323,27299071287324.79
1.729341691620648,3802276749957918.0,4265673692234961.0,215448879056807.2,215110432957978.53,91075264632.55415,148538791729.48114,1684963948369.494,30913052257528.883
1.863928525453061,3948036318341161.5,4432012636713038.0,223708071557899.9,223356651191352.44,102374347300.64967,166967234850.5168,1894008976297.4307,34748245064169.746
2.001207095962122,4091156820090205.0,4595653118618433.0,231817726299008.12,231453566571883.78,114337513205.89447,186478826860.28586,2115340861129.659,38808848456136.59
2.1412312378813647,4231947355004356.0,4756944125809370.0,239795357842015.72,239418666151665.2,126978297603.9328,207095650344.51874,2349210150672.194,43099462712708.93
2.284055862638992,4370673718991076.5,4916186810802263.0,247656027010059.22,247266987087492.84,140311314363.54117,228841546733.5261,2595887206220.596,47625037646313.88
2.4297369798917723,4507566435787135.0,5073643441056435.0,255412795999952.4,255011571060803.7,154352188137.76022,251742007150.6779,2855661241159.6187,52390882772099.984
2.578331719489608,4642827011591529.0,5229544321298045.0,263077082782440.5,262663818105982.9,169117503787.4891,275824088992.0153,3128839190351.648,57402628034974.3
2.7298983538794,4776632819754756.0,5384093222993058.0,270658937885680.16,270233762962929.56,184624767751.62277,301116353193.6817,3415745044610.5586,62666216224153.35
2.884496320956988,4909140982809925.0,5537471695625768.0,278167264363250.3,277730294699517.84,200892379352.66922,327648817464.0581,3716719320210.1006,68187893236046.45
3.0421862473761276,5040491488919313.0,5689842528525528.0,285609994381750.1,285161333021798.5,217939609938.79953,355452922297.79755,4032118673386.111,73974200997044.4
3.2030299723236504,5170809719020166.0,5841352558946527.0,292994232416778.7,292533971245032.7,235786588361.31552,384561507323.85785,4362315632064.393,80031972536806.45
3.3670905717701234,5300208514964434.0,5992134971035444.0,300326372440185.94,299854593296856.2,254454291640.19196,415008796116.3699,4707698423588.847,86368328822617.14
3.5344323832055258,5428789886256499.0,6142311194023815.0,307612194629171.7,307128970274453.25,273964539930.50833,446830388021.5607,5068670882038.155,92990677053691.06
3.7051210308696363,5556646429408088.0,6291992481796204.0,314856945791362.2,314362340743304.44,294339995096.6693,480063255870.3987,5445652422308.905,99906710180176.61
3.879223451487029,5683862516678778.0,6441281236833646.0,322065406722566.5,321559477989120.75,315604162347.7605,514745748685.534,5839078070853.752,107124407461321.08
4.0568079205167695,5810515298194447.0,6590272127349639.0,329241948989937.44,328724746711814.8,337781394499.26984,550917598673.5847,6249398545031.747,114652035915236.95
4.237944078927105,5936675551863618.0,6739053035810333.0,336390583090883.0,335862151108748.94,360896898512.71173,588619931934.4768,6677080374625.821,122498152541991.44
4.422702960505647,6062408408262357.0,6887705868985470.0,343514999527310.9,342975375884468.3,384976744031.8493,627895282429.2971,7122606060324.353,130671607224562.77
4.61115701971576,6187773972113716.0,7036307253522256.0,350618604020602.0,350067821410343.06,410047873687.1414,668787608834.1586,7586474264942.949,139181546230138.11
4.803380160110075,6312827857708284.0,7184929136285322.0,357704547850198.3,357142634015511.8,436138114981.7996,711342313975.9618,8069200033935.658,148037416248435.75
4.9994477633122765,6437621652278700.0,7333639305008112.0,364775754109862.94,364202732201883.5,463276193606.34503,755606266600.405,8571315042364.329,157248968915083.78
5.199436718578522,6562203318726143.0,7482501841898111.0,371834940527412.3,371250829428029.9,491491748055.4078,801627825266.4374,9093367865991.826,166826265777212.4
5.403425452950093,6686617547027398.0,7631577520543661.0,378884639376546.94,378289453989732.06,520815345442.2652,849456864196.913,9635924274567.143,176779683665798.84
5.611493962009095,6810906062003785.0,7780924154641914.0,385927214915991.2,385320966431731.6,551278498424.3776,899144800944.0261,10199567545699.732,187119920445336.2
5.823723841249277,6935107893811689.0,7930596905601730.0,392964878716338.0,392347574850488.5,582913683167.6754,950744625751.9236,10784898797987.557,197858001116308.12
6.040198318074262,7059259616448283.0,8080648554893391.0,399999703174523.94,399371348387442.5,615754358289.3394,1004310932518.2997,11392537342286.271,209005284250036.78
6.261002284435747,7183395558701282.0,8231129746056498.0,407033633466909.44,406394229163294.1,649834984728.7009,1059899951272.9908,12023121050189.357,220573468738806.28
6.486222330124463,7307547991264693.0,8382089200494987.0,414068498151827.44,413418042863921.9,685191046504.1241,1117569582105.0437,12677306738941.424,232574600846988.6
6.715946776726952,7431747293163032.0,8533573910544591.0,421106018599715.44,420444508155683.06,721859072320.6395,1177379430480.9136,13355770572135.225,245021081551210.25
6.950265712261491,7556022100149084.0,8685629312768851.0,428147817401783.7,427475245080879.6,759876657998.8214,1239390843905.8247,14059208475648.08,257925674159561.7
7.18927102650672,7680399437342868.0,8838299443999782.0,435195425885761.5,434511782561697.3,799282489700.2637,1303666949888.3982,14788336568364.523,271301512201509.3
7.433056447036854,7804904838051540.0,8991627082274429.0,442250290848600.8,441555565122332.9,840116367929.1177,1370272695175.0488,15543891607306.922,285162107581536.1
7.681717575977592,7929562450432280.0,9145653874512058.0,449313780600325.1,448607958923351.3,882419232292.5614,1439274886226.6287,16326631446860.344,299521358990726.8
7.935351927497144,8054395133430317.0,9300420452521072.0,456387190400186.0,455670257189298.1,926233187006.0625,1510742230914.27,17137335511831.432,314393560571511.9
8.194058966047088,8179424543228414.0,9455966538707336.0,463471747355150.9,462743685099493.56,971601527131.7312,1584745381415.6514,17976805284128.742,329793410831599.7
8.45794014536803,8304671211278865.0,9612331042673570.0,470568614841451.4,469829404202637.25,1018568765540.1664,1661356978296.3225,18845864802888.51,345736021803886.7
8.72709894827539,8430154614849905.0,9769552149743726.0,477678896501953.9,476928516407898.3,1067180660588.0524,1740651695763.5059,19745361177906.465,362236928449701.25
9.0016409272409,8555893240897813.0,9927667402313740.0,484803639865354.2,484042067598423.3,1117484244505.204,1822706288082.5176,20676165116260.535,379312098303287.4
9.281673745785717,8681904643974797.0,1.008671377481716e+16,491943839627422.4,491171050907429.9,1169527852486.0725,1907599637147.8694,21639171462037.84,396977941355844.1
9.567307220701432,8808205498794898.0,1.0246727742997138e+16,499100440629550.0,498316409692069.6,1223361152481.8542,1995412801202.9568,22635299749094.492,415251320177833.06
9.85865336511546,8934811648004988.0,1.040774534809236e+16,506274340565600.9,505479040236033.1,1279035175690.2083,2086229064703.8335,23665494766798.984,434149560278548.7
10.155826432417769,9061738145642906.0,1.056980225647346e+16,513466392444391.1,512659794208156.06,1336602347740.299,2180133989323.6316,24730727138719.594,453690460702235.56
10.458942961066125,9188999296708682.0,1.0732933815202858e+16,520677406831911.44,519859480901124.56,1396116520571.7375,2277215466095.412,25831993914231.223,473892304860225.44
10.768121820287448,9316608693226330.0,1.0897175103938174e+16,527908153894704.94,527078869271636.8,1457633005006.141,2377563768692.011,26970319173025.664,494773871598769.2
11.083484256693197,9444579247130664.0,1.106256098355167e+16,535159365263339.6,534318689800952.9,1521208604010.8691,2481271607842.1094,28146754642516.297,516354446502349.3
11.405153941827061,9572923220277906.0,1.1229126141797594e+16,542431735732891.44,541579636192705.7,1586901646654.4338,2588434186882.394,29362380328136.824,538653833432404.1
11.733257020663602,9701652251845014.0,1.139690513632267e+16,549725924815489.0,548862366923008.94,1654772022753.5825,2699149258445.9053,30618305156534.8,561692366301446.5
12.067922161076874,9830777383355932.0,1.1565932435285418e+16,557042558158380.0,556167506656287.8,1724881218212.1753,2813517182287.246,31915667631667.74,585490921082653.2
12.409280604298411,9960309081547540.0,1.1736242455820082e+16,564382228839569.4,563495647538893.2,1797292351051.9307,2931640984245.2197,33255636503809.406,610070928054998.1
12.75746621638438,1.0090257259265852e+16,1.190786960055902e+16,571745498551884.9,570847350381295.1,1872070208135.413,3053626416343.7275,34639411451475.297,635454384284062.0
13.112615540712067,1.022063129456475e+16,1.2080848292403986e+16,579132898685154.2,578223145738573.6,1949281282581.412,3179582018031.859,36068223776277.836,661663866338623.9
13.474867851526309,1.0351440048162022e+16,1.2255213007719618e+16,586544931315335.5,585623534897981.4,2028993811872.9587,3309619178563.6626,37543337110718.63,688722543243123.2
13.844365208556836,1.0482691879392718e+16,1.243099830810483e+16,593982070108464.0,593048990781481.2,2111277816657.9944,3443852200518.4956,39066048138926.72,716654189666070.1
14.221252512727972,1.0614394660786112e+16,1.2608238870882646e+16,601444761146642.2,600499958770432.1,2196205140242.7822,3582398364462.093,40637687330345.625,745483199344419.2
14.605677562982532,1.0746555791381492e+16,1.2786969518436724e+16,608933423682558.2,607976857458924.2,2283849488777.605,3725377994748.6367,42259619686373.27,775234598743850.1
14.997791114242183,1.0879182208887204e+16,1.2967225246510698e+16,616448450828435.9,615480079341654.0,2374286472134.5703,3872914526463.533,43933245499950.195,805934060954868.2
15.397746936527026,1.1012280400777536e+16,1.3149041251575672e+16,623990210184838.5,623009991441723.6,2467593645476.62,4025134573506.388,45660001128091.445,837607919824506.2
15.805701875257567,1.1145856414414584e+16,1.3332452957362098e+16,631559044414195.1,630566935883281.8,2563850551516.865,4182167997812.9663,47441359777351.16,870283184323337.4
16.221815912762718,1.1279915866274004e+16,1.3517496040643848e+16,639155271763565.8,638151230413459.2,2663138763466.8867,4344147979714.796,49278832302200.37,903987553147421.4
16.64625223101797,1.1414463950347396e+16,1.3704206456354872e+16,646779186540736.9,645763168877720.1,2765541928672.4565,4511211089434.2,51173968016297.13,938749429554623.2
17.079177275638333,1.1549505445787404e+16,1.3892620462111202e+16,654431059547434.8,653403021652397.4,2871145812934.4375,4683497359712.039,53128355516617.33,974597936434707.8
17.5207608211511,1.1685044723857208e+16,1.4082774642205934e+16,662111138473082.9,661071036037820.9,2980038345512.5576,4861150359564.802,55143623520408.84,1011562931612332.9
17.97117603757412,1.182108575423955e+16,1.4274705931138162e+16,669819648252311.5,668767436615274.9,3092309664809.0347,5044317269166.9375,57221441714921.31,1049675023382102.0
18.430599558325603,1.1957632110757652e+16,1.446845163673229e+16,677556791389110.0,676492425570642.4,3208052164728.5415,5233148955853.29,59363521619857.51,1088965586274417.9
18.899211549492115,1.2094686976554894e+16,1.4664049462899e+16,685322748250322.2,684246182987436.8,3327360541710.4463,5427800051236.062,61571617462478.625,1129466777050902.8
19.37719578048196,1.223225314877691e+16,1.4861537532084504e+16,693117677330963.8,692028867111688.0,3450331842428.8203,5628429029429.096,63847527065286.66,1171211550927805.8
19.864739696091597,1.23703330427962e+16,1.506095440745109e+16,700941715493587.5,699840614590960.1,3577065512154.445,5835198286371.648,66193092746193.23,1214233678025632.8
20.36203449001343,1.2508928696015764e+16,1.5262339114827114e+16,708794978183808.0,707681540689517.0,3707663443773.038,6048274220242.305,68610202231070.875,1258567760042936.2
20.869275179813698,1.264804177128483e+16,1.5465731164461202e+16,716677559623861.5,715551739481580.1,3842230027452.34,6267827312952.623,71100789578565.06,1304249247151967.2
21.38666068340997,1.2787673559957596e+16,1.5671170572612018e+16,724589532985910.4,723451284024371.1,3980872200950.0874,6494032212707.521,73666836117030.14,1351314455113447.5
21.91439389707817,1.29278249846217e+16,1.587869788299989e+16,732530950546652.1,731380226512461.2,4123699500553.693,6727067817619.425,76310371393429.08,1399800582607462.8
22.452681775019734,1.3068496601521136e+16,1.6088354188144598e+16,740501843824607.1,739338598414859.8,4270824112641.1846,6967117360359.031,79033474134014.78,1449745728776973.0
23.00173541052013,1.3209688602694702e+16,1.6300181150608248e+16,748502223701298.1,747326410595997.2,4422360925851.408,7214368493824.929,81838273216587.56,1501188910979961.5
23.561770118730532,1.3351400817849268e+16,1.6514221024159824e+16,756532080527372.4,755343653421677.8,4578427583850.198,7469013377811.013,84726948654087.2,1554170082745737.5
24.133005521105144,1.349363271598215e+16,1.6730516674872388e+16,764591384214570.1,763390296850898.2,4739144538676.788,7731248766647.331,87701732589252.92,1608730151930222.0
24.715665631527248,1.3636383406766814e+16,1.6949111602162136e+16,772680084314202.9,771466290514219.6,4904635104653.585,8001276097787.611,90764910300039.89,1664910999064428.8
25.309978944157795,1.3779651641710356e+16,1.7170049959771408e+16,780798110082758.4,779571563779252.5,5075025512839.028,8279301581312.163,93918821215441.1,1722755495889467.0
25.91617852304095,1.392343581508982e+16,1.739337657669668e+16,788945370534956.8,787706025803641.5,5250444966001.486,8565536290310.751,97165859941317.53,1782307524070641.5
26.53450209350177,1.4067733964671144e+16,1.7619136978055408e+16,797121754484483.5,795869565575727.8,5431025694088.876,8860196252105.764,100508477295780.67,1843611994082076.5
27.165192135371807,1.4212543772211038e+16,1.7847377405882796e+16,805327130572425.5,804062051942944.1,5616903010165.408,9163502540270.34,103949181353620.12,1906714864252325.0
27.808495978079243,1.4357862563739266e+16,1.8078144839843864e+16,813561347283274.9,812283333627779.1,5808215366783.417,9475681367390.275,107490538499193.19,1971663159960168.5
28.464665897640828,1.450368730961612e+16,1.831148701784219e+16,821824232948176.4,820533239231045.1,6005104412754.142,9796964178512.434,111135174487130.05,2038504992968455.2
29.133959215593645,1.4650014624356456e+16,1.85474524565013e+16,830115595734955.5,828811577221903.6,6207715050277.246,10127587745215.45,114885775510122.83,2107289580882393.8
29.816638399905518,1.479684076620911e+16,1.8786090471490184e+16,838435223624304.2,837118135914091.0,6416195492383.743,10467794260230.021,118745089272984.62,2178067266717085.0
30.51297116790363,1.4944161636478526e+16,1.9027451197660076e+16,846782884371317.0,845452683427515.5,6630697320642.592,10817831432529.604,122715926072067.05,2250889538557456.5
31.223230591261704,1.5091972778571488e+16,1.9271585608954056e+16,855158325451490.2,853814967634351.2,6851375543074.981,11177952582801.361,126801159879031.1,2325809049291835.5
31.947695203086937,1.5240269376751778e+16,1.9518545538048236e+16,863561273990161.6,862204716088570.5,7078388652215.392,11548416739200.18,131003729427854.81,2402879636398473.5
32.686649107148675,1.53890462545824e+16,1.9768383695677148e+16,871991436674229.9,870621635937813.5,7311898683251.895,11929488733276.604,135326639303854.11,2482156341762327.0
33.44038208929165,1.553829787303451e+16,2.002115368959462e+16,880448499645007.1,879065413816410.8,7552071272171.971,12321439295960.865,139772961033371.38,2563695431497182.5
34.20918973107749,1.5688018328240976e+16,2.0276910043116204e+16,888932128370924.1,887535715718281.9,7799075713833.729,12724545153473.54,144345834172671.94,2647554415746049.5
34.993373525699035,1.5838201348872622e+16,2.05357082131877e+16,897441967498872.4,896032186848510.6,8053085019875.322,13139089123022.895,149048467394459.12,2733792068430428.0
35.793240996213015,1.5988840293115432e+16,2.0797604607922148e+16,905977640682907.1,904554451452324.9,8314275976368.721,13565360208137.604,153884139570292.38,2822468446916710.5
36.60910581613728,1.613992814522802e+16,2.1062656603544936e+16,914538750389191.1,913102112620339.0,8582829201117.353,14003653693472.715,158856200847071.34,2913644911565731.5
37.44128793246003,1.6291457511660362e+16,2.1330922560689544e+16,923124877676068.5,921674752068979.4,8858929200489.65,14454271238915.068,163968073715620.2,3007384145129098.0
38.29011369110923,1.644342061671743e+16,2.1602461839982276e+16,931735581948350.2,930271929895148.4,9142764425674.441,14917520972804.117,169223254069280.1,3103750171953639.0
39.15591596493141,1.6595809297754192e+16,2.187733481685958e+16,940370400685056.9,938893184304400.0,9434527328237.754,15393717584073.453,174625312250307.66,3202808376953315.5
40.03903428423004,1.6748614999893294e+16,2.215560289556081e+16,949028849140094.2,947538031312089.9,9734414414853.67,15883182413108.426,180177894081753.8,3304625524305613.0
40.93981496991464,1.6901828770260176e+16,2.243732852224532e+16,957710420015605.5,956205964417223.2,10042626301077.625,16386243541106.129,185884721882411.25,3409269775827722.5
41.85861126931294,1.7055441279270292e+16,2.272257519642519e+16,966414584667650.9,964896455805124.1,10359367780554.56,16903235903075.303,191749595440978.38,3516810677557529.0
42.7957834946992,1.7209442703843914e+16,2.301140748451905e+16,975140786490850.8,973608949747016.5,10684847810746.924,17434501272719.37,197776393074247.16,3627319302279560.0
43.751699164593184,1.7363822885266022e+16,2.330389102767445e+16,983888449860147.6,982342871520902.2,11019279660987.379,17980388496280.926,203969072450074.06,3740868080420014.5
44.72673314788505,1.7518571211539516e+16,2.360009255178699e+16,992656973466612.5,991097620762394.8,11362880896032.914,18541253473948.684,210331671591324.03,3857530940057123.0
45.721267810842754,1.767367663687414e+16,2.3900079875626268e+16,1001445731421240.0,999872572565645.6,11715873439076.027,19117459263080.367,216868309746829.03,3977383292316247.0
