t(s),Total solute volume 1,Total retention volume 1,Total 1 volume 1,Total 2 volume 1,Total 3 volume 1,Total 4 volume 1,Total 5 volume 1,Total 6 volume 1
0.1,858476762157242.6,970941579421749.6,55300119698977.766,57164697565528.79,0.0,0.0,0.0,0.0
0.202,1273277654059067.5,1479673173122534.5,82020166278932.66,84785675704213.6,91414359686.65341,157286392649.62198,1933083736555.4797,37407892591430.12
0.30604000000000003,1574588663426525.5,1879757279545146.8,101429584982101.45,104849530217700.89,228333889964.47104,392886571433.991,4828683317262.545,93439597140156.58
0.41216080000000005,1817777599974285.5,2228865679665582.2,117094979693243.2,121043121847063.5,399328785237.7543,687144201731.1984,8445222895080.809,163418282268936.44
0.5204040160000001,2023931312160221.0,2548394511960122.5,130374692654193.84,134770592659104.98,598732891123.9502,1030317904266.0002,12662984744090.947,245025878947126.9
0.6308120963200001,2203740937668351.8,2848925147685665.5,141957410177121.2,146743849702934.34,823057181680.7852,1416411399346.3848,17408278885798.707,336835202670433.4
0.7434283382464002,2363528613616812.5,3136572594881193.0,152250382586741.2,157383874739393.75,1069909487429.5925,1841315208907.5293,22630604299426.35,437867894942483.0
0.8582969050113283,2507413247260647.5,3415239362420070.5,161518935719086.25,166964939710730.28,1337542741274.1487,2302029578553.153,28293098572219.66,547409568837564.1
0.9754628431115548,2638263642701440.0,3687595252535411.0,169947868065442.94,175678074038946.03,1624628212917.775,2796274429323.511,34367744199698.5,664917020887644.0
1.094972099973786,2758177889818469.5,3955564084965723.5,177672331358199.94,183662986425832.88,1930127417498.2502,3322269046183.0938,40832660965906.51,789965819933625.8
1.2168715419732616,2868748617938512.5,4220589656225871.5,184794917299774.0,191025727702572.88,2253213494906.067,3878596862433.615,47670444157437.65,922218138770226.4
1.3412089728127268,2971220701721482.0,4483791879475831.5,191395816433251.06,197849192231430.8,2593219879030.38,4464117185180.896,54867079684344.25,1061401752341113.1
1.4680331522689813,3066590447445918.5,4746063744192946.0,197539207381686.5,204199722573808.78,2949605145226.359,5077904748159.772,62411201199396.586,1207295655698750.5
1.597393815314361,3155670862043862.5,5008134309148580.0,203277461254803.5,210131455658746.0,3321928004557.687,5719206717216.158,70293561710236.65,1359719833759154.5
1.729341691620648,3239136232576173.0,5270611179014737.0,208654013305434.47,215689291264242.72,3709828957227.8447,6387411149578.456,78506645958268.75,1518527755803805.0
1.863928525453061,3317553539400816.5,5534010054257141.0,213705386457759.38,220910983773677.3,4113016482547.6436,7082023255908.134,87044378693413.78,1683600726193017.2
2.001207095962122,3391405186633845.5,5798775841619604.0,218462655525406.8,225828655763580.53,4531256417562.778,7802647146807.769,95901900352628.89,1854843539779768.2
2.1412312378813647,3461105829687107.5,6065298085051141.0,222952531183542.34,230469918524480.1,4964363637327.131,8548971538176.033,105075391392541.5,2032181079087962.2
2.284055862638992,3527015082705963.5,6333922472863332.0,227198178538294.88,234858718230386.9,5412195435011.837,9320758380362.395,114561932555545.31,2215555607017763.8
2.4297369798917723,3589447283420193.5,6604959571364790.0,231219846144857.97,239015986165770.44,5874646182632.988,10117833690134.334,124359392208511.47,2404924583552683.5
2.578331719489608,3648679113403708.5,6878691558116328.0,235035356878405.12,242960146147379.53,6351642973572.547,10940080071540.846,134466334438157.89,2600258884203557.5
2.7298983538794,3704955626978677.5,7155377486397019.0,238660496295356.03,246707515980055.03,6843142029520.007,11787430551853.082,144881943308903.22,2801541331252666.5
2.884496320956988,3758495080154526.5,7435257453837433.0,242109323697010.7,250272629008630.97,7349125710842.949,12659863455731.088,155605959880769.06,3008765471929922.0
3.0421862473761276,3809492841561151.5,7718555941653277.0,245394424058418.9,253668494541194.6,7869600009217.936,13557398109260.754,166638629426682.97,3221934553947348.0
3.2030299723236504,3858124591849097.5,8005484517942196.0,248527114122727.1,256906810892410.66,8404592429999.751,14480091214771.268,177980656894031.62,3441060660539163.0
3.3670905717701234,3904548965008059.5,8296244047607677.0,251517612545832.28,259998141265012.25,8954150192752.336,15428033773369.707,189633169098049.62,3666163975724610.0
3.5344323832055258,3948909747197706.5,8591026515389006.0,254375181537503.56,262952060166697.0,9518338693909.934,16401348458861.371,201597682463179.9,3897272156871151.5
3.7051210308696363,3991337721247380.0,8890016542507159.0,257108245677698.22,265777276232627.06,10097240187229.607,17400187366837.541,213876075375725.9,4134419796419674.0
3.879223451487029,4031952224820614.0,9193392658491120.0,259724492288169.3,268481735981307.4,10690952646600.928,18424730078025.582,226470564399301.28,4377647958277086.0
4.0568079205167695,4070862475240765.0,9501328375753706.0,262230956773168.34,271072712032757.16,11299588782638.879,19475181986793.684,239383683749600.25,4627003777187982.0
4.237944078927105,4108168702681741.5,9813993104027326.0,264634095615698.38,273556878566009.03,11923275189823.348,20551772854885.242,252618267537827.75,4882540111581333.0
4.422702960505647,4143963124836818.0,1.0131552933868666e+16,266939849162321.75,275940376220863.03,12562151605144.154,21654755557671.848,266177434380821.06,5144315242104999.0
4.61115701971576,4178330789575317.5,1.0454171312414846e+16,269153695904209.0,278228868209146.7,13216370262537.709,22784404995936.95,280064574046211.72,5412392609421496.0
4.803380160110075,4211350306975687.0,1.0782009629932348e+16,271280699632189.34,280427589059717.1,13886095330059.76,23941017150774.98,294283335857185.0,5686840585926734.0
4.9994477633122765,4243094488116221.5,1.1115227732095282e+16,273325550585449.16,282541387154588.3,14571502418881.65,25124908262877.242,308837618626702.4,5967732276930592.0
5.199436718578522,4273630904843703.0,1.1453984370108584e+16,275292601509906.47,284574762003096.75,15272778154936.533,26336414120468.04,323731561927807.56,6255145347548676.0
5.403425452950093,4303022382228526.5,1.1798437598564334e+16,277185899380474.0,286531897033763.0,15990119805461.76,27575889442594.55,338969538536662.56,6549161872136878.0
5.611493962009095,4331327433403552.5,1.214874512915245e+16,279009213411880.25,288416688549564.2,16723734953851.34,28843707346488.53,354556147909677.94,6849868203577414.0
5.823723841249277,4358600644863851.0,1.25050646469305e+16,280766059878357.4,290232771384473.2,17473841217199.035,30140258889375.32,370496210576498.8,7157354860120750.0
6.040198318074262,4384893018990204.5,1.2867554094721488e+16,282459724177824.4,291983541711597.9,18240666001713.668,31465952676489.434,386794763347628.7,7471716427816036.0
6.261002284435747,4410252279487365.0,1.3236371930283866e+16,284093280507169.5,293672177381854.94,19024446291862.21,32821214528213.754,403457055249638.9,7793051476837757.0
6.486222330124463,4434723144548371.0,1.3611677360150218e+16,285669609458552.7,295301656113584.44,19825428469656.684,34206487200227.086,420488544112891.06,8121462490246936.0
6.715946776726952,4458347571831051.0,1.3993630553415562e+16,287191413799958.0,296874771805169.44,20643868160980.633,35622230151366.78,437894893746754.75,8457055803920277.0
6.950265712261491,4481164978731467.0,1.438239283825066e+16,288661232664440.94,298394149202718.75,21480030106250.11,37068919354608.98,455681971645845.4,8799941556545330.0
7.18927102650672,4503212440937847.5,1.477812688349896e+16,290081454340295.25,299862257121480.44,22334188053051.836,38547047147159.3,473855847178103.06,9150233648721024.0
7.433056447036854,4524524871829973.0,1.518099686736825e+16,291454327827343.0,301281420391781.1,23206624668690.098,40057122116155.16,492422790211741.44,9508049710322582.0
7.681717575977592,4545135184936246.0,1.559116863493928e+16,292781973301859.06,302653830676801.75,24097631470829.555,41599669016914.055,511389270143468.4,9873511075393162.0
7.935351927497144,4565074441363604.0,1.6008809845970786e+16,294066391613503.5,303981556289720.2,25007508774635.406,43175228721037.6,530761955294929.44,1.0246742763913358e+16
8.194058966047088,4584371983863772.0,1.6434090114277634e+16,295309472921402.3,305266551120979.4,25936565654999.004,44784358192002.51,550547712648367.4,1.0627873469876112e+16
8.45794014536803,4603055558984639.0,1.6867181139785884e+16,296513004562720.44,306510662772172.56,26885119922601.598,46427630486156.25,570753607895904.5,1.1017035555161702e+16
8.72709894827539,4621151428573436.0,1.7308256834223714e+16,297678678235316.3,307715639980868.1,27853498112706.375,48105634777271.445,591386905779866.4,1.1414365048764248e+16
9.0016409272409,4638684471741134.0,1.7757493441282986e+16,298808096565933.06,308883139410275.8,28842035485694.285,49818976403031.914,612455070704202.5,1.1820001650972702e+16
9.281673745785717,4655678278263573.0,1.8215069651980964e+16,299902779126783.1,310014731868684.4,29851076038464.645,51568276932010.46,633965767599335.2,1.223408874215213e+16
9.567307220701432,4672155234278378.0,1.8681166715861804e+16,300964167955841.5,311111908015895.44,30880972525916.066,53354174249856.83,655926863024813.4,1.2656773395811062e+16
9.85865336511546,4688136601036713.0,1.915596854859793e+16,301993632629772.4,312176083607181.25,31932086491806.19,55177322663564.984,678346426495891.4,1.3088206395673018e+16
10.155826432417769,4703642587382001.0,1.963966183648909e+16,302992474932747.25,313208604319544.0,33004788308358.848,57038393022814.04,701232732021741.1,1.352854225650185e+16
10.458942961066125,4718692416551877.0,2.0132436138293188e+16,303961933159610.5,314210750199952.06,34099457224055.17,58938072857485.98,724594259844423.4,1.3977939248455792e+16
10.768121820287448,4733304387834268.0,2.0634483984779784e+16,304903186087537.75,315183739770926.2,35216481419097.125,60877066530571.82,748439698368883.6,1.4436559424768524e+16
11.083484256693197,4747495933550061.0,2.1146000976348204e+16,305817356646676.2,316128733824939.6,36356258068086.32,62856095405757.555,772777946275469.4,1.490456865257721e+16
11.405153941827061,4761283671785310.0,2.166718587901858e+16,306705515316961.2,317046838935769.0,37519193409500.35,64875898029068.44,797618114807316.6,1.5382136646734646e+16
11.733257020663602,4774683455250685.0,2.219824071906929e+16,307568683275480.94,317939110711975.5,38705702821595.1,66937230324016.26,822969530225913.1,1.5869437006459666e+16
12.067922161076874,4787710416607431.0,2.2739370876566516e+16,308407835316220.6,318806556815098.0,39916210904387.125,69040865799758.69,848841736428901.6,1.6366647254694682e+16
12.409280604298411,4800379010564500.0,2.329078517800511e+16,309223902561802.44,319650139762830.9,41151151567411.38,71187595771840.03,875244497724884.1,1.6873948880051882e+16
12.75746621638438,4812703053020749.0,2.3852695988260924e+16,310017774984909.25,320470779535449.06,42410968122969.46,73378229595129.05,902187801760629.2,1.7391527381241114e+16
13.112615540712067,4824695757499730.0,2.4425319302030676e+16,310790303755269.25,321269356001948.4,43696113384612.86,75613594908620.16,929681862596687.5,1.7919572313883822e+16
13.474867851526309,4836369769099869.0,2.5008874834923036e+16,311542303426628.94,322046711180738.8,45007049770624.36,77894537891803.45,957737123927870.9,1.845827733962547e+16
13.844365208556836,4847737196162345.0,2.5603586114345996e+16,312274553976671.1,322803651348351.56,46344249412285.46,80221923532349.9,986364262445606.8,1.900784027746832e+16
14.221252512727972,4858809639839107.0,2.6209680570323972e+16,312987802711700.3,323540949008344.6,47708194266728.41,82596635904888.36,1015574191339538.8,1.9568463157253604e+16
14.605677562982532,4869598221727371.0,2.6827389626365132e+16,313682766046749.0,324259344731432.8,49099376234193.45,85019578460687.84,1045378063936159.0,2.0140352275228508e+16
14.997791114242183,4880113609721064.0,2.7456948790489332e+16,314360131170847.2,324959548876896.7,50518297279521.84,87491674328079.75,1075787277472645.2,2.0723718251640296e+16
15.397746936527026,4890366042216434.0,2.8098597746517172e+16,315020557606261.56,325642243204405.3,51965469557730.07,90013866623492.14,1106813477004334.1,2.1318776090304516e+16
15.805701875257567,4900365350796856.0,2.875258044571264e+16,315664678669776.75,326308082384562.44,53441415543520.52,92587118772977.02,1138468559444642.0,2.192574524010031e+16
16.221815912762718,4910120981510981.0,2.941914519886361e+16,316293102843347.56,326957695415777.3,54946668164592.4,95212414844151.25,1170764677736441.0,2.254484965834828e+16
16.64625223101797,4919642014847871.0,3.009854476887772e+16,316906415060846.1,327591686954393.4,56481770938630.88,97890759888472.52,1203714245154220.0,2.31763178760333e+16
17.079177275638333,4928937184505009.0,3.0791036463965656e+16,317505177917020.3,328210638564412.44,58047278113851.86,100623180293811.61,1237329939736570.2,2.3820383064834988e+16
17.5207608211511,4938014895035958.0,3.1496882231476172e+16,318089932804300.0,328815109892629.3,59643754812994.3,103410724147280.02,1271624708848722.5,2.4477283105934292e+16
17.97117603757412,4946883238457786.0,3.221634875244622e+16,318661200982587.9,329405639774498.06,61271777180654.1,106254461608300.52,1306611773875145.0,2.5147260660567212e+16
18.430599558325603,4955550009891666.0,3.2949707536918816e+16,319219484586776.25,329982747275611.44,62931932533857.555,109155485291921.45,1342304635042276.0,2.5830563242296732e+16
18.899211549492115,4964022722303982.0,3.369723502008387e+16,319765267576316.3,330546932673295.25,64624819515781.82,112114910662380.4,1378717076371802.2,2.6527443290980316e+16
19.37719578048196,4972308620410164.0,3.4459212659287404e+16,320299016630852.56,331098678382436.2,66351048252527.54,115133876436953.08,1415863170764938.8,2.723815824840955e+16
19.864739696091597,4980414693798106.0,3.5235927031955104e+16,320821181995595.0,331638449829361.5,68111240512856.95,118213545000112.77,1453757285218332.8,2.7962970635600748e+16
20.36203449001343,4988347689324057.0,3.6027669934470584e+16,321332198279815.1,332166696277250.75,69906029870810.98,121355102828064.56,1492414086172423.8,2.870214813171816e+16
20.869275179813698,4996114122829380.0,3.6834738482046744e+16,321832485211599.06,332683851606349.5,71736061871119.6,124559760923697.55,1531848544993203.2,2.945596365461139e+16
21.38666068340997,5003720290223203.0,3.765743520962557e+16,322322448351756.2,333190335051938.25,73601994197327.3,127828755262039.62,1572075943588399.2,3.0224695442950852e+16
21.91439389707817,5011172277972253.0,3.849606817383827e+16,322802479769532.94,333686551902835.3,75504496842546.52,131163347246285.56,1613111880159331.5,3.1008627139945584e+16
22.452681775019734,5018475973036337.0,3.9350951056057624e+16,323272958682633.06,334172894162995.5,77444252282765.33,134564824174490.11,1654972275089698.2,3.1808047878628732e+16
23.00173541052013,5025637072285166.0,4.022240326656688e+16,323734252063805.8,334649741178547.6,79421955652623.4,138034499717022.38,1697673376972762.8,3.2623252368696908e+16
23.561770118730532,5032661091429094.0,4.1110750049875256e+16,324186715216139.2,335117460232491.0,81438314923578.06,141573714404888.84,1741231768778472.0,3.345454098489064e+16
24.133005521105144,5039553373494681.0,4.201632259119998e+16,324630692319024.75,335576407109065.2,83494051084382.56,145183836129036.06,1785664374162093.0,3.4302219856901628e+16
24.715665631527248,5046319096873334.0,4.2939458124136584e+16,325066516946622.3,336026926629697.1,85589898323790.34,148866260650753.75,1830988463916233.0,3.5166600960796116e+16
25.309978944157795,5052963282969260.0,4.3880500039539176e+16,325494512560518.2,336469353162270.0,87726604215403.1,152622412123307.56,1877221662567949.2,3.6048002211940536e+16
25.91617852304095,5059490803471517.0,4.4839797995625416e+16,325914992978164.94,336904011105357.6,89904929904583.77,156453743624935.3,1924381955122952.2,3.694674755941795e+16
26.53450209350177,5065906387272799.0,4.581770802932304e+16,326328262818561.44,337331215348932.6,92125650297340.75,160361737703346.97,1972487693958954.5,3.786316708192311e+16
27.165192135371807,5072214627056318.0,4.681459266887221e+16,326734617926563.6,337751271712978.94,94389554251100.97,164347906931880.53,2021557605870224.2,3.879759708512315e+16
27.808495978079243,5078419985570483.0,4.783082104769407e+16,327134345777069.8,338164477365316.9,96697444767275.95,168413794477457.62,2071610799265594.2,3.9750380200470936e+16
28.464665897640828,5084526801610018.0,4.886676901953851e+16,327527725860314.7,338571121219874.0,99050139185533.38,172560974680512.72,2122666771522184.5,4.07218654854601e+16
29.133959215593645,5090539295720740.0,4.9922819274915576e+16,327915030049340.9,338971484316555.8,101448469379673.16,176791053647048.66,2174745416497254.5,4.171240852530495e+16
29.816638399905518,5096461575644086.0,5.099936145882113e+16,328296522950718.44,339365840183792.06,103893281955007.33,181105669852995.56,2227867032200592.2,4.272237153603404e+16
30.51297116790363,5102297641516425.0,5.2096792289760264e+16,328672462239474.94,339754455184748.94,106385438447144.31,185506494761051.06,2282052328629985.0,4.375212346898139e+16
31.223230591261704,5108051390837406.0,5.3215515680069624e+16,329043098979132.1,340137588848169.1,108925815522067.25,189995233450179.44,2337322435772481.5,4.480204011666015e+16
31.947695203086937,5113726623220561.0,5.435594285754372e+16,329408677927720.2,340515494184698.25,111515305177394.56,194573625257956.94,2393698911773920.0,4.5872504220001544e+16
32.686649107148675,5119327044938222.0,5.551849248836222e+16,329769437830555.44,340888417989532.3,114154814944708.3,199243444435963.53,2451203751279793.5,4.696390557694337e+16
33.44038208929165,5124856273272812.0,5.670359080131566e+16,330125611700529.94,341256601132160.6,116845268092826.4,204006500818402.75,2509859393950013.0,4.807664115234888e+16
34.20918973107749,5130317840685106.0,5.791167171332799e+16,330477427086612.75,341620278833924.5,119587603831896.75,208864640504167.0,2569688733150665.0,4.92111151892356e+16
34.993373525699035,5135715198809701.0,5.914317695626628e+16,330825106331233.6,341979680934069.0,122382777518176.08,213819746552544.5,2630715124825706.5,5.036773932129486e+16
35.793240996213015,5141051722287452.0,6.039855620503293e+16,331168866817145.4,342335032144938.44,125231760859364.53,218873739692783.2,2692962396551647.5,5.1546932686679624e+16
36.60910581613728,5146330712443625.0,6.167826720692744e+16,331508921204368.94,342686552296905.2,128135542120342.69,224028579047723.94,2756454856778430.0,5.2749122043036184e+16
37.44128793246003,5151555400820651.0,6.29827759122676e+16,331845477657750.9,343034456573599.44,131095126329172.4,229286262871726.78,2821217304259636.0,5.397474188375514e+16
38.29011369110923,5156728952573036.0,6.431255660625407e+16,332178740065654.44,343378955737981.0,134111535483197.52,234648829303114.5,2887275037675342.0,5.5224234555415736e+16
39.15591596493141,5161854469732231.0,6.566809204206377e+16,332508908250277.3,343720256349739.7,137185808755086.53,240118357131352.97,2954653865451014.0,5.649805037639409e+16
40.03903428423004,5166934994348510.0,6.7049873575151256e+16,332836178170032.75,344058560974505.4,140319002698646.3,245696966579216.1,3023380115775855.5,5.7796647756604616e+16
40.93981496991464,5171973511516465.0,6.845840129873812e+16,333160742114446.8,344394068385314.56,143512191454228.53,251386820100154.1,3093480646824070.5,5.912049331834335e+16
41.85861126931294,5176972952290469.0,6.989418418046634e+16,333482788891957.94,344726973756742.8,146766466953549.47,257190123191123.75,3164982857182626.5,6.047006201819994e+16
42.7957834946992,5181936196496043.0,7.135774020019054e+16,333802504011022.56,345057468852117.1,150082939123718.7,263109125221106.44,3237914696489265.5,6.184583726999723e+16
43.751699164593184,5186866075442877.0,7.28495964888775e+16,334120069854871.06,345385742204164.1,153462736090295.56,269146120275577.2,3312304676284300.5,6.3248311068725624e+16
