t(s),Total solute volume 1,Total retention volume 1,Total 1 volume 1,Total 2 volume 1,Total 3 volume 1,Total 4 volume 1,Total 5 volume 1,Total 6 volume 1
0.1,1386011386779396.2,8520484941412214.0,2082602288778356.8,5051871265854462.0,0.0,0.0,0.0,0.00819856729667888
0.202,2016862252609310.8,1.2490285777971988e+16,3030512299913807.0,7351294880972289.0,42908639236.37221,271771336657.60114,12050503380423.615,79251161120265.34
0.30604000000000003,2500751858974297.0,1.5624622875842034e+16,3757599085012514.5,9115036803386976.0,107473556810.49164,681166191507.7664,31401085030199.605,219045403689731.72
0.41216080000000005,2903632639946635.0,1.831609245942601e+16,4362962898641811.0,1.058350617574238e+16,189061378665.01685,1198587733623.9114,56253105470466.836,408349990512421.25
0.5204040160000001,3254001506695531.0,2.0732644210036956e+16,4889422913079362.0,1.186057312109117e+16,285343679284.6208,1809239538198.7996,85759096255832.6,640792989697579.8
0.6308120963200001,3566804943768491.0,2.296147009860462e+16,5359437551747588.0,1.3000716720975098e+16,394914965671.4876,2504194616822.817,119426426868906.97,912185345662040.9
0.7434283382464002,3850977640163216.0,2.5054114790706556e+16,5786431976673146.0,1.4036503339527868e+16,516837213019.7778,3277496089788.155,156931050005199.1,1219476451034317.8
0.8582969050113283,4112365349924492.5,2.7043918527832612e+16,6179189950329409.0,1.4989240352668386e+16,650447688652.2958,4124935595372.871,198045133859635.9,1560302357766675.2
0.9754628431115548,4355046877527531.0,2.895389121693329e+16,6543840236855588.0,1.5873794718994986e+16,795262510595.002,5043440620422.327,242602689619155.53,1932767990804986.2
1.094972099973786,4582006136008148.0,3.0800707354532456e+16,6884866429158015.0,1.670104259210575e+16,950922021194.0729,6030727569297.539,290480651870471.9,2335329895799568.5
1.2168715419732616,4795505609328351.0,3.2596920064680068e+16,7205668109215088.0,1.7479230566865384e+16,1117156983605.89,7085087099822.022,341587296691023.4,2766726238496785.5
1.3412089728127268,4997308869165681.0,3.4352274877727456e+16,7508895199234124.0,1.821478673797902e+16,1293766216013.838,8205242090710.349,395854570260369.0,3225930492781549.5
1.4680331522689813,5188820854970745.0,3.607453268383013e+16,7796658744828497.0,1.891283201095324e+16,1480601022814.207,9390248764540.719,453232702968558.56,3712117520321733.5
1.597393815314361,5371180567852220.0,3.777000838332687e+16,8070670195761534.0,1.9577517964684984e+16,1677553942446.7314,10639425217610.912,513686269649191.1,4224636406218903.5
1.729341691620648,5545324809094632.0,3.944393650277146e+16,8332337178693933.0,2.0212259173779584e+16,1884550395962.539,11952298368730.336,577191230076786.4,4762987262361814.0
1.863928525453061,5712033515400363.0,4.110072706849967e+16,8582831617386069.0,2.0819898452262944e+16,2101542376698.9272,13328563870926.613,643732672072264.1,5326800705130410.0
2.001207095962122,5871962933470754.0,4.274414941257312e+16,8823139580435345.0,2.140282777258097e+16,2328503626601.222,14768055466881.838,713303078547015.9,5915819488445550.0
2.1412312378813647,6025670471233297.0,4.4377467219372376e+16,9054098622440720.0,2.196307884658913e+16,2565425920454.2705,16270721383754.36,785900994273691.8,6529882137531365.0
2.284055862638992,6173633669895772.0,4.6003539719400056e+16,9276426291191450.0,2.250239227738817e+16,2812316186439.296,17836606042688.74,861530000205761.9,7168908558489752.0
2.4297369798917723,6316264908225665.0,4.762489884255964e+16,9490742222147652.0,2.3022271155428356e+16,3069194261462.5586,19465835802522.93,940197923997896.5,7832887602696116.0
2.578331719489608,6453922937698004.0,4.924380895537965e+16,9697585471020922.0,2.3524023103352828e+16,3336091128898.6426,21158607769377.137,1021916230564253.1,8521866513845403.0
2.7298983538794,6586922021635274.0,5.086231375574472e+16,9897428246141156.0,2.4008793587555744e+16,3613047523038.529,22915180936503.312,1106699548607183.5,9235942123345828.0
2.884496320956988,6715539237851712.0,5.248227354636892e+16,1.0090686881326058e+16,2.4477592535837264e+16,3900112812793.604,24735869098343.855,1194565299092065.8,9975253610350662.0
3.0421862473761276,6840020359093859.0,5.410539519673353e+16,1.0277730671763786e+16,2.493131577121842e+16,4197344099202.0786,26621035122592.043,1285533399974258.5,1.0739976615461362e+16
3.2030299723236504,6960584623321543.0,5.573325647657833e+16,1.0458889041782168e+16,2.537076239929629e+16,4504805478228.949,28571086271824.688,1379626028208409.8,1.1530318492219848e+16
3.3670905717701234,7077428631658756.0,5.736732600548957e+16,1.0634457401864816e+16,2.579664901601162e+16,4822567433151.202,30586470347717.77,1476867425300907.0,1.23465144928726e+16
3.5344323832055258,7190729556714467.0,5.900897975120049e+16,1.080470196943685e+16,2.6209621401759252e+16,5150706330278.88,32667672491038.74,1577283736579647.5,1.3188824707888918e+16
3.7051210308696363,7300647802367256.0,6.065951478404994e+16,1.096986376542641e+16,2.6610264216119456e+16,5489303998602.401,34815212514122.586,1680902877172885.5,1.4057531606451226e+16
3.879223451487029,7407329224419135.0,6.232016083028317e+16,1.113016195099319e+16,2.6999109091985884e+16,5838447378821.38,37029642673479.15,1787754419653018.8,1.4952938053179646e+16
4.0568079205167695,7510906997298107.0,6.399209004480881e+16,1.1285796632413912e+16,2.737664143956482e+16,6198228230654.503,39311545812075.21,1897869499645285.8,1.5875365701843964e+16
4.237944078927105,7611503193441393.0,6.567642533254139e+16,1.1436951234245008e+16,2.7743306203114516e+16,6568742889787.346,41661533816449.38,2011280736618279.0,1.6825153688415918e+16
4.422702960505647,7709230127765522.0,6.737424747815943e+16,1.1583794519507646e+16,2.8099512761442176e+16,6950092067590.756,44080246345095.03,2128022167701742.2,1.7802657563329662e+16
4.61115701971576,7804191508689183.0,6.908660129109735e+16,1.1726482319201004e+16,2.8445639123298804e+16,7342380688049.461,46568349792842.82,2248129192815179.2,1.8808248416612276e+16
4.803380160110075,7896483428738859.0,7.0814500931659736e+16,1.1865159020774688e+16,2.8782035538065028e+16,7745717757328.381,49126536462242.45,2371638529708188.5,1.9842312160153372e+16
4.9994477633122765,7986195221238898.0,7.255893455227582e+16,1.199995885538109e+16,2.9109027618323484e+16,8160216262176.794,51755523917844.54,2498588177755341.0,2.0905248939397012e+16
5.199436718578522,8073410204504453.0,7.432086836289346e+16,1.2131007016090822e+16,2.9426919052387684e+16,8585993093986.635,54456054503192.445,2629017389539092.5,2.1997472652774236e+16
5.403425452950093,8158206330965785.0,7.610125020972432e+16,1.2258420633259344e+16,2.9735993970312296e+16,9023168995815.695,57228895003469.85,2762966649405370.5,2.3119410561782216e+16
5.611493962009095,8240656755496187.0,7.790101274079462e+16,1.2382309628489596e+16,3.0036519015406548e+16,9471868530084.21,60074836439273.33,2900477658297298.5,2.427150297813563e+16
5.823723841249277,8320830334704731.0,7.97210762191182e+16,1.25027774648635e+16,3.0328745164119452e+16,9932220064978.559,62994693979040.27,3041593324271844.0,2.5454203017114628e+16
6.040198318074262,8398792066946923.0,8.156235103411597e+16,1.2619921808096678e+16,3.061290932984617e+16,10404355777866.098,65989306959380.85,3186357758188706.0,2.666797640830025e+16
6.261002284435747,8474603481187876.0,8.34257399536339e+16,1.2733835110839684e+16,3.088923578030571e+16,10888411674251.879,69059539003995.01,3334816274131958.0,2.7913301356490476e+16
6.486222330124463,8548322981538092.0,8.531214015216011e+16,1.2844605130373338e+16,3.1157937393348336e+16,11384527620992.916,72206278233037.22,3487015394183726.0,2.919066844686254e+16
6.715946776726952,8620006153205518.0,8.722244504530384e+16,1.2952315388328722e+16,3.1419216772128596e+16,11892847392637.521,75430437555746.44,3643002857215978.5,3.050058058947666e+16
6.950265712261491,8689706034723429.0,8.915754595603774e+16,1.3057045579733582e+16,3.167326723735586e+16,12413518729879.639,78732955039942.1,3802827631405137.5,3.1843552999049936e+16
7.18927102650672,8757473360584960.0,9.111833363441774e+16,1.3158871937591998e+16,3.1920273711679596e+16,12946693409221.967,82114794352641.3,3966539930206698.5,3.322011320659259e+16
7.433056447036854,8823356777812524.0,9.310569964935536e+16,1.3257867558299226e+16,3.216041350906934e+16,13492527323028.133,85576945266604.14,4134191231555719.5,3.463080110002896e+16
7.681717575977592,8887403039489385.0,9.51205376683873e+16,1.335410269243979e+16,3.2393857040223256e+16,14051180569219.168,89120424228087.14,4305834300082983.5,3.607616899135461e+16
7.935351927497144,8949657177860200.0,9.716374463918157e+16,1.3447645004886446e+16,3.262076844350733e+16,14622817549928.701,92746274981464.02,4481523212156091.0,3.755678170824007e+16
8.194058966047088,9010162659253928.0,9.923622188466662e+16,1.3538559807585494e+16,3.2841306149638556e+16,15207607078481.09,96455569246684.06,4661313383569919.0,3.907321670829359e+16
8.45794014536803,9068961522783962.0,1.013388761221005e+17,1.3626910267965952e+16,3.305562338723708e+16,15805722494095.678,100249407445790.6,4845261599722925.0,4.06260642144507e+16
8.72709894827539,9126094504528382.0,1.034726204150672e+17,1.3712757595531374e+16,3.326386863545477e+16,16417341783754.422,104128919474932.77,5033426048126263.0,4.221592737016769e+16
9.0016409272409,9181601148680012.0,1.056383750662575e+17,1.3796161208872728e+16,3.346618602910971e+16,17042647710698.871,108095265518490.48,5225866353101635.0,4.384342241326419e+16
9.281673745785717,9235519906975516.0,1.0783706845792722e+17,1.3877178885069298e+16,3.3662715721098536e+16,17681827949048.08,112149636902093.1,5422643612532128.0,4.550917886740058e+16
9.567307220701432,9287888227557802.0,1.1006963784609736e+17,1.3955866893212356e+16,3.3853594206294044e+16,18335075224051.754,116293256981453.88,5623820436536719.0,4.721383975029093e+16
9.85865336511546,9338742634294006.0,1.123370301138569e+17,1.4032280113587496e+16,3.403895461065438e+16,19002587457511.145,120527382064062.16,5829460987944754.0,4.895806179785469e+16
10.155826432417769,9388118797457156.0,1.1464020248851352e+17,1.4106472143880096e+16,3.4218926948853068e+16,19684567917917.402,124853302360880.6,6039631024450572.0,5.07425157035938e+16
10.458942961066125,9436051596581446.0,1.1698012322681742e+17,1.4178495393620926e+16,3.4393638353382876e+16,20381225374871.293,129272342965285.77,6254397942332223.0,5.256788637255989e+16
10.768121820287448,9482575176216488.0,1.1935777227202397e+17,1.4248401167961902e+16,3.4563213277776704e+16,21092774257362.938,133785864856583.05,6473830821621383.0,5.443487318933351e+16
11.083484256693197,9527722995233028.0,1.2177414188616741e+17,1.4316239741762226e+16,3.4727773676323948e+16,21819434815503.383,138395265925510.52,6698000472614772.0,5.634419029949238e+16
11.405153941827061,9571527870269214.0,1.2423023726057982e+17,1.4382060424870472e+16,3.4887439162430372e+16,22561433285315.28,143101982019243.94,6926979483620808.0,5.829656690408442e+16
11.733257020663602,9614022013852132.0,1.2672707710738302e+17,1.4445911619405374e+16,3.5042327147568492e+16,23319002056203.938,147907488003503.66,7160842269838405.0,6.029274756665901e+16
12.067922161076874,9655237067680682.0,1.2926569423442734e+17,1.4507840869766458e+16,3.5192552962592544e+16,24092379840745.2,152813298839458.03,7399665123267963.0,6.233349253243942e+16
12.409280604298411,9695204131514372.0,1.3184713610591963e+17,1.4567894906042088e+16,3.533822996303669e+16,24881811846442.992,157820970673226.3,7643526263557987.0,6.441957805924877e+16
12.75746621638438,9733953788075192.0,1.3447246539078534e+17,1.4626119681426558e+16,3.547946961988123e+16,25687549949124.78,162932101935873.94,7892505889693754.0,6.655179675982357e+16
13.112615540712067,9771516124336916.0,1.3714276050063042e+17,1.4682560404209498e+16,3.5616381597151708e+16,26509852867660.848,168148334451914.2,8146686232438075.0,6.8730957955174584e+16
13.474867851526309,9807920749547580.0,1.3985911611901589e+17,1.473726156485597e+16,3.5749073817609908e+16,27348986339712.008,173471354554436.97,8406151607437932.0,7.095788803867036e+16
13.844365208556836,9843196810304332.0,1.426226437236224e+17,1.4790266958658022e+16,3.587765251770168e+16,28205223298229.055,178902894205114.7,8670988468914878.0,7.323343085054006e+16
14.221252512727972,9877373002977450.0,1.4543447210275568e+17,1.4841619704402814e+16,3.6002222292842092e+16,29078844048448.484,184444732117461.8,8941285463861581.0,7.55584480625059e+16
14.605677562982532,9910477583758912.0,1.4829574786754288e+17,1.4891362259471472e+16,3.612288613404254e+16,29970136445150.965,190098694881866.0,9217133486671706.0,7.793381957227125e+16
14.997791114242183,9942538376592222.0,1.5120763596106566e+17,1.4939536431754536e+16,3.623974545681503e+16,30879396069971.387,195866658091052.06,9498625734135694.0,8.036044390760712e+16
15.397746936527026,9973582779222936.0,1.541713201655981e+17,1.4986183388743288e+16,3.6352900123226696e+16,31806926408573.77,201750547464786.94,9785857760740064.0,8.28392386397918e+16
15.805701875257567,1.0003637767593148e+16,1.571880036090319e+17,1.5031343664132964e+16,3.646244845791762e+16,32753039027528.086,207752339972800.66,1.0078927534214032e+16,8.537114080617395e+16
16.221815912762718,1.003272989878857e+16,1.602589092715099e+17,1.5075057162251026e+16,3.6568487258843416e+16,33718053750752.31,213874064955039.9,1.0377935491272764e+16,8.795710734164822e+16
16.64625223101797,1.0060885312732968e+16,1.6338528049321837e+17,1.5117363160603176e+16,3.667111180345219e+16,34702298835407.98,220117805238555.28,1.0682984593513438e+16,9.059811551884294e+16
17.079177275638333,1.0088129732811558e+16,1.6656838148423907e+17,1.5158300310810194e+16,3.677041585095674e+16,35706111147164.266,226485698250471.22,1.0994180383425812e+16,9.329516339683718e+16
17.5207608211511,1.0114488465593138e+16,1.6980949783729994e+17,1.5197906638190306e+16,3.686649164132226e+16,36729836334771.81,232979937126667.94,1.1311631040486716e+16,9.604927027824602e+16
17.97117603757412,1.0139986399808294e+16,1.7310993704422963e+17,1.523621954022398e+16,3.695942989154262e+16,37773829003915.016,239602771815967.94,1.163544743731388e+16,9.886147717452093e+16
18.430599558325603,1.0164648004730704e+16,1.764710290168627e+17,1.5273275784121638e+16,3.704931978974029e+16,38838452890336.14,246356510179789.06,1.1965743195861796e+16,1.017328472793382e+17
18.899211549492115,1.0188497328097118e+16,1.798941266131114e+17,1.5309111503698264e+16,3.713624898758521e+16,39924081032254.1,253243519087392.97,1.2302634743649292e+16,1.0466446644996197e+17
19.37719578048196,1.0211557993691742e+16,1.833806061688809e+17,1.5343762195743802e+16,3.72203035914905e+16,41031095942122.695,260266225507021.44,1.2646241370015336e+16,1.0765744369649034e+17
19.864739696091597,1.0233853198710568e+16,1.8693186803646634e+17,1.5377262716062748e+16,3.730156815300532e+16,42159889777801.734,267427117593375.03,1.2996685282406556e+16,1.1071291167890992e+17
20.36203449001343,1.025540571101146e+16,1.9054933713004355e+17,1.5409647275342224e+16,3.7380125658792216e+16,43310864513237.055,274728745772037.8,1.3354091662706946e+16,1.138320272119055e+17
20.869275179813698,1.0276237866346642e+16,1.9423446347883107e+17,1.5440949434993544e+16,3.745605752053936e+16,44484432108768.89,282173723821607.6,1.3718588723626692e+16,1.1701597177739458e+17
21.38666068340997,1.0296371565664966e+16,1.979887227884736e+17,1.547120210309862e+16,3.7529443565127944e+16,45681014681211.36,289764729954427.0,1.4090307765173688e+16,1.2026595204477266e+17
21.91439389707817,1.0315828272562588e+16,2.018136170111705e+17,1.550043753057937e+16,3.760036202533971e+16,46901044673865.695,297504507896944.3,1.4469383231237556e+16,1.2358320039888048e+17
22.452681775019734,1.0334629010952222e+16,2.0571067492505363e+17,1.5528687307695578e+16,3.766888953136161e+16,48144965026650.09,305395867970863.5,1.4855952766322008e+16,1.2696897547572456e+17
23.00173541052013,1.0352794363012802e+16,2.096814527232828e+17,1.5555982360964094e+16,3.773510110331259e+16,49413229346547.19,313441688176351.7,1.525015727246697e+16,1.3042456270600355e+17
23.561770118730532,1.0370344467473606e+16,2.1372753461332224e+17,1.5582352950580558e+16,3.779907014498861e+16,50706302078586.25,321644915278675.0,1.5652140966407438e+16,1.3395127486651478e+17
24.133005521105144,1.0387299018279058e+16,2.1785053342682445e+17,1.5607828668413064e+16,3.7860868438996296e+16,52024658677592.33,330008565899738.94,1.6062051437020668e+16,1.3755045263953802e+17
24.715665631527248,1.0403677263673286e+16,2.22052091240542e+17,1.5632438436626712e+16,3.792056614341555e+16,53368785780948.18,338535727616083.6,1.6480039703118304e+16,1.41223465180311e+17
25.309978944157795,1.0419498005736474e+16,2.2633388000866346e+17,1.5656210506986904e+16,3.797823179010983e+16,54739181382624.84,347229560064955.6,1.6906260271643918e+16,1.449717106927389e+17
25.91617852304095,1.0434779600398472e+16,2.3069760220695274e+17,1.5679172460879724e+16,3.803393228477482e+16,56136355008747.74,356093296060151.75,1.7340871196340178e+16,1.487966170134906e+17
26.53450209350177,1.0449539957948758e+16,2.351449914890581e+17,1.5701351210078252e+16,3.808773290879731e+16,57560827894972.04,365130242719357.8,1.7784034136953236e+16,1.5269964220466618e+17
27.165192135371807,1.0463796544056026e+16,2.3967781335534512e+17,1.5722772998274496e+16,3.813969732297105e+16,59013133165948.02,374343782604774.56,1.8235914419044744e+16,1.5668227515522816e+17
27.808495978079243,1.0477566381305132e+16,2.4429786583458778e+17,1.5743463403388862e+16,3.8189887573098296e+16,60493816017160.15,383737374878820.06,1.8696681094484316e+16,1.607460361914151e+17
28.464665897640828,1.0490866051254072e+16,2.490069801788482e+17,1.5763447340660832e+16,3.823836409748703e+16,62003433899427.71,393314556476735.6,1.9166507002696812e+16,1.6489247769637306e+17
29.133959215593645,1.0503711697008758e+16,2.538070215718611e+17,1.5782749066517766e+16,3.828518573633542e+16,63542556706355.766,403078943297923.9,1.964556883274129e+16,1.6912318473925357e+17
29.816638399905518,1.0516119026309178e+16,2.5869988985122838e+17,1.5801392183212196e+16,3.833040974298005e+16,65111766965023.25,413034231417848.9,2.013404718629826e+16,1.7343977571404582e+17
30.51297116790363,1.0528103315116604e+16,2.6368752024472378e+17,1.581939964421184e+16,3.837409179697068e+16,66711660030196.086,423184198322307.56,2.0632126641643584e+16,1.778439029884286e+17
31.223230591261704,1.0539679411687852e+16,2.6877188412100125e+17,1.5836793760321472e+16,3.841628601892014e+16,68342844282347.77,433532704165879.44,2.1139995818687284e+16,1.823372535629364e+17
31.947695203086937,1.055086174111953e+16,2.7395498975498934e+17,1.5853596206511138e+16,3.845704498706725e+16,70005941329766.734,444083693056319.9,2.165784744515542e+16,1.8692154974074995e+17
32.686649107148675,1.0561664310342502e+16,2.7923888310825693e+17,1.586982802942065e+16,3.849641975548086e+16,71701586215025.28,454841194366639.6,2.218587842399288e+16,1.9159854980843818e+17
33.44038208929165,1.0572100713544366e+16,2.8462564862462282e+17,1.588550965550736e+16,3.8534459873823736e+16,73430427626076.47,465809324076573.0,2.2724289902064384e+16,1.9637004872798045e+17
34.20918973107749,1.058218413799572e+16,2.9011741004128966e+17,1.5900660899800572e+16,3.857121340858834e+16,75193128112241.56,476992286145087.5,2.327328734022963e+16,2.0123787884041808e+17
34.993373525699035,1.0591927370254394e+16,2.957163312157686e+17,1.5915300975223954e+16,3.860672696571048e+16,76990364305340.66,488394373915550.9,2.383308058486795e+16,2.0620391058149075e+17
35.793240996213015,1.0601342802720488e+16,3.0142461696887046e+17,1.5929448502445108e+16,3.864104571446141e+16,78822827146211.7,500019971555111.7,2.4403883940925756e+16,2.1127005320961648e+17
36.60910581613728,1.0610442440514216e+16,3.07244513944038e+17,1.594312152020994e+16,3.867421341251636e+16,80691222116855.2,511873555529798.4,2.498591624655909e+16,2.1643825554659168e+17
37.44128793246003,1.0619237908647496e+16,3.131783114832836e+17,1.5956337496118682e+16,3.870627243209413e+16,82596269478433.16,523959696116792.8,2.557940094944111e+16,2.2171050673138688e+17
