t(s),Total solute volume 1,Total retention volume 1,Total 1 volume 1,Total 2 volume 1,Total 3 volume 1,Total 4 volume 1,Total 5 volume 1,Total 6 volume 1
0.1,1090211262672958.4,1436790320131653.8,152346489675587.4,194232567783107.2,0.0,0.0,0.0,0.0
0.202,1641785473467760.0,2163717108603132.5,229423657249124.9,292501303586185.0,5081888.20338772,12072411.249624109,240675986.03109387,6416469778.000442
0.30604000000000003,2062065601360584.2,2717614899787835.0,288153744596603.8,367378617705132.9,12893057.564861597,30628458.42118032,610622187.6964642,16281981808.963757
0.41216080000000005,2417594100984485.5,3186179352761478.5,337835417430466.7,430719749598729.6,22901128.097307418,54403421.67140675,1084618919.6717722,28922824324.840107
0.5204040160000001,2733342666548241.0,3602320373678499.0,381958228801635.9,486973668835629.06,34869774.43104395,82835890.07326676,1651472680.9323251,44040314652.432556
0.6308120963200001,3021758317631487.5,3982441733484016.0,422261529449615.25,538357942592637.56,48672278.19408094,115624833.64118968,2305181621.591581,61474331541.27904
0.7434283382464002,3290076684091092.0,4336079179639909.5,459756428742530.8,586161674253879.4,64236243.42460737,152598269.81610587,3042316825.0259767,81133401068.26828
0.8582969050113283,3542933461163097.0,4669342045139432.0,495090720302545.3,631210761563707.1,81520879.71539374,193659297.6358526,3860946320.004487,102965983588.59235
0.9754628431115548,3783505497735578.0,4986417074985354.0,528708338068722.25,674071193481179.8,100505809.52633023,238759508.571241,4760104949.276502,126946329613.94434
1.094972099973786,4014080432360214.5,5290319141818681.0,560928957426524.1,715150536813926.5,121184870.03762236,287884262.3164608,5739500803.475087,153066648082.99954
1.2168715419732616,4236369447380312.0,5583303419950133.0,591991699575663.6,754753656647981.4,143562389.11505795,341043840.0391286,6799338838.93005,181332401114.8715
1.3412089728127268,4451691742420435.0,5867108500003673.0,622080909918046.9,793115582235603.9,167650809.72174838,398267800.9764069,7940208362.728146,211759302620.95477
1.4680331522689813,4661089616209848.0,6143108053263314.0,651342239630752.9,830422010029569.0,193469104.18443885,459601215.3955627,9163007927.876436,244371314898.6239
1.597393815314361,4865403571028490.0,6412409810444343.0,679893140786737.2,866822684328197.4,221041678.02278087,525102060.55139554,10468893415.671028,279199263763.77014
1.729341691620648,5065323180144547.0,6675922598908437.0,707829974587779.8,902440459843009.1,250397591.4009133,594839371.1813711,11859241161.584967,316279854971.9067
1.863928525453061,5261422627602083.0,6934403179837427.0,735232977706446.6,937377633484762.1,281569994.5959205,668891898.4152547,13335621217.594164,355654961025.1694
2.001207095962122,5454186204095589.0,7188489848721333.0,762169825088209.8,971720486720958.0,314595712.36318606,747347122.4014224,14899777666.662937,397371096090.2109
2.1412312378813647,5644027018528852.0,7438727094931161.0,788698244711036.0,1005542619236378.5,349514934.78988194,830300517.9043552,16553613980.787302,441479025447.3246
2.284055862638992,5831301005270594.0,7685584061588752.0,814867974964008.6,1038907444472579.2,386370986.1702757,917855005.2493154,18299182074.35128,488033473506.81824
2.4297369798917723,6016317593873894.0,7929468606972254.0,840722255637548.5,1071870090550389.0,425210152.29065806,1010120540.0237482,20138674123.909218,537092905615.1944
2.578331719489608,6199347962702039.0,8170738181807868.0,866298981287870.2,1104478870739893.8,466081552.3020324,1107213808.7005808,22074416499.75403,588719366189.2537
2.7298983538794,6380631511914652.0,8409708359900768.0,891631605774261.6,1136776436690841.0,509037045.244231,1209258006.5787225,24108865338.66041,642978360625.1161
2.884496320956988,6560381002970998.0,8646659611404157.0,916749860455008.0,1168800694089085.8,554131163.9523268,1316382680.7724707,26244603413.519245,699938771798.8934
3.0421862473761276,6738786685042674.0,8881842740963690.0,941680330813700.5,1200585537820247.8,601421070.9447275,1428723625.4201465,28484338044.07522,759672804336.2605
3.2030299723236504,6916019641666915.0,9115483298240470.0,966446924121704.8,1232161448211157.5,650966532.225256,1546422819.4488566,30830899856.112206,822255951512.2042
3.3670905717701234,7092234530094047.0,9347785188084282.0,991071252235496.9,1263555979073315.2,702829905.8981571,1669628399.5285752,33287242242.212994,887766980863.3478
3.5344323832055258,7267571842509606.0,9578933650601242.0,1015572947580597.6,1294794160563329.0,757076143.206555,1798494662.539096,35856441410.92056,956287935494.1986
3.7051210308696363,7442159787092106.0,9809097740217034.0,1039969926011249.6,1325898834313106.8,813772800.1358244,1933182093.134848,38541696936.2788,1027904148729.5164
3.879223451487029,7616115864034888.0,1.0038432402744248e+16,1064278607044206.8,1356890934214665.8,872990058.1246382,2073857412.945673,41346332738.73007,1102704270271.8103
4.0568079205167695,7789548194748633.0,1.0267080227177364e+16,1088514099601971.9,1387789723231505.0,934800752.7331004,2220693648.6803417,44273798442.88043,1180780302410.487
4.237944078927105,7962556649793061.0,1.0495172932241696e+16,1112690359630345.2,1418612994351478.2,999280409.354472,2373870216.9626794,47327671068.8624,1262227645128.6638
4.422702960505647,8135233811490984.0,1.0722832635078534e+16,1136820324614431.2,1449377242086589.5,1066507285.2420056,2533573024.169744,50511657022.79502,1347145149187.3125
4.61115701971576,8307665799840212.0,1.0950172939777704e+16,1160916028991849.5,1480097809617834.2,1136562417.2681632,2699994579.8877654,53829594358.74263,1435635176450.6416
4.803380160110075,8479932984674570.0,1.1177299876005078e+16,1184988703670370.5,1510789015674188.8,1209529674.9495351,2873334122.877138,57285455290.06699,1527803666863.1655
4.9994477633122765,8652110602614780.0,1.1404312712158568e+16,1209048862240822.2,1541464264448858.2,1285495818.3636847,3053797758.6586103,60883348932.471,1623760211606.2217
5.199436718578522,8824269293888651.0,1.1631304662926116e+16,1233106375992522.8,1572136141239444.8,1364550560.6593716,3241598608.011479,64627524264.595276,1723618132056.8872
5.403425452950093,8996475571362086.0,1.1858363507509846e+16,1257170539455866.5,1602816496010729.8,1446786634.922985,3436956965.820157,68522373294.93265,1827494564249.572
5.611493962009095,9168792231942424.0,1.2085572131908158e+16,1281250127891906.8,1633516516690482.8,1532299865.2142913,3640100469.825475,72572434426.20961,1935510548604.2837
5.823723841249277,9341278718766738.0,1.2313009006342904e+16,1305353447904748.5,1664246793697140.0,1621189241.626386,3851264278.9356375,76782396010.36295,2047791124738.18
6.040198318074262,9513991441178296.0,1.2540748607059874e+16,1329488382155080.0,1695017376946930.0,1713556999.2595117,4070691260.835058,81157100088.8847,2164465431221.0562
6.261002284435747,9686984058347700.0,1.2768861790222644e+16,1353662428993564.0,1725837826383981.8,1809508701.0277092,4298632188.698255,85701546314.69562,2285666810172.3774
6.486222330124463,9860307731462636.0,1.299741612438701e+16,1377882737701867.0,1756717256910556.8,1909153324.2419815,4535345946.875199,90420896052.88602,2411532916628.74
6.715946776726952,1.003401134864184e+16,1.3226476187034302e+16,1402156139922241.5,1787664378457846.8,2012603350.934944,4781099745.465017,95320476658.65538,2542205832637.3984
6.950265712261491,1.020814172609726e+16,1.3456103829806518e+16,1426489177767973.0,1818687531825104.5,2119974861.9100702,5036169343.73749,100405785931.66035,2677832186054.69
7.18927102650672,1.038274378854387e+16,1.368635841639711e+16,1450888129033940.2,1849794720821568.2,2231387634.514494,5300839282.4004545,105682496746.71553,2818563274047.915
7.433056447036854,1.0557860731420634e+16,1.3917297036475374e+16,1475359029865385.2,1880993641167801.2,2346965244.1482153,5575403124.743171,111156461861.45746,2964555191316.8516
7.681717575977592,1.0733534167120808e+16,1.4148974698542028e+16,1499907695192217.2,1912291706548179.8,2466835169.534701,5860163706.715255,116833718902.15791,3115968963066.6226
7.935351927497144,1.0909804257124238e+16,1.4381444504209668e+16,1524539737193209.2,1943696072151622.8,2591128901.7888427,6155433396.026496,122720495529.38269,3272970682777.273
8.194058966047088,1.108670983166527e+16,1.4614757806061468e+16,1549260582018464.8,1975213655991723.8,2719982057.3279486,6461534360.376216,128823214785.66904,3435731654827.5845
8.45794014536803,1.1264288498352508e+16,1.4848964350954884e+16,1574075484967919.0,2006851158258451.0,2853534494.6802664,6778798844.941448,135148500627.79567,3604428542042.3022
8.72709894827539,1.1442576740969984e+16,1.5084112410390266e+16,1598989544297880.8,2038615078920629.8,2991930435.2537694,7107569459.273072,141703183646.61633,3779243518241.6733
9.0016409272409,1.1621610009532196e+16,1.5320248899358782e+16,1624007713805384.0,2070511733770234.2,3135318588.135229,7448199473.766223,148494306977.77756,3960364425881.9473
9.281673745785717,1.1801422802530498e+16,1.55574194849038e+16,1649134814321262.0,2102547269075361.2,3283852278.996651,7801053125.888189,155529132406.9723,4147984938884.192
9.567307220701432,1.1982048742190782e+16,1.5795668685478778e+16,1674375544226761.5,2134727674988278.8,3437689583.1926794,8166505936.362066,162815146673.67783,4342304730756.8237
9.85865336511546,1.2163520643466006e+16,1.6035039962052116e+16,1699734489094479.0,2167058797837062.0,3596993463.138601,8544945035.519642,170360067977.63907,4543529648125.414
10.155826432417769,1.2345870577396454e+16,1.6275575801796782e+16,1725216130542451.5,2199546351413982.8,3761931910.0646605,8936769500.050283,178171852692.6187,4751871889790.389
10.458942961066125,1.2529129929401564e+16,1.6517317795104622e+16,1750824854379805.5,2232195927360731.0,3932678090.2478237,9342390700.386581,186258702292.20612,4967550191440.384
10.768121820287448,1.2713329452997744e+16,1.6760306706579738e+16,1776564958113316.5,2265013004738862.0,4109410495.8277326,9762232658.980026,194629070492.74814,5190790016156.305
11.083484256693197,1.2898499319383626e+16,1.7004582540590984e+16,1802440657876494.2,2298002958863909.0,4292313100.318785,10196732419.732748,203291670618.6914,5421823750847.348
11.405153941827061,1.3084669163284278e+16,1.7250184601901018e+16,1828456094835839.2,2331171069473012.5,4481575518.935582,10646340428.863808,212255483195.89932,5660890908766.923
11.733257020663602,1.3271868125402434e+16,1.7497151551829598e+16,1854615341123013.2,2364522528288044.5,4677393173.853927,11111520927.500425,221529763778.72476,5908238338263.089
12.067922161076874,1.346012489178843e+16,1.7745521460363366e+16,1880922405336395.5,2398062446029797.0,4879967464.534807,11592752356.296385,231124051016.8731,6164120437924.353
12.409280604298411,1.3649467730406822e+16,1.7995331854577364e+16,1907381237650906.5,2431795858932679.5,5089505943.243522,12090527772.392445,241048174968.32217,6428799378287.679
12.75746621638438,1.3839924525148864e+16,1.8246619763698004e+16,1933995734570953.2,2465727734804429.5,5306222495.901465,12605355279.044588,251312265664.8048,6702545330282.6455
13.112615540712067,1.4031522807514928e+16,1.8499421761101772e+16,1960769743357699.5,2499862978670638.0,5530337528.412743,13137758468.25833,261926761936.5877,6985636700590.915
13.474867851526309,1.4224289786167298e+16,1.8753774003515684e+16,1987707066158824.2,2534206438039905.0,5762078158.612911,13688276876.778673,272902420503.5294,7278360374107.732
13.844365208556836,1.4418252374535218e+16,1.900971226765707e+16,2014811463866017.2,2568762907821970.5,6001678413.992322,14257466455.798513,284250325339.6338,7581011963697.374
14.221252512727972,1.4613437216634514e+16,1.9267271984529644e+16,2042086659723089.0,2603537134927771.5,6249379435.351412,14845900054.758383,295981897318.5482,7893896067441.552
14.605677562982532,1.4809870711250908e+16,1.9526488271569384e+16,2069536342705266.5,2638533822577883.5,6505429686.5504675,15454167919.62457,308108904147.71075,8217326533586.49
14.997791114242183,1.5007579034618602e+16,1.9787395962817372e+16,2097164170688379.8,2673757634343029.0,6770085170.521658,16082878206.04362,320643470599.0944,8551626733399.778
15.397746936527026,1.5206588161716858e+16,2.0050029637278244e+16,2124973773424811.8,2709213197938246.0,7043609651.716349,16732657507.784227,333598089044.73236,8897129842156.393
15.805701875257567,1.5406923886293152e+16,2.0314423645610036e+16,2152968755341569.5,2744905108790225.0,7326274885.166031,17404151400.8907,346985630305.4805,9254179128478.508
16.221815912762718,1.560861183971381e+16,2.0580612135276924e+16,2181152698174443.5,2780837933395739.0,7618360852.340663,18098025003.983948,360819354821.71564,9623128252261.715
16.64625223101797,1.5811677508731506e+16,2.0848629074284624e+16,2209529163450879.8,2817016212487133.0,7920156003.993682,18814963555.159832,375112924154.945,10004341571426.328
17.079177275638333,1.6016146252253756e+16,2.1118508273607844e+16,2238101694833183.8,2853444464019805.5,8231957510.188624,19555673005.948776,389880412829.5396,10398194457740.541
17.5207608211511,1.6222043317187114e+16,2.1390283408409384e+16,2266873820332631.5,2890127185995002.5,8554071517.708162,20320880632.81175,405136320524.11505,10805073621968.291
17.97117603757412,1.642939385342618e+16,2.1663988038142788e+16,2295849054403990.0,2927068859130266.5,8886813415.051735,21111335666.66467,420895584622.339,11225377448603.129
18.430599558325603,1.6638222928050524e+16,2.1939655625620384e+16,2325030899929437.5,2964273949388765.5,9230508105.234531,21927809940.934853,437173593133.2001,11659516340456.537
18.899211549492115,1.684855553878726e+16,2.22173195551251e+16,2354422850099824.0,3001746910377833.5,9585490286.606329,22771098558.66998,453986197991.1324,12107913073375.771
19.37719578048196,1.7060416626792306e+16,2.249701314963446e+16,2384028390200713.0,3039492185626016.0,9952104741.914665,23642020579.231594,471349728746.60596,12571003161377.012
19.864739696091597,1.7273831088798836e+16,2.2778769687221828e+16,2413850999310017.5,3077514210747501.5,10330706635.843922,24541419725.124187,489281006658.1396,13049235232483.393
20.36203449001343,1.7488823788677498e+16,2.3062622416694316e+16,2443894151913425.0,3115817415501671.5,10721661821.267275,25470165109.522488,507797359196.99786,13543071415570.293
20.869275179813698,1.7705419568449712e+16,2.3348604572520988e+16,2474161319443432.5,3154406225755227.5,11125347154.456556,26429151985.07862,526916634976.1186,14052987738524.643
21.38666068340997,1.7923643258791526e+16,2.3636749389102704e+16,2504655971747092.5,3193285065353582.0,11542150819.500008,27419302514.60406,546657219115.1786,14579474538035.967
21.91439389707817,1.814351968906319e+16,2.3927090114428196e+16,2535381578487611.0,3232458357907739.5,11972472662.186665,28441566564.24015,567038049053.9956,15123036881345.164
22.452681775019734,1.836507369689655e+16,2.421966002316111e+16,2566341610484054.0,3271930528502342.0,12416724533.621912,29496922519.745163,588078630826.8253,15684195000285.11
23.00173541052013,1.858833013736942e+16,2.4514492429195616e+16,2597539540993425.0,3311706005330253.5,12875330643.846468,30586378126.54684,609799055810.4407,16263484737957.338
23.561770118730532,1.8813313891795476e+16,2.4811620697718524e+16,2628978846938904.0,3351789221258498.5,13348727925.738487,31710971354.22187,632220017959.2373,16861458008397.678
24.133005521105144,1.9040049876153988e+16,2.511107825681082e+16,2660663010087844.0,3392184615330149.0,13837366409.485788,32871771286.086617,655362831540.9683,17478683269593.852
24.715665631527248,1.926856304918321e+16,2.5412898608620564e+16,2692595518182801.5,3432896634206264.5,14341709607.92325,34069879034.598732,679249449387.0637,18115746010226.973
25.309978944157795,1.949887842015984e+16,2.5717115340136004e+16,2724779866028538.0,3473929733551814.0,14862234913.03816,35306428683.28884,703902481671.8954,18773249250519.996
25.91617852304095,1.973102105638352e+16,2.602376213358581e+16,2757219556538001.5,3515288379369205.5,15399434003.953945,36582588255.961136,729345215235.6781,19451814057584.996
26.53450209350177,1.9965016090386616e+16,2.6332872776492176e+16,2789918101739748.5,3556977049282708.5,15953813266.712292,37899560713.920525,755601633466.1565,20152080075672.715
27.165192135371807,2.0200888726885308e+16,2.6644481171399324e+16,2822879023749360.5,3599000233776908.5,16525894226.18021,39258584982.00532,782696436754.5564,20874706071738.105
27.808495978079243,2.043866424948916e+16,2.6958621345299456e+16,2856105855706981.5,3641362437392088.5,17116213990.418858,40660937004.223145,810655063541.7656,21620370496745.55
28.464665897640828,2.0678368027183804e+16,2.7275327458777924e+16,2889602142683265.0,3684068179879169.0,17725325707.85902,42107930829.80936,839503711971.025,22389772063150.234
29.133959215593645,2.092002552060112e+16,2.759463381489344e+16,2923371442555501.0,3727121997316785.5,18353799037.637054,43600919730.55133,869269362163.9384,23183630339002.125
29.816638399905518,2.1163662288089492e+16,2.7916574867814428e+16,2957417326855923.0,3770528443192790.0,19002220633.4546,45141297350.23802,899979799136.997,24002686359130.1
30.51297116790363,2.140930399159624e+16,2.8241185231226164e+16,2991743381593767.5,3814292089452330.0,19671194641.334743,46730498887.121864,931663636376.2532,24847703253878.367
31.223230591261704,2.1656976402375064e+16,2.856849968652385e+16,3026353208052723.5,3858417527514594.5,20361343211.65662,48370002310.301735,964350340088.2252,25719466895874.902
31.947695203086937,2.190670540652697e+16,2.889855319080836e+16,3061250423565308.0,3902909369259979.5,21073307025.860886,50061329610.95561,998070254145.6298,26618786565327.977
32.686649107148675,2.2158517010385984e+16,2.9231380884695216e+16,3096438662265431.5,3947772247989749.5,21807745838.227077,51806048089.380005,1032854625746.971,27546495634357.094
33.44038208929165,2.241243734575875e+16,2.956701809995209e+16,3131921575820588.0,3993010819359339.5,22565339033.136204,53605771678.815674,1068735631809.4592,28503452270877.16
34.20918973107749,2.2668492675026144e+16,2.9905500366975452e+16,3167702834144767.0,4038629762287396.0,23346786198.240623,55462162307.05991,1105746406115.335,29490540162569.55
34.993373525699035,2.2926709396115196e+16,3.0246863422117684e+16,3203786126093224.5,4084633779841563.5,24152807713.974,57376931296.89979,1143921067232.0571,30508669261484.184
35.793240996213015,2.3187114047349504e+16,3.0591143214875532e+16,3240175160140277.5,4131027600102535.0,24984145359.846127,59351840806.41674,1183294747227.3936,31558776549832.516
36.60910581613728,2.344973331218381e+16,3.0938375914949416e+16,3276873665040912.5,4177815977007687.0,25841562937.976757,61388705310.24547,1223903621200.948,32641826827543.37
37.44128793246003,2.371459402383029e+16,3.1288597919182656e+16,3313885390477266.5,4225003691175227.5,26725846914.33545,63489393122.8933,1265784937654.2085,33758813522167.242
38.29011369110923,2.3981723169782148e+16,3.1641845858389564e+16,3351214107690773.5,4272595550710155.5,27637807078.164295,65655827965.255806,1308977049721.6814,34910759521730.13
39.15591596493141,2.4251147896239956e+16,3.19981566040797e+16,3388863610100679.0,4320596391992851.0,28578277220.072746,67889990575.490105,1353519447286.3174,36098718031149.59
40.03903428423004,2.4522895512445956e+16,3.2357567275085988e+16,3426837713909721.0,4369011080451267.0,29548115829.305325,70193920365.4329,1399452790002.8413,37323773452842.57
40.93981496991464,2.479699349493064e+16,3.2720115244103028e+16,3465140258697556.0,4417844511317502.0,30548206810.694946,72569717123.78525,1446818941253.3264,38587042292166.32
41.85861126931294,2.5073469491675196e+16,3.3085838144141484e+16,3503775108002438.5,4467101610369374.5,31579460221.825233,75019542767.30394,1495661003059.763,39889674088349.375
42.7957834946992,2.535235132619382e+16,3.3454773874902932e+16,3542746149891616.0,4516787334657778.0,32642813030.93989,77545623141.28055,1546023351979.038,41232852371585.086
43.751699164593184,2.5633667001537708e+16,3.3826960609081324e+16,3582057297520945.0,4566906673219944.0,33739229896.144726,80150249870.6023,1597951676006.1995,42617795646970.36
