t(s),Total solute volume 1,Total retention volume 1,Total 1 volume 1,Total 2 volume 1,Total 3 volume 1,Total 4 volume 1,Total 5 volume 1,Total 6 volume 1
0.1,1038034012882719.0,1307672365282961.0,121693262551923.95,147945089848319.12,0.0,0.0,0.0,0.0
0.202,1563277076731232.8,1969803514241384.8,183269802469597.4,222805002864986.38,442201481.93653476,976367004.0988687,17443920122.265987,432769686958.81744
0.30604000000000003,1963265259988202.8,2474386278638692.0,230162165036929.22,279813047256862.84,1121778697.7001665,2476853399.5962324,44252319281.48575,1097955405317.7461
0.41216080000000005,2301478616197506.5,2901342733761820.0,269812394655324.78,328016676178884.06,1992298530.7732093,4398935897.605586,78593256998.1173,1950062238682.6865
0.5204040160000001,2601720315426367.0,3280638033559056.0,305011040993654.6,370808420428006.4,3033114838.4249444,6697028450.278507,119652239067.8775,2968874328670.57
0.6308120963200001,2875853164256377.0,3627205107509681.5,337148832710521.2,409879018489561.6,4233124446.019729,9346615638.950666,166991249477.32248,4143521063665.918
0.7434283382464002,3130772621412585.5,3949724056092919.0,367034154565048.8,446211240946024.8,5585951975.607135,12333620892.092981,220358783680.6011,5467760812717.798
0.8582969050113283,3370896047209969.5,4253755982415995.0,395184873010000.56,480434669080284.94,7087971078.713213,15650037420.743584,279611785369.9132,6938043321867.28
0.9754628431115548,3599250294282997.5,4543112097744980.0,421955839206264.4,512980703010057.25,8737329300.609137,19291775146.40434,344677177434.39996,8552554963786.187
1.094972099973786,3818014620741722.0,4820537109191591.0,447602537104768.44,544159940018156.9,10533407920.148693,23257468043.17055,415530552818.1936,10310689898160.588
1.2168715419732616,4028818770976621.0,5088084397876003.0,472316028761837.3,574204658317294.0,12476497263.161125,27547757239.450024,492183365792.2037,12212732199961.41
1.3412089728127268,4232918795758244.5,5347337298089796.0,496243566497791.25,603293875690597.6,14567589452.979597,32164833417.547817,574674756087.0579,14259652964212.752
1.4680331522689813,4431306737338708.0,5599547132596999.0,519501451760698.06,631568982286315.2,16808239947.018885,37112131090.87712,663066086606.579,16452974753637.096
1.597393815314361,4624782213130472.0,5845723292890414.0,542183427193839.0,659143943033064.4,19200471703.731884,42394117007.826,757437162887.7982,18794677781437.684
1.729341691620648,4814000899398165.0,6086694247290227.0,564366360590762.9,686112207745106.2,21746707002.72171,48016139612.99674,857883543461.8546,21287133166119.0
1.863928525453061,4999508406095970.0,6323150164441895.0,586114216190496.6,712551539110552.5,24449717892.478607,53984319637.71324,964514585062.9915,23933054422276.574
2.001207095962122,5181764578598012.0,6555673490243350.0,607480903675587.9,738527476278983.9,27312589592.229706,60305469292.8459,1077451998868.7544,26735461633021.27
2.1412312378813647,5361161332969070.0,6784761388052608.0,628512369078823.5,764095876821308.5,30338693152.555035,66987031904.73892,1196828771992.1707,29697654686353.67
2.284055862638992,5538036007216281.0,7010842537037414.0,649248160008805.9,789304819607833.8,33531664893.847588,74037036516.43965,1322788356355.2615,32823193146731.797
2.4297369798917723,5712681531196801.0,7234289927977123.0,669722617912675.5,814196054267463.2,36895390912.92707,81464063679.28233,1455484057497.643,36115881088099.04
2.578331719489608,5885354293429774.0,7455430761665738.0,689965800336844.1,838806122399719.4,40433995452.47821,89277219773.50058,1595078575771.035,39579755708404.01
2.7298983538794,6056280310490250.0,7674554212038560.0,710004204191998.2,863167236863417.0,44151832266.42429,97486117943.80037,1741743665721.4329,43219078876966.45
2.884496320956988,6225660125196937.0,7891917590298273.0,729861339989071.5,887307979887567.9,48053478346.65817,106100864248.76978,1895659888625.447,47038330993467.39
3.0421862473761276,6393672738984815.0,8107751294277081.0,749558192848443.4,911253863530087.5,52143729539.2861,115132047982.30663,2057016439566.9045,51042206696654.58
3.2030299723236504,6560478800873529.0,8322262822856123.0,769113596356659.9,935027784183372.1,56427597694.61121,124590735381.52556,2226011035018.7324,55235612074479.55
3.3670905717701234,6726223217416865.0,8535640062249826.0,788544538542203.8,958650394555566.9,60910309079.24335,134488466121.44115,2402849850215.344,59623663109775.56
3.5344323832055258,6891037306772899.0,8748053999067635.0,807866414406553.4,982140410677944.9,65597303840.65791,144837252133.45837,2587747498043.867,64211685156214.83
3.7051210308696363,7055040590276469.0,8959660977624345.0,827093235958047.9,1005514867247558.9,70494236360.7255,155649578386.721,2780927043005.1973,69005213284508.84
3.879223451487029,7218342293131104.0,9170604591587902.0,846237808144570.9,1028789331512358.1,75606976369.62215,166938405348.3995,2982620045172.132,74009993372975.02
4.0568079205167695,7381042609718600.0,9381017279774886.0,865311877191305.2,1051978083608540.2,80941610718.18794,178717172897.84915,3193066630123.5835,79231983842683.36
4.237944078927105,7543233776946634.0,9591021680709742.0,884326256433979.8,1075094269538724.8,86504445727.37633,190999805515.02,3412515581645.2573,84677357957538.45
4.422702960505647,7705000989909723.0,9800731789060034.0,903290933665795.1,1098150031675892.6,92302010049.4831,203800718598.8916,3641224454620.4453,90352506625365.52
4.61115701971576,7866423187143616.0,1.001025394825929e+16,922215163196223.1,1121156620681229.2,98341057988.45723,217134825799.6114,3879459706032.244,96264041648415.81
4.803380160110075,8027573727352844.0,1.0219687706838258e+16,941107545186747.1,1144124491954275.0,104628573236.62378,231017547270.09348,4127496842393.661,102418799381512.92
4.9994477633122765,8188520975287841.0,1.0429126560696198e+16,959976094335790.0,1167063389134658.2,111171772993.14944,245464818760.55658,4385620582238.2544,108823844763911.9
5.199436718578522,8349328811147165.0,1.0638658599393368e+16,978828299598162.0,1189982416704288.8,117978112436.04257,260493101493.7089,4654125032558.482,115486475697254.2
5.403425452950093,8510057075271005.0,1.084836707126416e+16,997671176318414.1,1212890103367010.2,125055289524.72658,276119392769.8852,4933313878285.9375,122414227747141.2
5.611493962009095,8670761957812782.0,1.1058330879534336e+16,1016511311913775.1,1235794457586290.5,132411250114.5017,292361237260.8826,5223500584076.493,129614879150035.66
5.823723841249277,8831496341410270.0,1.1268625019532174e+16,1035354906046941.2,1258703016424153.0,140054193367.73685,309236738959.0435,5525008607802.577,137096456110659.02
6.040198318074262,8992310103530804.0,1.1479320965389286e+16,1054207806071353.1,1281622888632770.2,147992577449.55878,326764573754.55176,5838171625269.617,144867238377898.9
6.261002284435747,9153250384075488.0,1.1690487013257176e+16,1073075538403609.4,1304560792794538.5,156235125498.21982,344964002619.294,6163333765770.137,152935765089635.1
6.486222330124463,9314361822935186.0,1.1902188586942218e+16,1091963336373170.8,1327523091179587.5,164790831862.3804,363854885380.1277,6500849858168.401,161310840878859.34
6.715946776726952,9475686771460010.0,1.2114488510945378e+16,1110876165013878.9,1350515819885345.8,173668968599.2332,383457695068.16565,6851085687276.8545,170001542235172.38
6.950265712261491,9637265481201760.0,1.2327447255132224e+16,1129818743191027.8,1373544715736898.2,182879092228.87067,403793532833.91046,7214418260342.637,179017224117134.38
7.18927102650672,9799136272787590.0,1.2541123154632274e+16,1148795563399197.8,1396615240355624.8,192431050741.51514,424884143420.7922,7591236083510.941,188367526812177.16
7.433056447036854,9961335687369324.0,1.2755572608043022e+16,1167810909517282.2,1419732601744378.5,202334990855.29233,446751931191.9962,7981939448173.958,198062383041803.56
7.681717575977592,1.0123898622742256e+16,1.2970850256576406e+16,1186868872766321.5,1442901773687747.5,212601365523.14676,469419976707.47,8386940727149.958,208112025310697.25
7.935351927497144,1.0286858455937992e+16,1.3187009146419438e+16,1205973366081581.0,1466127513224506.0,223240941688.2685,492912053849.74225,8806664680668.074,218526993499138.6
8.194058966047088,1.0450247153847738e+16,1.3404100876269978e+16,1225128137081396.8,1489414376414123.8,234264808288.09232,517252647498.69037,9241548772160.842,229318142698778.75
8.45794014536803,1.0614095373224856e+16,1.3622175731747922e+16,1244336779790927.5,1512766732589572.8,245684384507.52097,542466971756.6862,9692043493890.633,240496651292414.9
8.72709894827539,1.0778432551239058e+16,1.3841282808159148e+16,1263602745258214.5,1536188777263494.2,257511428282.54108,568580988726.7211,10158612702456.354,252074029278915.3
9.0016409272409,1.0943286900849164e+16,1.4061470126231422e+16,1282929341018297.2,1559684531500369.2,269758042988.81552,595621424432.211,10641734436162.973,264062238960007.1
9.281673745785717,1.1108685832783212e+16,1.4282784725011244e+16,1302319780537360.0,1583257901931997.8,282436694663.4942,623615802274.8992,11141899393280.438,276473257868452.97
9.567307220701432,1.1274655501519866e+16,1.450527276741937e+16,1321777130025876.0,1606912616239674.2,295560209030.9197,652592443286.7622,11659614097885.889,289319752883727.7
9.85865336511546,1.1441221215651138e+16,1.4728979624091952e+16,1341304356520682.8,1630652281513302.2,309141789140.76105,682580500558.5028,12195399419184.15,302614648697933.56
10.155826432417769,1.160840740682873e+16,1.4953949954336016e+16,1360904324251065.0,1654480379857466.5,323195023138.09467,713609977522.2339,12749791419222.805,316371246978868.56
10.458942961066125,1.177623768114478e+16,1.5180227781138448e+16,1380579800662366.5,1678400275714448.5,337733894316.1508,745711750150.8433,13323341749532.46,330603236222830.8
10.768121820287448,1.1944734866064582e+16,1.540785656083514e+16,1400333461918086.5,1702415222553239.2,352772791438.1002,778917589751.5859,13916618058377.875,345324701859670.6
11.083484256693197,1.2113921053322648e+16,1.5636879247973976e+16,1420167897928808.0,1726528368983341.0,368326519331.4006,813260186361.597,14530204408764.012,360550136624694.5
11.405153941827061,1.2283817638155716e+16,1.5867338355844746e+16,1440085616951622.2,1750742764346353.0,384410309758.5627,848773172753.9426,15164701707350.676,376294451201219.1
11.733257020663602,1.2454445355203064e+16,1.6099276013098442e+16,1460089049798906.0,1775061363832683.2,401039832568.387,885491149063.1168,15820728144434.46,392572985137733.44
12.067922161076874,1.2625824311371314e+16,1.6332734016832154e+16,1480180553691182.5,1799487033165572.2,418231207131.83954,923449708039.202,16498919645164.09,409401518043766.1
12.409280604298411,1.2797974015927086e+16,1.6567753882478e+16,1500362415785030.8,1824022552890018.0,436001014066.9155,962685460940.3087,17199930332159.033,426796281068689.1
12.75746621638438,1.2970913408054986e+16,1.6804376890798168e+16,1520636856403829.8,1848670622300472.2,454366307256.90576,1003236064073.0591,17924432999707.51,444773968667820.25
13.112615540712067,1.3144660882092996e+16,1.7042644132258832e+16,1541006031996196.2,1873433863037497.5,473344626166.6347,1045140245991.1965,18673119599723.438,463351750660274.9
13.474867851526309,1.331923431063641e+16,1.728259654902824e+16,1561472037844591.5,1898314822380633.2,492954008461.32477,1088437835362.6069,19446701739646.066,482547284583122.44
13.844365208556836,1.3494651065682318e+16,1.7524274974819902e+16,1582036910544138.5,1923315976261993.5,513213002932.80444,1133169789515.2278,20245911192468.918,502378728346493.5
14.221252512727972,1.3670928037969338e+16,1.7767720172781818e+16,1602702630269942.0,1948439732022657.2,534140682737.9029,1179378223672.4602,21071500419089.523,522864753194359.8
14.605677562982532,1.3848081654653082e+16,1.8012972871612972e+16,1623471122849236.5,1973688430931857.2,555756658953.8937,1227106440888.9263,21924243103171.324,544024556975766.06
14.997791114242183,1.4026127895443792e+16,1.8260073800071316e+16,1644344261653304.8,1999064350486984.8,578081094455.9467,1276398962697.4666,22804934698714.21,565877877731347.8
15.397746936527026,1.4205082307321274e+16,1.850906372002384e+16,1665323869322510.0,2024569706510815.0,601134718121.5721,1327301560478.4219,23714392990530.37,588445007600052.9
15.805701875257567,1.438496001793097e+16,1.875998345817431e+16,1686411719336845.5,2050206655060758.2,624938839367.1008,1379861287562.3462,24653458667824.535,611746807050970.1
16.221815912762718,1.4565775747756246e+16,1.901287393659437e+16,1707609537442908.5,2075977294163772.0,649515363021.2388,1434126512077.3315,25622995911078.63,635804719445262.2
16.64625223101797,1.474754382115333e+16,1.9267776202170564e+16,1728919002947579.0,2101883665389014.2,674886804540.8591,1490146950552.2378,26623892992442.426,660640785933147.9
17.079177275638333,1.4930278176326896e+16,1.9524731455072788e+16,1750341749887505.0,2127927755269704.0,701076305574.0541,1547973702287.0815,27657062889831.734,686277660690997.5
17.5207608211511,1.5113992374319094e+16,1.9783781076339044e+16,1771879368082920.8,2154111496584195.2,728107649875.6289,1607659284501.9631,28723443914937.094,712738626503518.8
17.97117603757412,1.5298699607076876e+16,2.0044966654665372e+16,1793533404083424.8,2180436769505808.5,756005279580.1447,1669257668275.8103,29824000355343.965,740047610696050.1
18.430599558325603,1.5484412704658462e+16,2.0308330012481244e+16,1815305362012805.2,2206905402629914.8,784794311837.5984,1732824315286.249,30959723130968.137,768229201422004.5
18.899211549492115,1.5671144141633692e+16,2.0573913231385896e+16,1837196704319413.5,2233519173886171.5,814500555816.8755,1798416215361.9207,32131630465006.555,797308664310417.1
19.37719578048196,1.5858906042729712e+16,2.0841758677013948e+16,1859208852437991.8,2260279811343109.5,845150530082.022,1866091924858.389,33340768569605.027,827311959478598.6
19.864739696091597,1.6047710187767882e+16,2.111190902339569e+16,1881343187368484.2,2287188993911820.0,876771480346.3842,1935911605868.8708,34588212346441.04,858265758914829.0
20.36203449001343,1.6237568015935858e+16,2.138440727686985e+16,1903601050176864.8,2314248351954810.5,909391397609.6376,2007937066280.8276,35875066102420.71,890197464235980.0
20.869275179813698,1.642849062943416e+16,2.1659296799605484e+16,1925983742422612.2,2341459467805703.0,943039036682.6184,2082231800689.3262,37202464280684.93,923135224824943.9
21.38666068340997,1.6620488796534238e+16,2.193662133278366e+16,1948492526517253.5,2368823876205137.5,977743935104.8945,2158861032178.1208,38571572207118.11,957107956352643.2
21.91439389707817,1.6813572954082354e+16,2.2216425019487252e+16,1971128626017895.8,2396343064657593.0,1013536432459.8834,2237891754979.019,39983586852551.44,992145359689369.1
22.452681775019734,1.7007753209480912e+16,2.2498752427343256e+16,1993893225859500.0,2424018473713778.5,1050447690092.2781,2319392778020.0957,41439737610847.586,1028277940210100.9
23.00173541052013,1.7203039342176862e+16,2.278364857096102e+16,2016787472529370.5,2451851497182782.5,1088509711232.4446,2403434769373.184,42941287093052.5,1065537027498371.9
23.561770118730532,1.739944080468481e+16,2.3071158934203984e+16,2039812474187115.2,2479843482277887.5,1127755361532.3782,2490090301610.581,44489531937794.83,1103954795453211.6
24.133005521105144,1.759696672317074e+16,2.3361329492333264e+16,2062969300733058.0,2507995729699762.0,1168218390017.6677,2579433898081.0938,46085803638109.6,1143564282803447.5
24.715665631527248,1.7795625897620494e+16,2.365420673405819e+16,2086258983828007.2,2536309493660464.0,1209933450459.8801,2671542080114.9106,47731469384860.336,1184399414033753.8
25.309978944157795,1.7995426801615722e+16,2.3949837683525956e+16,2109682516866981.5,2564785981851518.5,1252936123173.525,2766493415166.7666,49427932926924.96,1226495020726505.5
25.91617852304095,1.8196377581738904e+16,2.4248269922282424e+16,2133240854909444.2,2593426355359136.5,1297262937241.7764,2864368565906.494,51176635448310.16,1269886863323507.2
26.53450209350177,1.839848605662783e+16,2.4549551611232868e+16,2156934914568485.5,2622231728529407.5,1342951393174.869,2965250340265.707,52979056462349.17,1314611653311418.5
27.165192135371807,1.8601759715698184e+16,2.4853731512631824e+16,2180765573861056.2,2651203168786283.0,1390039986004.997,3069223742449.1113,54836714723136.4,1360707075834676.8
27.808495978079243,1.88062057175538e+16,2.5160859012127836e+16,2204733672021563.8,2680341696404974.5,1438568228821.3665,3176376024918.486,56751169154340.4,1408211812739385.2
28.464665897640828,1.901183088810014e+16,2.5470984140889176e+16,2228840009280738.8,2709648284243075.0,1488576676748.834,3286796741357.0396,58724019795534.71,1457165566051618.0
29.133959215593645,1.9218641718379416e+16,2.5784157597834772e+16,2253085346611858.5,2739123857432053.0,1540106951373.4536,3400577800621.4824,60756908766176.39,1507609081893296.0
29.816638399905518,1.9426644362142572e+16,2.6100430771993144e+16,2277470405446037.5,2768769293031138.0,1593201765618.038,3517813521688.576,62851521247353.78,1559584174838720.2
30.51297116790363,1.9635844633173468e+16,2.641985576501253e+16,2301995867358574.5,2798585419645996.0,1647904949070.55,3638600689602.7246,65009586481420.16,1613133752714399.2
31.223230591261704,1.9846248002380068e+16,2.6742485413842916e+16,2326662373727928.5,2828573017014129.0,1704261473768.0244,3763038612430.306,67232878789615.984,1668301841844934.0
31.947695203086937,2.0057859594667548e+16,2.7068373313610532e+16,2351470525369149.5,2858732815559244.5,1762317480438.4736,3891229179226.3945,69523218607778.18,1725133612747142.8
32.686649107148675,2.0270684461903588e+16,2.7397573832348736e+16,2376420914528930.5,2889065535267374.5,1822120329801.3145,4023276969510.2183,71882472669691.47,1783675050679859.0
33.44038208929165,2.048472647488554e+16,2.7730142159895936e+16,2401513995009442.0,2919571727877409.0,1883718531965.6995,4159289112596.683,74312558541107.64,1843974395937846.5
34.20918973107749,2.069998997580343e+16,2.806613430523893e+16,2426750275858775.0,2950252012229063.0,1947161919818.2249,4299375647812.994,76815440548777.6,1906080063231240.0
34.993373525699035,2.0916478670347144e+16,2.8405607129409956e+16,2452130191511166.5,2981106916473355.5,2012501580498.5989,4443649388236.927,79393134308499.73,1970042065801038.8
35.793240996213015,2.113419589977236e+16,2.8748618369568296e+16,2477654133676629.0,3012136916820537.0,2079789907983.782,4592226033103.282,82047707003204.08,2035911696354510.5
36.60910581613728,2.1353144636744056e+16,2.909522666340739e+16,2503322450853682.5,3043342436947729.0,2149080632114.2131,4745224231925.97,84781278528634.3,2103741555469249.8
37.44128793246003,2.1573327481046044e+16,2.9445491573883212e+16,2529135447826346.5,3074723847387403.5,2220428848086.738,4902765649652.385,87596022657472.8,2173585580468216.8
38.29011369110923,2.1794746655175156e+16,2.97994736142753e+16,2555093385147655.0,3106281464899465.5,2293891046415.0176,5064975032851.219,90494168221929.45,2245499074751823.0
39.15591596493141,2.201740399983031e+16,3.015723427359112e+16,2581196478610802.5,3138015551828358.0,2369525143356.968,5231980276933.261,93478000314786.03,2319538737586516.5
40.03903428423004,2.224130096930702e+16,3.0518836042326868e+16,2607444898709199.5,3169926315446567.5,2447390511808.3887,5403912494403.338,96549861508855.89,2395762694349013.0
40.93981496991464,2.2466438626806516e+16,3.088434243859566e+16,2633838770086597.0,3202013907286191.0,2527548012661.664,5580906084140.68,99712153094820.19,2474230527224769.0
41.85861126931294,2.2692817639670184e+16,3.1253818034632868e+16,2660378170978340.0,3234278422459637.5,2610060026627.707,5763098801704.121,102967336337366.95,2555003306358942.5
42.7957834946992,2.2920438274547464e+16,3.162732848368753e+16,2687063132644913.5,3266719898970964.0,2694990486518.9688,5950631830657.258,106317933749549.47,2638143621457527.0
43.751699164593184,2.3149300392505116e+16,3.2004940547308316e+16,2713893638798576.5,3299338317018808.5,2782404909990.7524,6143649854907.417,109766530385253.67,2723715613835681.0
