t(s),Total solute volume 1,Total retention volume 1,Total 1 volume 1,Total 2 volume 1,Total 3 volume 1,Total 4 volume 1,Total 5 volume 1,Total 6 volume 1
0.1,1063829490026819.8,1368988609462191.8,135960145783138.03,169198973652234.8,0.0,0.0,0.0,0.0
0.202,1602092671423627.0,2061910124600617.0,204751566132221.25,254808165551578.12,222985328.02060962,510372182.4871833,9623240049.746384,247364895629.36005
0.30604000000000003,2012104176828921.8,2589929470636777.5,257152091737433.62,320019299933224.44,565696487.4010482,1294775390.121348,24413786920.87232,627627878398.6697
0.41216080000000005,2358863501161281.5,3036664153361344.5,301468825769519.9,375170359126676.5,1004744159.5959398,2299675468.258051,43362054451.856995,1114800829787.4495
0.5204040160000001,2666752705264172.0,3433478200793435.5,340817858391372.0,424139238999136.6,1529736405.6056612,3501287142.2049456,66019528222.681885,1697347586985.545
0.6308120963200001,2947923930319648.0,3796003137798933.5,376752264528491.56,468858702208537.56,2135092151.6569622,4886836356.55617,92145334274.80412,2369073479468.8604
0.7434283382464002,3209441075834017.0,4133325443942003.5,410174828719460.6,510452241383147.56,2817614147.3027835,6449005200.33314,121601483128.03323,3126429902901.117
0.8582969050113283,3455829590739946.5,4451266597780674.5,441663914985096.4,549639615982108.9,3575491626.8472905,8183649176.803384,154309824512.22818,3967407108203.421
0.9754628431115548,3690190562752540.5,4753816174047420.0,471615850316411.75,586914044964021.8,4407808864.692774,10088672375.0201,190230836909.60446,4890988696299.493
1.094972099973786,3914756867258846.0,5043847208906693.0,500316001934311.2,622630660647670.5,5314272984.840381,12163404474.938944,229351880078.2184,5896849508329.579
1.2168715419732616,4131198515703277.0,5323508948270857.0,527977801599200.4,657055073482858.4,6295050381.5089035,14408226343.869997,271680135162.57144,6985174073633.198
1.3412089728127268,4340802761698857.0,5594458496590057.0,554765763635564.2,690392017402410.1,7350662334.979568,16824331120.133862,317238099614.8481,8156540760163.84
1.4680331522689813,4544586459175875.0,5858005324292810.0,580809844592544.9,722803220058146.2,8481915300.284477,19413564656.59452,366060578556.80853,9411844407735.467
1.597393815314361,4743369389969138.0,6115205573610190.0,606214814698302.2,754419065359821.4,9689852685.42171,22178315149.834343,418192603602.3445,10752242811485.49
1.729341691620648,4937823928248036.0,6366925929593761.0,631066605102006.1,785346492457924.4,10975720570.320984,25121434677.18473,473687953343.6886,12179118677203.844
1.863928525453061,5128509740056744.0,6613888244429629.0,655436742564376.5,815674514604350.4,12340942817.71525,28246182230.130497,532608079178.6782,13694051999917.633
2.001207095962122,5315898676535604.0,6856701550047525.0,679385530875421.9,845478178346654.1,13787102716.621529,31556181699.676098,595021313075.5978,15298799692358.258
2.1412312378813647,5500393043225462.0,7095885552144979.0,702964385718571.2,874821469207645.0,15315929296.194277,35055390551.35134,661002276904.0409,16995280396548.951
2.284055862638992,5682339276223376.0,7331888217473861.0,726217582518556.2,903759486838049.4,16929287059.816946,38748076328.52568,730631439377.838,18785563091098.0
2.4297369798917723,5862038359610780.0,7565099170593322.0,749183587815545.6,932340101878075.2,18629168278.01441,42638799012.404366,803994783432.5803,20671858538195.227
2.578331719489608,6039753883797546.0,7795860057092697.0,771896089142247.8,960605237613556.2,20417687232.980095,46732397848.92136,881183557831.6669,22656512896439.887
2.7298983538794,6215718365209913.0,8024472671176792.0,794384802696303.8,988591875103856.8,22297075978.090824,51033981643.17005,962294094156.7614,24742003014937.57
2.884496320956988,6390138263909213.0,8251205409066115.0,816676114604857.0,1016332851219501.0,24269681292.8779,55548921790.02264,1047427675392.1833,26930933054058.15
3.0421862473761276,6563198011963686.0,8476298450492723.0,838793595760849.4,1043857499342975.1,26337962595.945213,60282847497.32173,1136690445852.7722,29226032169274.03
3.2030299723236504,6735063280394400.0,8699967961256035.0,860758419347116.1,1071192168966934.5,28504490636.835213,65241642791.950356,1230193354729.8943,31630153059431.727
3.3670905717701234,6905883653077581.0,8922409533363220.0,882589702567984.1,1098360650970567.9,30771946830.26954,70431444996.188,1328052127361.3618,34146271227894.164
3.5344323832055258,7075794833735478.0,9143801024945790.0,904304788708373.9,1125384528635064.6,33143123127.41725,75858644433.2334,1430387259678.654,36777484839642.22
3.7051210308696363,7244920481666406.0,9364304922945434.0,925919481744842.6,1152283469611125.8,35620922342.13785,81529885174.08925,1537324032290.1672,39527015083279.7
3.879223451487029,7413373749570464.0,9584070322893134.0,947448242883653.6,1179075470505637.8,38208358867.74478,87452066678.2873,1648992541418.846,42398206966412.195
4.0568079205167695,7581258580315948.0,9803234598873660.0,968904356290859.2,1205777063128621.2,40908559733.281136,93632346211.70578,1765527744492.7073,45394530487794.3
4.237944078927105,7748670807120933.0,1.0021924820860864e+16,990300069698354.4,1232403489473880.5,43724765958.687416,100078141948.50247,1887069518635.1863,48519582141167.53
4.422702960505647,7915699092256863.0,1.024025896456274e+16,1011646714372593.5,1258968851017070.5,46660334176.33719,106797136682.72905,2013762730651.6428,51777086714694.87
4.61115701971576,8082425732215169.0,1.0458346949702174e+16,1032954808016967.2,1285486236775101.5,49718738492.79733,113797282089.78885,2145757317383.787,55170899356982.766
4.803380160110075,8248927351747882.0,1.0676291535549024e+16,1054234143471972.2,1311967833691288.5,52903572569.73629,121086803489.4889,2283208375522.2754,58705007886296.086
4.9994477633122765,8415275504886349.0,1.0894189096980128e+16,1075493865526958.1,1338425022225605.2,56218551906.95339,128674205071.73013,2426276260142.784,62383535324076.51
5.199436718578522,8581537197662192.0,1.1112130300000072e+16,1096742537725197.0,1364868459491941.2,59667516313.78165,136568275553.359,2575126691372.2036,66210742637504.445
5.403425452950093,8747775344581389.0,1.1330200692217114e+16,1117988200702463.2,1391308151858959.8,63254432557.77552,144778094240.80753,2729930868706.3496,70191031678801.94
5.611493962009095,8914049168773362.0,1.154848122103178e+16,1139238423327106.2,1417753518592655.8,66983397181.77577,153313037478.1282,2890865592594.802,74328948311389.75
5.823723841249277,9080414554029838.0,1.176704869010139e+16,1160500347691518.0,1444213447847104.2,70858639482.24042,162182785464.1592,3058113392986.093,78629185715008.48
6.040198318074262,9246924355570436.0,1.1985976162872292e+16,1181780728828793.5,1470696346090824.5,74884524643.22575,171397329425.9554,3231862664590.6064,83096587863573.27
6.261002284435747,9413628675254464.0,1.2205333320534102e+16,1203085969885482.0,1497210181878408.2,79065557021.64948,180966979138.4926,3412307808673.0645,87736153170910.06
6.486222330124463,9580575106045196.0,1.2425186780578112e+16,1224422153364772.2,1523762524731853.0,83406383580.51576,190902370783.04825,3599649381230.9536,92553038300697.25
6.715946776726952,9747808949784842.0,1.26456003811785e+16,1245795068958679.8,1550360579777022.8,87911797467.67348,201214475138.70163,3794094247454.4136,97552562137909.19
6.950265712261491,9915373411719550.0,1.2866635435820848e+16,1267210238408848.5,1577011218682315.2,92586741738.43718,211914606103.126,3995855742395.259,102740209919916.7
7.18927102650672,1.0083309774703584e+16,1.3088350961945796e+16,1288672937770298.2,1603721007365283.8,97436313221.05127,223014429540.343,4205153837801.2944,108121637526104.8
7.433056447036854,1.0251657555584174e+16,1.3310803886826776e+16,1310188217397801.5,1630496230865244.5,102465766524.53438,234525972454.381,4422215315095.988,113702675925503.08
7.681717575977592,1.042045464591332e+16,1.3534049233443206e+16,1331760919929217.0,1657342915723014.8,107680518188.93773,246461632488.9163,4647273944504.804,119489335782458.39
7.935351927497144,1.058973743883319e+16,1.3758140288726632e+16,1353395696501768.0,1684266850161726.5,113086150978.46881,258834187753.93076,4880570670347.93,125487812220860.22
8.194058966047088,1.0759540943729712e+16,1.3983128756232516e+16,1375097021405070.2,1711273602322099.2,118688418318.3159,271656806981.2946,5122353802535.334,131704489747835.77
8.45794014536803,1.092989889003579e+16,1.4209064895016776e+16,1396869205347463.5,1738368536772081.0,124493248876.33437,284943060011.9412,5372879214314.288,138145947338213.36
8.72709894827539,1.1100843821384636e+16,1.4435997646262886e+16,1418716407489013.2,1765556829481605.2,130506751291.05728,298706928617.9848,5632410546332.575,144818963681373.7
9.0016409272409,1.127240718115813e+16,1.4663974749008114e+16,1440642646374851.8,1792843481428875.5,136735219047.76341,312962817663.7227,5901219417092.15,151730522592409.2
9.281673745785717,1.1444619390345266e+16,1.4893042846146158e+16,1462651809885656.0,1820233330983467.5,143185135504.56335,327725566610.057,6179585639877.936,158887818589774.84
9.567307220701432,1.1617509918510334e+16,1.5123247581740148e+16,1484747664307592.5,1847731065193642.8,149863179070.70108,343010461367.3194,6467797446256.566,166298262641866.0
9.85865336511546,1.1791107348574952e+16,1.5354633690552738e+16,1506933862611596.5,1875341230089731.8,156776228539.45612,358833246501.9992,6766151716248.149,173969488085169.78
10.155826432417769,1.1965439436032624e+16,1.5587245080594396e+16,1529213952021170.5,1903068240102038.5,163931368578.22217,375210137803.2388,7074954215282.102,181909356716849.88
10.458942961066125,1.2140533163143008e+16,1.582112490939526e+16,1551591380938534.5,1930916386680265.5,171335895378.5071,392157835215.4045,7394519838055.772,190125965064815.9
10.768121820287448,1.2316414788588784e+16,1.6056315654627564e+16,1574069505290925.8,1958889846191339.2,178997322468.76324,409693536143.38635,7725172859421.228,198627650838496.22
11.083484256693197,1.24931098930249e+16,1.629285917963256e+16,1596651594351867.8,1986992687163820.8,186923386693.0967,427834949137.59784,8067247192431.922,207422999563713.78
11.405153941827061,1.2670643420899706e+16,1.6530796794346466e+16,1619340836086066.5,2015228876939488.0,195122054359.06412,446600307966.02625,8421086653687.53,216520851405203.16
11.733257020663602,1.284903971888825e+16,1.6770169312065756e+16,1642140342061254.2,2043602287786015.8,203601527557.86554,466008386080.9249,8787045236120.584,225930308180474.97
12.067922161076874,1.3028322571239476e+16,1.7011017102444338e+16,1665053151965648.0,2072116702518847.5,212370250660.4128,486078511488.0823,9165487389373.879,235660740568849.34
12.409280604298411,1.3208515141522842e+16,1.7253380144272866e+16,1688082226171373.2,2100775805278095.0,221436915529.87225,506830579702.6976,9556788791900.148,245721915013419.97
12.75746621638438,1.3389640365701152e+16,1.7497298062132424e+16,1711230495936819.0,2129583243877759.0,230810474190.24203,528285078674.7795,9961334722906.629,256123526340895.72
13.112615540712067,1.3571720434904254e+16,1.7742810180176858e+16,1734500797353847.2,2158542547794425.8,240500137215.6711,550463091173.75,10379523235040.236,266875913660883.78
13.474867851526309,1.3754777184330682e+16,1.7989955559724298e+16,1757895921017032.2,2187657189852766.2,250515386701.39838,573386320455.5903,10811763565901.713,277989599250749.2
13.844365208556836,1.3938832025737344e+16,1.8238773038042984e+16,1781418603404024.0,2216930575530280.2,260865982269.88535,597077105010.5078,11258476931126.346,289475413352906.06
14.221252512727972,1.4123905969056522e+16,1.84893012650043e+16,1805071529638226.0,2246366046395456.5,271561968700.9683,621558436028.2605,11720096853719.984,301344502655623.56
14.605677562982532,1.4310019642335158e+16,1.874157873779893e+16,1828857336037130.8,2275966883279007.5,282613683765.3409,646853975328.914,12197069502165.297,313608338986378.44
14.997791114242183,1.4497193310116084e+16,1.8995643833887896e+16,1852778612461467.0,2305736309197384.0,294031766265.5219,672988073768.5778,12689854037484.295,326278728235490.4
15.397746936527026,1.4685446890378236e+16,1.9251534842344364e+16,1876837904480216.5,2335677492047093.5,305827164288.73083,699985790130.2087,13198922969447.133,339367819514929.5
15.805701875257567,1.4874799970142168e+16,1.9509289993727464e+16,1901037715365013.2,2365793547086644.5,318011143676.1191,727872910509.7172,13724762522121.414,352888114557269.8
16.221815912762718,1.5065271819835886e+16,1.9768947488617236e+16,1925380507926148.0,2396087539221431.0,330595296712.98975,756675968207.9324,14267873008959.004,366852477359889.75
16.64625223101797,1.5256881406508926e+16,2.0030545524928016e+16,1949868706201369.5,2426562485105387.0,343591551044.6168,786422264139.0087,14828769217622.168,381274144079570.9
17.079177275638333,1.5449647405973432e+16,2.0294122324107156e+16,1974504697007551.8,2457221355072018.0,357012178822.43616,817139887766.191,15407980804753.3,396166733182772.44
17.5207608211511,1.5643588213945144e+16,2.0559716156318428e+16,1999290831364496.2,2488067074906254.0,370869806085.4148,848857738575.9788,16006052700896.834,411544255856936.44
17.97117603757412,1.5838721956248698e+16,2.082736536470017e+16,2024229425799251.8,2519102527467710.5,385177422381.5111,881605548101.8658,16623545525784.65,427421126688247.75
18.430599558325603,1.603506649814874e+16,2.109710838878071e+16,2049322763538620.5,2550330554174612.5,399948390634.1956,915413902509.1151,17261036014200.164,443812174611400.1
18.899211549492115,1.623263945286108e+16,2.1368983787128204e+16,2074573095596923.2,2581753956357649.5,415196457259.0742,950314265752.0557,17919117452638.613,460732654136947.0
19.37719578048196,1.6431458189293778e+16,2.164303025930482e+16,2099982641765300.5,2613375496490984.0,430935762535.7608,986339003315.703,18598400126985.42,478198256861936.94
19.864739696091597,1.6631539839064512e+16,2.1919286667190468e+16,2125553591508615.5,2645197899308506.5,447180851240.1555,1023521406553.5325,19299511781435.78,496225123269596.6
20.36203449001343,1.6832901302836642e+16,2.2197792055737144e+16,2151288104775118.8,2677223852811449.5,463946683542.40234,1061895717633.4697,20023098088883.305,514829854823881.25
20.869275179813698,1.703555925601138e+16,2.247858567320831e+16,2177188312724017.5,2709456009173796.0,481248646175.8551,1101497155104.241,20769823133006.74,534029526364815.2
21.38666068340997,1.7239530153813152e+16,2.2761706990956404e+16,2203256318375352.5,2741896985551038.0,499102563882.4,1142361940094.4492,21540369902287.316,553841698810575.1
21.91439389707817,1.7444830235799536e+16,2.3047195722786236e+16,2229494197186376.2,2774549364797470.5,517524711139.6049,1184527323156.8179,22335440796191.613,574284432172377.6
22.452681775019734,1.7651475529826182e+16,2.333509184394925e+16,2255903997558303.0,2807415696096849.5,536531824175.15765,1228031611770.1018,23155758143756.598,595376298888230.5
23.00173541052013,1.7859481855494674e+16,2.3625435609810644e+16,2282487741276930.5,2840498495510704.0,556141113274.1749,1272914198511.4983,24002064734816.984,617136397481736.5
23.561770118730532,1.8068864827108132e+16,2.391826757422856e+16,2309247423890388.5,2873800246448450.0,576370275384.9178,1319215589912.2332,24875124364115.543,639584366552141.4
24.133005521105144,1.8279639856158864e+16,2.421362860768236e+16,2336185015027063.5,2907323400063038.0,597237507028.6046,1366977436009.296,25775722388540.598,662740399101867.6
24.715665631527248,1.8491822153368868e+16,2.451155991518449e+16,2363302458656393.0,2941070375575496.5,618761517518.958,1416242560606.3035,26704666297734.492,686625257207854.0
25.309978944157795,1.870542673030454e+16,2.48121030540075e+16,2390601673295191.5,2975043560531717.5,640961542497.2267,1467054992256.5903,27662786298321.48,711260287043037.5
25.91617852304095,1.8920468400582652e+16,2.5115299951258896e+16,2418084552161834.0,3009245310994307.5,663857357788.3954,1519459995981.6355,28650935912001.445,736667434254327.2
26.53450209350177,1.9136961780686456e+16,2.5421192921329896e+16,2445752963280482.0,3043677951672329.5,687469293584.3868,1573504105738.121,29669992587759.785,762869259703508.9
27.165192135371807,1.9354921290406436e+16,2.5729824683247932e+16,2473608749537491.5,3078343775991471.0,711818248960.0322,1629235157646.8435,30720858328443.812,789888955577484.1
27.808495978079243,1.957436115292199e+16,2.6041238377957756e+16,2501653728691800.5,3113245046106982.5,736925706727.6309,1686702323996.795,31804460331955.613,817750361874301.6
28.464665897640828,1.979529539453688e+16,2.6355477585555056e+16,2529889693341140.5,3148383992861638.5,762813748635.9229,1745956148037.781,32921751647314.69,846477983271426.5
29.133959215593645,2.0017737844081904e+16,2.667258634249733e+16,2558318410845694.0,3183762815690690.0,789505070919.316,1807048579574.9558,34073711845840.633,876097006382733.6
29.816638399905518,2.024170213199695e+16,2.6992609158813572e+16,2586941623210745.5,3219383682475908.5,817023000203.1984,1870033011378.5913,35261347707709.59,906633317410680.5
30.51297116790363,2.046720168910305e+16,2.7315591035333576e+16,2615761046929822.5,3255248729350272.0,845391509771.1486,1934964316422.5007,36485693924134.75,938113520200096.9
31.223230591261704,2.069424974507632e+16,2.764157748095886e+16,2644778372789582.0,3291360060455237.0,874635236199.9294,2001898885964.3823,37747813815423.67,970564954700064.8
31.947695203086937,2.0922859326632396e+16,2.797061452999251e+16,2673995265637819.0,3327719747651988.0,904779496367.975,2070894668481.4739,39048800065161.336,1004015715840270.4
32.686649107148675,2.1153043255431676e+16,2.830274875954901e+16,2703413364115729.0,3364329830188283.0,935850304843.2393,2142011209474.661,40389775470771.06,1038494672828245.0
33.44038208929165,2.1384814145713668e+16,2.8638027307059796e+16,2733034280355621.5,3401192314322198.0,967874391656.0786,2215309692154.2563,41771893710698.414,1074031488873809.0
34.20918973107749,2.161818440166946e+16,2.8976497887893624e+16,2762859599645038.0,3438309172904192.0,1000879220462.941,2290852979020.5327,43196340128466.086,1110656641347018.8
34.993373525699035,2.1853166214559336e+16,2.9318208813107656e+16,2792890880058432.0,3475682344918754.0,1034893007106.4496,2368705654351.911,44664332533844.41,1148401442375849.2
35.793240996213015,2.2089771559583816e+16,2.9663209007345e+16,2823129652057250.0,3513313734986617.5,1069944738577.5436,2448934067613.7036,46177122021377.88,1187298059889761.5
36.60910581613728,2.2328012192514604e+16,3.0011548026895e+16,2853577418059392.5,3551205212829063.5,1106064192385.1523,2531606377800.049,47735993806506.29,1227379539115217.0
37.44128793246003,2.256789964609239e+16,3.0363276077929876e+16,2884235651978816.0,3589358612694944.0,1143281956338.873,2616792598721.4873,49342268079516.7,1268679824529114.0
38.29011369110923,2.280944522619818e+16,3.0718444034933664e+16,2915105798736199.0,3627775732751678.5,1181629448749.9976,2704564645250.4644,50997300877556.05,1311233782276013.2
39.15591596493141,2.3052660007802708e+16,3.107710345933456e+16,2946189273741325.5,3666458334441133.0,1221138939056.1577,2794996380536.8286,52702484974931.734,1355077223054855.2
40.03903428423004,2.329755483070125e+16,3.143930661835611e+16,2977487462347937.5,3705408141801173.5,1261843568874.665,2888163664205.0654,54459250791919.63,1400246925480780.5
40.93981496991464,2.3544140295037348e+16,3.1805106504097576e+16,3009001719281680.0,3744626840753772.0,1303777373489.5642,2984144401544.584,56269067322296.93,1446780659927425.5
41.85861126931294,2.379242675662071e+16,3.2174556852854908e+16,3040733368041667.5,3784116078360275.0,1346975303777.244,3083018593704.2646,58133443079805.58,1494717212854933.2
42.7957834946992,2.4042424322042676e+16,3.25477121646936e+16,3072683700276303.0,3823877462044603.5,1391473248575.1746,3184868388901.8696,60053927063747.52,1544096411628755.2
43.751699164593184,2.4294142843593224e+16,3.292462772328146e+16,3104853975133598.5,3863912558784758.5,1437308057498.3052,3289778134658.3696,62032109743902.5,1594959149833856.0
