t(s),Total solute volume 1,Total retention volume 1,Total 1 volume 1,Total 2 volume 1,Total 3 volume 1,Total 4 volume 1,Total 5 volume 1,Total 6 volume 1
0.1,1012905215437994.5,1251976985692815.0,109237715628389.53,129834054626431.92,0.0,0.0,0.0,0.0
0.202,1525734192570380.2,1885867273501641.2,164544239561473.78,195568406697301.97,22551482.541502792,48091007.4567247,815559420.9475608,19548470572.93162
0.30604000000000003,1916392130506757.0,2368761982358673.0,206675112517007.62,245642889748545.2,57216888.945934385,122014982.77374566,2069228453.1911538,49601126035.38772
0.41216080000000005,2246841407350530.5,2777246068386188.5,242312725729547.34,287999834426072.9,101632172.77784523,216730579.88595766,3675504043.530214,88107013239.23317
0.5204040160000001,2540306529344622.5,3140024669762513.5,273961747952701.8,325616154982560.6,154748109.2049841,330000324.51667786,5596439959.847684,134156294233.55397
0.6308120963200001,2808360708160281.5,3471402064850511.5,302870303094812.2,359975304186453.1,216002039.39298284,460624346.01076496,7811687295.647093,187261095285.17862
0.7434283382464002,3057730891059557.5,3779692642661994.0,329763865115031.4,391939541257221.1,285072427.3703478,607916968.6968776,10309617537.078165,247142623251.15366
0.8582969050113283,3292726607915364.5,4070222929062968.5,355107199318351.2,422061261167757.5,361778016.33853376,771491662.4476817,13083675440.647114,313643716370.6443
0.9754628431115548,3516301063717660.5,4346643079466604.0,379218796876103.56,450719005344852.6,446028144.45907634,951155091.002022,16130582166.30432,386685762584.3437
1.094972099973786,3730580784376580.5,4611581509779512.0,402327994976209.06,478185351599326.94,537795231.6469328,1146848440.0113513,19449340246.458267,466244843482.5508
1.2168715419732616,3937156395176058.0,4867004291092734.0,424606336099215.0,504664186070205.7,637098248.6925837,1358612164.9227886,23040635738.965767,552337401101.4512
1.3412089728127268,4137254124397909.5,5114427123029838.0,446186063988050.0,530312686536763.06,743992171.8639531,1586563502.9071608,26906456848.548046,645011094605.1989
1.4680331522689813,4331842790482425.0,5355047566258781.0,467171661779053.25,555255036018720.1,858560943.4496404,1830881461.211582,31049839342.327213,744338696834.6238
1.597393815314361,4521703621995798.0,5589831337362888.0,487647381802060.75,579591372290478.1,980912605.2970742,2091796439.426281,35474690552.669556,850413874948.8202
1.729341691620648,4707477545012145.0,5819570754132759.0,507682345332628.9,603403849171520.0,1111175842.1361337,2369582858.120536,40185664365.46625,963348193406.6113
1.863928525453061,4889698221079032.0,6044925569072408.0,527334105602510.56,626760871328480.6,1249497474.807507,2664553813.151371,45188070562.05091,1083268940546.225
2.001207095962122,5068815747995870.0,6266452262500027.0,546651203832410.06,649720132237789.6,1396040614.3437634,2977057139.241364,50487808061.067635,1210317528141.9622
2.1412312378813647,5245214053744813.0,6484625540650811.0,565675045096818.2,672330843737441.0,1550983288.6604908,3307472481.397866,56091315252.422935,1344648300724.243
2.284055862638992,5419223917255421.0,6699854428747445.0,584441302560647.4,694635405026895.4,1714517415.5015514,3656209104.7195277,62005532853.615074,1486427645108.252
2.4297369798917723,5591132886597314.0,6912494529446108.0,602980987116026.1,716670673979690.0,1886848034.583131,4023704256.9443874,68237876140.05401,1635833324651.804
2.578331719489608,5761192951192988.0,7122857505373064.0,621321274799341.1,738468950566683.9,2068192737.5827138,4410421952.902658,74796214330.49367,1793053985047.0964
2.7298983538794,5929626558776685.0,7331218515863799.0,639486155695800.9,760058748109031.2,2258781251.8654447,4816852086.814559,81688855532.41374,1958288793404.2292
2.884496320956988,6096631392776803.0,7537822121663679.0,657496949160751.6,781465405642444.6,2458855145.679237,5243509803.620438,88924536080.3446,2131747182648.9436
3.0421862473761276,6262384207956373.0,7742887025699929.0,675372717477928.4,802711579569072.9,2668667630.8432446,5690935078.215691,96512413400.06369,2313648680447.608
3.2030299723236504,6427043941213826.0,7946609918004711.0,693130601346690.9,823817642399537.2,2888483444.870676,6159692464.079578,104462061745.55246,2504222807002.028
3.3670905717701234,6590754257852979.0,8149168622923256.0,710786094486916.1,844802009133482.8,3118578798.7574244,6650370981.936328,112783470310.76547,2703709029776.4517
3.5344323832055258,6753645653405549.0,8350724697023259.0,728353270312006.6,865681406670901.0,3359241379.825739,7163584125.821593,121487043332.48671,2912356765957.426
3.7051210308696363,6915837202067829.0,8551425590252809.0,745844970490705.5,886471097926526.2,3610770401.369315,7699969968.9528885,130583601885.76137,3130425425490.266
3.879223451487029,7077438021587988.0,8751406456660371.0,763272962929240.4,907185069598887.8,3873476692.626602,8260191355.599959,140084387137.8071,3358184489079.9023
4.0568079205167695,7238548508720537.0,8950791681561884.0,780648075010066.4,927836190530700.8,4147682823.970184,8844936168.053898,150001064875.52567,3595913616723.9307
4.237944078927105,7399261387587288.0,9149696177483606.0,797980306653347.5,948436346087632.2,4433723263.252351,9454917660.036713,160345731159.7826,3843902783257.785
4.422702960505647,7559662604365547.0,9348226490186840.0,815278926805451.8,968996552839326.8,4731944560.067656,10090874849.644114,171130918989.30887,4102452438103.784
4.61115701971576,7719832094903199.0,9546481747649874.0,832552556223100.4,989527056952188.1,5042705555.340173,10753572966.293486,182369605880.48135,4371873686976.3774
4.803380160110075,7879844446594558.0,9744554478374754.0,849809238854023.2,1010037419028559.0,5366377614.15772,11443803947.245995,194075222287.83203,4652488493742.234
4.9994477633122765,8039769471752047.0,9942531320319852.0,867056503672738.5,1030536587601406.0,5703344880.187641,12162386980.15169,206261660805.05746,4944629900991.404
5.199436718578522,8199672706489926.0,1.0140493637782196e+16,884301418483158.9,1051032963081192.6,6054004550.342166,12910169088.776964,218943286098.36542,5248642268164.407
5.403425452950093,8359615846592685.0,1.0338518060408088e+16,901550636925210.9,1071534453625414.1,6418767168.633336,13688025759.653917,232134945533.8149,5564881526316.581
5.611493962009095,8519657129812958.0,1.0536676956006412e+16,918810439704128.6,1092048524141498.0,6798056938.38067,14496861607.86713,245851980468.38223,5893715448793.8545
5.823723841249277,8679851672419402.0,1.0735038846829216e+16,936086770885764.2,1112582239425472.1,7192312052.119296,15337611080.587212,260110238181.18274,6235523937254.635
6.040198318074262,8840251766503213.0,1.0933668777365042e+16,953385269959898.9,1133142302270670.0,7601985038.710925,16211239197.288935,274926084426.82434,6590699322606.218
6.261002284435747,9000907143488394.0,1.1132628640374176e+16,970711300258748.0,1153735087244445.5,8027543127.288674,17118742325.868599,290316416597.5745,6959646680535.912
6.486222330124463,9161865208421396.0,1.1331977466821402e+16,988069974224147.6,1174366670719375.2,8469468627.777404,18061148994.108192,306298677484.97577,7342784161412.77
6.715946776726952,9323171248903410.0,1.1531771684481802e+16,1005466175940072.1,1195042857654204.5,8928259327.823614,19039520736.13397,322890869634.9328,7740543334416.212
6.950265712261491,9484868619353292.0,1.1732065349371676e+16,1022904581010437.0,1215769205239341.0,9404428906.083315,20054953012.52785,340111587193.24414,8153372799472.614
7.18927102650672,9646998918931632.0,1.1932910352918616e+16,1040389675724131.0,1236551045595885.5,9898507361.643028,21108575971.875694,357979964225.28314,8581725619426.899
7.433056447036854,9809602126601948.0,1.2134356608902944e+16,1057925771655999.8,1257393503249179.8,10411041460.168608,22201555632.188335,376515791101.9074,9026079007665.168
7.681717575977592,9972716747325794.0,1.2336452221583828e+16,1075517021409857.0,1278301513760104.5,10942595196.124685,23335094714.09914,395739464750.4904,9486921933408.225
7.935351927497144,1.0136379932118186e+16,1.253924363775522e+16,1093167431571866.8,1299279839140844.8,11493750271.791088,24510433700.290356,415672022504.56165,9964758717853.672
8.194058966047088,1.0300627589125718e+16,1.2742775784491296e+16,1110880874689888.4,1320333082092879.2,12065106593.032187,25728851892.727722,436335160033.6455,10460109464271.281
8.45794014536803,1.0465494484430744e+16,1.2947092194207348e+16,1128661100144787.0,1341465698928049.2,12657282782.087414,26991668506.19367,457751249888.47906,10973510502580.514
8.72709894827539,1.0631014333724172e+16,1.3152235118450406e+16,1146511744036969.8,1362682011319154.5,13270916707.646103,28300243798.679527,479943360671.33307,11505514848913.096
9.0016409272409,1.0797219885843876e+16,1.3358245631650966e+16,1164436338195671.8,1383986217007897.8,13906666032.50311,29655980239.26919,502935276842.1473,12056692680418.15
9.281673745785717,1.0964142999049198e+16,1.3565163725913058e+16,1182438318404855.0,1405382399581751.5,14565208779.12137,31060323714.21028,526751519172.28766,12627631825592.127
9.567307220701432,1.113181471079513e+16,1.3773028397785816e+16,1200521031928051.5,1426874537417595.5,15247243913.456205,32514764771.92773,551417365858.7362,13218938270441.305
9.85865336511546,1.1300265301676448e+16,1.3981877727845986e+16,1218687744404501.2,1448466511878055.2,15953491947.422142,34020839907.793922,576958874312.5005,13831236680806.932
10.155826432417769,1.1469524354132236e+16,1.4191748953821968e+16,1236941646180177.8,1470162114836266.0,16684695560.408203,35580132889.52003,603402903635.927,14465170941205.342
10.458942961066125,1.1639620806432716e+16,1.4402678537903412e+16,1255285858130069.5,1491965055595876.0,17441620240.272354,37194276124.087296,630777137804.489,15121404710555.979
10.768121820287448,1.1810583002409372e+16,1.4614702228807934e+16,1273723437021343.5,1513878967265455.2,18225054944.26873,38864952067.184616,659110109569.4371,15800621995190.525
11.083484256693197,1.198243873733752e+16,1.4827855119110972e+16,1292257380461628.0,1535907412639719.2,19035812780.38299,40593894676.16827,688431225098.5453,16503527739556.027
11.405153941827061,1.215521530033557e+16,1.5042171698288444e+16,1310890631471576.0,1558053889634262.0,19874731709.574844,42382890907.60582,718770789372.9613,17230848435043.562
11.733257020663602,1.2328939513604328e+16,1.5257685901873474e+16,1329626082716665.8,1580321836315222.2,20742675269.446407,44233782260.51221,750160032358.9359,17983332747393.35
12.067922161076874,1.2503637768795578e+16,1.5474431157084842e+16,1348466580429420.8,1602714635561048.0,21640533319.878036,46148466366.430275,782631135974.0247,18761752163144.613
12.409280604298411,1.2679336060768534e+16,1.5692440425246698e+16,1367414928049895.5,1625235619389353.2,22569222811.192745,48128898627.55691,816217261868.0515,19566901655618.117
12.75746621638438,1.2856060018965542e+16,1.591174624128705e+16,1386473889609408.5,1647888072978670.2,23529688575.432697,50177093904.154,850952580039.917,20399600370935.477
13.112615540712067,1.3033834936614608e+16,1.6132380750571482e+16,1405646192879944.0,1670675238411620.8,24522904141.350716,52295128252.53309,886872298312.0986,21260692334599.78
13.474867851526309,1.3212685797945934e+16,1.6354375743303884e+16,1424934532309301.5,1693600318163514.2,25549872573.74124,54485140714.945885,924012692685.3995,22151047179178.05
13.844365208556836,1.3392637303589728e+16,1.657776268670256e+16,1444341571760205.8,1716666478357893.8,26611627337.756886,56749335162.75575,962411138597.2867,23071560893645.105
14.221252512727972,1.357371389430829e+16,1.6802572755139814e+16,1463869947069653.8,1739876851808412.2,27709233188.875343,59089982194.31028,1002106143107.9438,24023156594966.652
14.605677562982532,1.3755939773197834e+16,1.7028836858414664e+16,1483522268443337.2,1763234540864765.0,28843787089.20569,61509421088.98337,1043137378038.8651,25006785322517.78
14.997791114242183,1.3939338926485068e+16,1.725658566831282e+16,1503301122698438.0,1786742620078293.8,30016419150.841614,64010061818.896095,1085545714089.6301,26023426855950.43
15.397746936527026,1.4123935143030056e+16,1.7485849643592866e+16,1523209075366964.2,1810404138701965.2,31228293606.992813,66594387119.87466,1129373255959.309,27074090557145.0
15.805701875257567,1.4309752032637912e+16,1.771665905352571e+16,1543248672670549.0,1834222123037457.8,32480609811.64602,69264954623.25072,1174663378499.657,28159816236895.63
16.221815912762718,1.4496813043270912e+16,1.7949044000102418e+16,1563422443376760.8,1858199578641482.8,33774603268.531273,72024399050.1538,1221460763928.1377,29281675047003.08
16.64625223101797,1.4685141477246304e+16,1.8183034439013948e+16,1583732900545922.0,1882339492401986.2,35111546690.18862,74875434469.99551,1269811440129.5747,30440770398464.45
17.079177275638333,1.4874760506495462e+16,1.8418660199500616e+16,1604182543176785.5,1906644834494070.0,36492751087.95644,77820856624.89589,1319762820076.0906,31638238906470.816
17.5207608211511,1.5065693186954984e+16,1.8655951003155696e+16,1624773857758519.5,1931118560224632.8,37919566893.72345,80863545321.84494,1371363742395.8364,32875251362944.04
17.97117603757412,1.525796247215323e+16,1.8894936481765628e+16,1645509319735991.0,1955763611773913.5,39393385114.311104,84006466894.45297,1424664513121.7693,34153013737363.355
18.430599558325603,1.5451591226050928e+16,1.9135646194257416e+16,1666391394894559.2,1980582919841369.8,40915638519.37702,87252676736.18294,1479716948652.8003,35472768206653.586
18.899211549492115,1.5646602235188896e+16,1.9378109642821516e+16,1687422540670159.2,2005579405202794.8,42487802863.753555,90605321907.01863,1536574419960.2888,36835794214928.71
19.37719578048196,1.5843018220192366e+16,1.962235628827119e+16,1708605207389997.0,2030755980184929.0,44111398145.16277,94067643815.57472,1595291898073.9583,38243409563905.375
19.864739696091597,1.6040861846676084e+16,1.9868415564694536e+16,1729941839448627.2,2056115550063283.0,45787989898.270935,97642980978.70215,1655926000882.0623,39696971534822.6
20.36203449001343,1.6240155735592378e+16,2.0116316893451212e+16,1751434876423932.8,2081661014388513.8,47519190526.07525,101334771860.70647,1718535041281.7122,41197878042726.51
20.869275179813698,1.6440922473058842e+16,2.0366089696561236e+16,1773086754137027.8,2107395268246211.5,49306660669.638435,105146557794.34477,1783179076716.0715,42747568824002.83
21.38666068340997,1.6643184619701726e+16,2.0617763409530864e+16,1794899905659867.2,2133321203454457.2,51152110617.21671,109081985985.8293,1849919960136.248,44347526658060.375
21.91439389707817,1.6846964719546266e+16,2.0871367493654676e+16,1816876762274075.5,2159441709703426.2,53057301753.8502,113144812606.12346,1918821392426.566,45999278624095.836
22.452681775019734,1.7052285308483762e+16,2.1126931447832748e+16,1839019754384048.0,2185759675640691.5,55024048052.51764,117338905970.87025,1989948976333.0,47704397393891.0
23.00173541052013,1.7259168922342852e+16,2.138448481993707e+16,1861331312387434.2,2212277989905784.8,57054217607.979675,121668249811.36086,2063370271935.5305,49464502561619.664
23.561770118730532,1.7467638104590034e+16,2.164405721775914e+16,1883813867505593.0,2238999542117266.8,59149734214.46995,126136946639.00908,2139154853706.2214,51281262011666.8
24.133005521105144,1.7677715413682544e+16,2.190567831956917e+16,1906469852576567.0,2265927223815198.0,61312578988.41733,130749221205.85504,2217374369195.9463,53156393325486.586
24.715665631527248,1.7889423430095218e+16,2.216937788431406e+16,1929301702812914.5,2293063929361871.0,63544792037.41562,135509424063.69963,2298102599393.6406,55091665228552.7
25.309978944157795,1.810278476304138e+16,2.2435185761479836e+16,1952311856526520.8,2320412556803243.5,65848474176.68785,140422035224.51733,2381415520803.2334,57088899078479.69
25.91617852304095,1.8317822056905644e+16,2.270313190064295e+16,1975502755822353.8,2347976008693549.0,68225788694.32103,145491667924.87973,2467391369284.386,59149970395423.08
26.53450209350177,1.853455799740636e+16,2.2973246360731812e+16,1998876847263045.8,2375757192885170.5,70678963166.5796,150723072497.1726,2556110705704.3604,61276810435888.266
27.165192135371807,1.875301531750244e+16,2.3245559319020348e+16,2022436582505950.0,2403759023285763.0,73210291324.64116,156121140350.4728,2647656483449.5337,63471407811113.45
27.808495978079243,1.8973216803060144e+16,2.352010107987115e+16,2046184418914258.8,2431984420584666.5,75822134974.12361,161690908064.01035,2742114117846.1772,65735810151209.81
28.464665897640828,1.9195185298292708e+16,2.379690208324786e+16,2070122820143634.2,2460436312950096.0,78516925968.81413,167437561596.21365,2839571557541.435,68072125816281.46
29.133959215593645,1.9418943710985036e+16,2.407599291301214e+16,2094254256705688.2,2489117636698891.0,81297168240.03767,173366440612.4121,2940119357896.4355,70482525655766.4
29.816638399905518,1.964451501751499e+16,2.4357404305021132e+16,2118581206509514.2,2518031336940110.0,84165439883.13905,179483042934.3382,3043850756444.9136,72969244817274.55
30.51297116790363,1.987192226768185e+16,2.4641167155039356e+16,2143106155382408.8,2547180368193986.5,87124395302.587,185793029114.6438,3150861750471.8657,75534584606228.36
31.223230591261704,2.010118858935124e+16,2.492731252647824e+16,2167831597570797.2,2576567694987261.5,90176767417.242,192302227139.71646,3261251176767.9775,78180914397634.12
31.947695203086937,2.0332337192924572e+16,2.521587165797506e+16,2192760036222255.2,2606196292426102.5,93325369927.36516,199016637264.1665,3375120793616.747,80910673601353.23
32.686649107148675,2.056539137564093e+16,2.5506875970821824e+16,2217893983849448.8,2636069146747508.0,96573099644.97835,205942436980.41455,3492575365072.7114,83726373682256.33
33.44038208929165,2.080037452571782e+16,2.5800357076253896e+16,2243235962776693.0,2666189255850106.5,99922938889.22137,213085986126.88647,3613722747590.046,86630600236688.38
34.20918973107749,2.1037310126335276e+16,2.6096346782605464e+16,2268788505569641.0,2696559629804759.0,103377957948.3847,220453832138.4001,3738673979062.374,89626015126686.75
34.993373525699035,2.127622175946869e+16,2.639487710234001e+16,2294554155448596.0,2727183291345920.0,106941317610.32785,228052715442.38974,3867543370335.54,92715358673433.6
35.793240996213015,2.1517133109571776e+16,2.669598025895866e+16,2320535466685764.0,2758063276343716.0,110616271763.0251,235889575004.68274,4000448599256.3364,95901451911440.16
36.60910581613728,2.1760067967111532e+16,2.6999688693791336e+16,2346735004986416.0,2789202634256987.5,114406170067.01625,243971554028.61328,4137510807321.23,99187198904994.06
37.44128793246003,2.200505023195459e+16,2.7306035072670108e+16,2373155347854152.5,2820604428567425.0,118314460701.55107,252306005811.299,4278854698990.0806,102575589128416.5
38.29011369110923,2.225210391660152e+16,2.7615052292483704e+16,2399799084939678.0,2852271737194115.5,122344693186.25945,260900499760.98056,4424608643730.805,106069699911700.66
39.15591596493141,2.250125314926563e+16,2.7926773487609436e+16,2426668818372832.0,2884207652888159.0,126500521280.1878,269762827579.3459,4574904780861.508,109672698953119.81
40.03903428423004,2.2752522176786908e+16,2.8241232036213212e+16,2453767163076879.0,2916415283606199.5,130785705960.05978,278901009612.8104,4729879127257.328,113387846900399.66
40.93981496991464,2.300593536737157e+16,2.855846156640704e+16,2481096747063922.5,2948897752861583.5,135204118479.63022,288323301376.73035,4889671687989.436,117218500002068.52
41.85861126931294,2.326151721314244e+16,2.8878495962247984e+16,2508660211709959.0,2981658200051235.0,139759743512.0046,298038200256.55493,5054426569963.874,121168112830587.03
42.7957834946992,2.3519292332481216e+16,2.9201369369556892e+16,2536460212007487.5,3014699780755907.0,144456682376.78894,308054452389.8695,5224292098627.613,125240241078864.53
43.751699164593184,2.3779285472140544e+16,2.9527116201530356e+16,2564499416793308.5,3048025667010908.0,149299156353.91763,318381059733.3025,5399420937808.552,129438544431749.2
