t(s),Total solute volume 1,Total retention volume 1,Total 1 volume 1,Total 2 volume 1,Total 3 volume 1,Total 4 volume 1,Total 5 volume 1,Total 6 volume 1
0.1,635662618847346.4,635745708696614.9,83089849267.37202,0.0,0.0,0.0,0.0,0.0
0.21000000000000002,976898196986810.1,977025891021892.2,127694035081.80846,0.0,0.0,0.0,0.0,0.0
0.33100000000000007,1251620385801249.5,1251783989806438.2,163604005185.84064,0.0,0.0,0.0,0.0,0.0
0.46410000000000007,1497266392331031.0,1497462105649329.2,195713318296.99112,0.0,0.0,0.0,0.0,0.0
0.6105100000000001,1727807813435792.5,1728033661689828.2,225848254036.83234,0.0,0.0,0.0,0.0,0.0
0.7715610000000002,1950271350821867.0,1950526278121109.0,254927299237.7777,0.0,0.0,0.0,0.0,0.0
0.9487171000000002,2168833492609194.2,2169116988987550.2,283496378357.3406,0.0,0.0,0.0,0.0,0.0
1.1435888100000002,2386270378258566.5,2386582296629589.0,311918371018.4287,0.0,0.0,0.0,0.0,0.0
1.3579476910000003,2604587008164293.0,2604927463522651.5,340455358358.70544,0.0,0.0,0.0,0.0,0.0
1.5937424601000005,2825329564055049.5,2825698873502653.5,369309447603.68976,0.0,0.0,0.0,0.0,0.0
1.8531167061100007,3049756134761413.5,3050154779849682.5,398645088273.3982,0.0,0.0,0.0,0.0,0.0
2.138428376721001,3278937146902729.5,3279365749102573.5,428602199854.8659,0.0,0.0,0.0,0.0,0.0
2.452271214393101,3513817994494468.5,3514277298852819.5,459304358353.52313,0.0,0.0,0.0,0.0,0.0
2.7974983358324113,3755260024177103.0,3755750888330728.5,490864153626.49384,0.0,0.0,0.0,0.0,0.0
3.1772481694156527,4004068484435336.5,4004591871278068.0,523386842730.10724,0.0,0.0,0.0,0.0,0.0
3.594972986357218,4261012291191947.0,4261569264125494.0,556972933554.9476,0.0,0.0,0.0,0.0,0.0
4.05447028499294,4526838476330596.0,4527430196404040.0,591720073446.6023,0.0,0.0,0.0,0.0,0.0
4.5599173134922335,4802283081247469.0,4802910805720634.0,627724473142.706,0.0,0.0,0.0,0.0,0.0
5.115909044841457,5088079616302241.0,5088744698314787.0,665082012539.6295,0.0,0.0,0.0,0.0,0.0
5.727499949325603,5384965820686184.0,5385669709810471.0,703889124300.1835,0.0,0.0,0.0,0.0,0.0
6.400249944258164,5693689216599039.0,5694433460118896.0,744243519860.9983,0.0,0.0,0.0,0.0,0.0
7.140274938683981,6015011796618620.0,6015798041420764.0,786244802136.1812,0.0,0.0,0.0,0.0,0.0
7.95430243255238,6349714078262496.0,6350544073258004.0,829994995504.2806,0.0,0.0,0.0,0.0,0.0
8.84973267580762,6698598680721356.0,6699474279734708.0,875599013336.4513,0.0,0.0,0.0,0.0,0.0
9.834705943388382,7062493503970876.0,7063416669044427.0,923165073549.9417,0.0,0.0,0.0,0.0,0.0
10.918176537727222,7442254494385573.0,7443227299445695.0,972805060111.56,0.0,0.0,0.0,0.0,0.0
12.109994191499945,7838767830180929.0,7839792464989641.0,1024634808704.5513,0.0,0.0,0.0,0.0,0.0
13.42099361064994,8252951114222322.0,8254029888484958.0,1078774262644.4109,0.0,0.0,0.0,0.0,0.0
14.863092971714936,8685752783659454.0,8686888131055159.0,1135347395709.0483,0.0,0.0,0.0,0.0,0.0
16.44940226888643,9138148421599216.0,9139342903329238.0,1194481730022.5293,0.0,0.0,0.0,0.0,0.0
18.194342495775075,9611132022434340.0,9612388329628672.0,1256307194312.0898,0.0,0.0,0.0,0.0,0.0
20.113776745352585,1.010569963006711e+16,1.0107020584052304e+16,1320953985197.5945,0.0,0.0,0.0,0.0,0.0
22.225154419887843,1.0622822323771308e+16,1.0624210872807374e+16,1388549036070.997,0.0,0.0,0.0,0.0,0.0
24.54766986187663,1.1163405501429718e+16,1.1164864712124572e+16,1459210694854.5696,0.0,0.0,0.0,0.0,0.0
27.102436848064297,1.1728232015054026e+16,1.1729765056345036e+16,1533041291030.8794,0.0,0.0,0.0,0.0,0.0
29.91268053287073,1.2317888056955792e+16,1.2319498174403718e+16,1610117447946.2307,0.0,0.0,0.0,0.0,0.0
33.003948586157804,1.2932672714969178e+16,1.2934363193229598e+16,1690478260435.209,0.0,0.0,0.0,0.0,0.0
36.40434344477359,1.357249456061243e+16,1.3574268672389864e+16,1774111777472.7327,0.0,0.0,0.0,0.0,0.0
40.14477778925095,1.4236761108452418e+16,1.4238622049005438e+16,1860940552994.9194,0.0,0.0,0.0,0.0,0.0
44.25925556817605,1.4924269045829832e+16,1.4926219853127216e+16,1950807297417.289,0.0,0.0,0.0,0.0,0.0
48.78518112499366,1.5633104414217748e+16,1.5635147876047734e+16,2043461829968.8496,0.0,0.0,0.0,0.0,0.0
53.763699237493036,1.6360562240713598e+16,1.6362700791287074e+16,2138550573426.403,0.0,0.0,0.0,0.0,0.0
59.240069161242346,1.7103094507721542e+16,1.7105330117474578e+16,2235609753040.3623,0.0,0.0,0.0,0.0,0.0
65.26407607736658,1.7856294036822374e+16,1.7858628100112324e+16,2334063289938.8687,0.0,0.0,0.0,0.0,0.0
71.89048368510325,1.861492016473816e+16,1.8617353390895508e+16,2433226157333.1426,0.0,0.0,0.0,0.0,0.0
79.17953205361358,1.937297027385987e+16,1.9375502587590484e+16,2532313730544.523,0.0,0.0,0.0,0.0,0.0
87.19748525897495,2.0123799419888276e+16,2.0126429877312276e+16,2630457423984.777,0.0,0.0,0.0,0.0,0.0
96.01723378487245,2.0860288376807584e+16,2.086301510346456e+16,2726726656946.6294,0.0,0.0,0.0,0.0,0.0
105.7189571633597,2.1575058133088624e+16,2.157787828997983e+16,2820156891207.129,0.0,0.0,0.0,0.0,0.0
116.39085287969569,2.226072591826959e+16,2.2263635701366836e+16,2909783097220.9917,0.0,0.0,0.0,0.0,0.0
128.12993816766527,2.2910194033060636e+16,2.291318871056883e+16,2994677508183.572,0.0,0.0,0.0,0.0,0.0
141.04293198443182,2.3516958189818268e+16,2.352003217974264e+16,3073989924365.7944,0.0,0.0,0.0,0.0,0.0
155.247225182875,2.4075417189391336e+16,2.407856417758346e+16,3146988192129.7847,0.0,0.0,0.0,0.0,0.0
170.87194770116253,2.4581161363260344e+16,2.4584374459167644e+16,3213095907275.375,0.0,0.0,0.0,0.0,0.0
188.0591424712788,2.503121433567216e+16,2.5034486259688824e+16,3271924016668.0923,0.0,0.0,0.0,0.0,0.0
206.9650567184067,2.542420239974066e+16,2.542752569269862e+16,3323292958017.8223,0.0,0.0,0.0,0.0,0.0
227.76156239024738,2.576042904692614e+16,2.5763796289327972e+16,3367242401901.318,0.0,0.0,0.0,0.0,0.0
250.63771862927214,2.6041839356268796e+16,2.6045243382865828e+16,3404026596942.2896,0.0,0.0,0.0,0.0,0.0
275.8014904921994,2.6271869737944864e+16,2.6275303832674092e+16,3434094729227.285,0.0,0.0,0.0,0.0,0.0
303.4816395414193,2.6455191771313576e+16,2.6458649828751976e+16,3458057438417.856,0.0,0.0,0.0,0.0,0.0
333.92980349556126,2.6597372605446296e+16,2.6600849247873708e+16,3476642427433.4556,0.0,0.0,0.0,0.0,0.0
367.4227838451174,2.670448609147225e+16,2.670797673510434e+16,3490643632106.775,0.0,0.0,0.0,0.0,0.0
404.26506222962917,2.678271597702623e+16,2.6786216846379492e+16,3500869353246.942,0.0,0.0,0.0,0.0,0.0
444.7915684525921,2.6837993257125004e+16,2.6841501351978428e+16,3508094853417.364,0.0,0.0,0.0,0.0,0.0
489.3707252978514,2.6875703557993476e+16,2.68792165821015e+16,3513024107982.273,0.0,0.0,0.0,0.0,0.0
538.4077978276366,2.6900488258747604e+16,2.6904004522556544e+16,3516263808978.8945,0.0,0.0,0.0,0.0,0.0
592.3485776104003,2.6916147446827868e+16,2.6919665757508004e+16,3518310680059.8447,0.0,0.0,0.0,0.0,0.0
651.6834353714404,2.692563714840332e+16,2.69291566995178e+16,3519551114469.39,0.0,0.0,0.0,0.0,0.0
716.9517789085845,2.692563714840332e+16,2.69291566995178e+16,3519551114469.39,0.0,0.0,0.0,0.0,0.0
788.7469567994431,2.692563714840332e+16,2.69291566995178e+16,3519551114469.39,0.0,0.0,0.0,0.0,0.0
867.7216524793874,2.692563714840332e+16,2.69291566995178e+16,3519551114469.39,0.0,0.0,0.0,0.0,0.0
954.5938177273263,2.692563714840332e+16,2.69291566995178e+16,3519551114469.39,0.0,0.0,0.0,0.0,0.0
1050.153199500059,2.692563714840332e+16,2.69291566995178e+16,3519551114469.39,0.0,0.0,0.0,0.0,0.0
1155.2685194500648,2.692563714840332e+16,2.69291566995178e+16,3519551114469.39,0.0,0.0,0.0,0.0,0.0
1270.8953713950714,2.692563714840332e+16,2.69291566995178e+16,3519551114469.39,0.0,0.0,0.0,0.0,0.0
1398.0849085345785,2.692563714840332e+16,2.69291566995178e+16,3519551114469.39,0.0,0.0,0.0,0.0,0.0
1537.9933993880366,2.692563714840332e+16,2.69291566995178e+16,3519551114469.39,0.0,0.0,0.0,0.0,0.0
1691.8927393268402,2.692563714840332e+16,2.69291566995178e+16,3519551114469.39,0.0,0.0,0.0,0.0,0.0
1861.1820132595244,2.692563714840332e+16,2.69291566995178e+16,3519551114469.39,0.0,0.0,0.0,0.0,0.0
2047.400214585477,2.692563714840332e+16,2.69291566995178e+16,3519551114469.39,0.0,0.0,0.0,0.0,0.0
2252.2402360440246,2.692563714840332e+16,2.69291566995178e+16,3519551114469.39,0.0,0.0,0.0,0.0,0.0
2477.564259648427,2.692563714840332e+16,2.69291566995178e+16,3519551114469.39,0.0,0.0,0.0,0.0,0.0
2725.42068561327,2.692563714840332e+16,2.69291566995178e+16,3519551114469.39,0.0,0.0,0.0,0.0,0.0
2998.062754174597,2.692563714840332e+16,2.69291566995178e+16,3519551114469.39,0.0,0.0,0.0,0.0,0.0
3297.9690295920573,2.692563714840332e+16,2.69291566995178e+16,3519551114469.39,0.0,0.0,0.0,0.0,0.0
3627.8659325512635,2.692563714840332e+16,2.69291566995178e+16,3519551114469.39,0.0,0.0,0.0,0.0,0.0
3990.75252580639,2.692563714840332e+16,2.69291566995178e+16,3519551114469.39,0.0,0.0,0.0,0.0,0.0
4389.927778387029,2.692563714840332e+16,2.69291566995178e+16,3519551114469.39,0.0,0.0,0.0,0.0,0.0
4829.020556225732,2.692563714840332e+16,2.69291566995178e+16,3519551114469.39,0.0,0.0,0.0,0.0,0.0
5312.022611848306,2.692563714840332e+16,2.69291566995178e+16,3519551114469.39,0.0,0.0,0.0,0.0,0.0
5843.324873033137,2.692563714840332e+16,2.69291566995178e+16,3519551114469.39,0.0,0.0,0.0,0.0,0.0
6427.757360336452,2.692563714840332e+16,2.69291566995178e+16,3519551114469.39,0.0,0.0,0.0,0.0,0.0
7070.6330963700975,2.692563714840332e+16,2.69291566995178e+16,3519551114469.39,0.0,0.0,0.0,0.0,0.0
7777.796406007108,2.692563714840332e+16,2.69291566995178e+16,3519551114469.39,0.0,0.0,0.0,0.0,0.0
8555.67604660782,2.692563714840332e+16,2.69291566995178e+16,3519551114469.39,0.0,0.0,0.0,0.0,0.0
9411.343651268602,2.692563714840332e+16,2.69291566995178e+16,3519551114469.39,0.0,0.0,0.0,0.0,0.0
10352.578016395462,2.692563714840332e+16,2.69291566995178e+16,3519551114469.39,0.0,0.0,0.0,0.0,0.0
11387.93581803501,2.692563714840332e+16,2.69291566995178e+16,3519551114469.39,0.0,0.0,0.0,0.0,0.0
12526.829399838512,2.692563714840332e+16,2.69291566995178e+16,3519551114469.39,0.0,0.0,0.0,0.0,0.0
13779.612339822364,2.692563714840332e+16,2.69291566995178e+16,3519551114469.39,0.0,0.0,0.0,0.0,0.0
15157.673573804603,2.692563714840332e+16,2.69291566995178e+16,3519551114469.39,0.0,0.0,0.0,0.0,0.0
16673.540931185064,2.692563714840332e+16,2.69291566995178e+16,3519551114469.39,0.0,0.0,0.0,0.0,0.0
18340.99502430357,2.692563714840332e+16,2.69291566995178e+16,3519551114469.39,0.0,0.0,0.0,0.0,0.0
20175.19452673393,2.692563714840332e+16,2.69291566995178e+16,3519551114469.39,0.0,0.0,0.0,0.0,0.0
22192.813979407325,2.692563714840332e+16,2.69291566995178e+16,3519551114469.39,0.0,0.0,0.0,0.0,0.0
24412.19537734806,2.692563714840332e+16,2.69291566995178e+16,3519551114469.39,0.0,0.0,0.0,0.0,0.0
26853.51491508287,2.692563714840332e+16,2.69291566995178e+16,3519551114469.39,0.0,0.0,0.0,0.0,0.0
29538.966406591157,2.692563714840332e+16,2.69291566995178e+16,3519551114469.39,0.0,0.0,0.0,0.0,0.0
32492.963047250276,2.692563714840332e+16,2.69291566995178e+16,3519551114469.39,0.0,0.0,0.0,0.0,0.0
35742.359351975305,2.692563714840332e+16,2.69291566995178e+16,3519551114469.39,0.0,0.0,0.0,0.0,0.0
39316.695287172835,2.692563714840332e+16,2.69291566995178e+16,3519551114469.39,0.0,0.0,0.0,0.0,0.0
43248.464815890125,2.692563714840332e+16,2.69291566995178e+16,3519551114469.39,0.0,0.0,0.0,0.0,0.0
47573.41129747914,2.692563714840332e+16,2.69291566995178e+16,3519551114469.39,0.0,0.0,0.0,0.0,0.0
52330.85242722706,2.692563714840332e+16,2.69291566995178e+16,3519551114469.39,0.0,0.0,0.0,0.0,0.0
57564.03766994977,2.692563714840332e+16,2.69291566995178e+16,3519551114469.39,0.0,0.0,0.0,0.0,0.0
63320.54143694475,2.692563714840332e+16,2.69291566995178e+16,3519551114469.39,0.0,0.0,0.0,0.0,0.0
69652.69558063924,2.692563714840332e+16,2.69291566995178e+16,3519551114469.39,0.0,0.0,0.0,0.0,0.0
76618.06513870317,2.692563714840332e+16,2.69291566995178e+16,3519551114469.39,0.0,0.0,0.0,0.0,0.0
84279.97165257348,2.692563714840332e+16,2.69291566995178e+16,3519551114469.39,0.0,0.0,0.0,0.0,0.0
92708.06881783083,2.692563714840332e+16,2.69291566995178e+16,3519551114469.39,0.0,0.0,0.0,0.0,0.0
101978.97569961392,2.692563714840332e+16,2.69291566995178e+16,3519551114469.39,0.0,0.0,0.0,0.0,0.0
112176.97326957532,2.692563714840332e+16,2.69291566995178e+16,3519551114469.39,0.0,0.0,0.0,0.0,0.0
123394.77059653286,2.692563714840332e+16,2.69291566995178e+16,3519551114469.39,0.0,0.0,0.0,0.0,0.0
135734.34765618618,2.692563714840332e+16,2.69291566995178e+16,3519551114469.39,0.0,0.0,0.0,0.0,0.0
149307.8824218048,2.692563714840332e+16,2.69291566995178e+16,3519551114469.39,0.0,0.0,0.0,0.0,0.0
164238.77066398528,2.692563714840332e+16,2.69291566995178e+16,3519551114469.39,0.0,0.0,0.0,0.0,0.0
180662.74773038382,2.692563714840332e+16,2.69291566995178e+16,3519551114469.39,0.0,0.0,0.0,0.0,0.0
198729.12250342223,2.692563714840332e+16,2.69291566995178e+16,3519551114469.39,0.0,0.0,0.0,0.0,0.0
218602.13475376446,2.692563714840332e+16,2.69291566995178e+16,3519551114469.39,0.0,0.0,0.0,0.0,0.0
240462.44822914092,2.692563714840332e+16,2.69291566995178e+16,3519551114469.39,0.0,0.0,0.0,0.0,0.0
264508.79305205506,2.692563714840332e+16,2.69291566995178e+16,3519551114469.39,0.0,0.0,0.0,0.0,0.0
290959.7723572606,2.692563714840332e+16,2.69291566995178e+16,3519551114469.39,0.0,0.0,0.0,0.0,0.0
320055.84959298663,2.692563714840332e+16,2.69291566995178e+16,3519551114469.39,0.0,0.0,0.0,0.0,0.0
352061.53455228533,2.692563714840332e+16,2.69291566995178e+16,3519551114469.39,0.0,0.0,0.0,0.0,0.0
387267.7880075139,2.692563714840332e+16,2.69291566995178e+16,3519551114469.39,0.0,0.0,0.0,0.0,0.0
425994.6668082653,2.692563714840332e+16,2.69291566995178e+16,3519551114469.39,0.0,0.0,0.0,0.0,0.0
468594.23348909186,2.692563714840332e+16,2.69291566995178e+16,3519551114469.39,0.0,0.0,0.0,0.0,0.0
515453.7568380011,2.692563714840332e+16,2.69291566995178e+16,3519551114469.39,0.0,0.0,0.0,0.0,0.0
566999.2325218013,2.692563714840332e+16,2.69291566995178e+16,3519551114469.39,0.0,0.0,0.0,0.0,0.0
623699.2557739815,2.692563714840332e+16,2.69291566995178e+16,3519551114469.39,0.0,0.0,0.0,0.0,0.0
686069.2813513797,2.692563714840332e+16,2.69291566995178e+16,3519551114469.39,0.0,0.0,0.0,0.0,0.0
754676.3094865177,2.692563714840332e+16,2.69291566995178e+16,3519551114469.39,0.0,0.0,0.0,0.0,0.0
830144.0404351695,2.692563714840332e+16,2.69291566995178e+16,3519551114469.39,0.0,0.0,0.0,0.0,0.0
913158.5444786865,2.692563714840332e+16,2.69291566995178e+16,3519551114469.39,0.0,0.0,0.0,0.0,0.0
1004474.4989265553,2.692563714840332e+16,2.69291566995178e+16,3519551114469.39,0.0,0.0,0.0,0.0,0.0
1104922.0488192108,2.692563714840332e+16,2.69291566995178e+16,3519551114469.39,0.0,0.0,0.0,0.0,0.0
1215414.3537011321,2.692563714840332e+16,2.69291566995178e+16,3519551114469.39,0.0,0.0,0.0,0.0,0.0
1336955.8890712454,2.692563714840332e+16,2.69291566995178e+16,3519551114469.39,0.0,0.0,0.0,0.0,0.0
1470651.57797837,2.692563714840332e+16,2.69291566995178e+16,3519551114469.39,0.0,0.0,0.0,0.0,0.0
1617716.835776207,2.692563714840332e+16,2.69291566995178e+16,3519551114469.39,0.0,0.0,0.0,0.0,0.0
1779488.619353828,2.692563714840332e+16,2.69291566995178e+16,3519551114469.39,0.0,0.0,0.0,0.0,0.0
1957437.581289211,2.692563714840332e+16,2.69291566995178e+16,3519551114469.39,0.0,0.0,0.0,0.0,0.0
2153181.4394181324,2.692563714840332e+16,2.69291566995178e+16,3519551114469.39,0.0,0.0,0.0,0.0,0.0
2368499.6833599457,2.692563714840332e+16,2.69291566995178e+16,3519551114469.39,0.0,0.0,0.0,0.0,0.0
2605349.7516959403,2.692563714840332e+16,2.69291566995178e+16,3519551114469.39,0.0,0.0,0.0,0.0,0.0
2865884.8268655348,2.692563714840332e+16,2.69291566995178e+16,3519551114469.39,0.0,0.0,0.0,0.0,0.0
3152473.4095520885,2.692563714840332e+16,2.69291566995178e+16,3519551114469.39,0.0,0.0,0.0,0.0,0.0
3467720.8505072976,2.692563714840332e+16,2.69291566995178e+16,3519551114469.39,0.0,0.0,0.0,0.0,0.0
3814493.0355580277,2.692563714840332e+16,2.69291566995178e+16,3519551114469.39,0.0,0.0,0.0,0.0,0.0
4195942.439113831,2.692563714840332e+16,2.69291566995178e+16,3519551114469.39,0.0,0.0,0.0,0.0,0.0
4615536.783025214,2.692563714840332e+16,2.69291566995178e+16,3519551114469.39,0.0,0.0,0.0,0.0,0.0
5077090.561327737,2.692563714840332e+16,2.69291566995178e+16,3519551114469.39,0.0,0.0,0.0,0.0,0.0
5584799.717460511,2.692563714840332e+16,2.69291566995178e+16,3519551114469.39,0.0,0.0,0.0,0.0,0.0
6143279.789206563,2.692563714840332e+16,2.69291566995178e+16,3519551114469.39,0.0,0.0,0.0,0.0,0.0
6757607.868127219,2.692563714840332e+16,2.69291566995178e+16,3519551114469.39,0.0,0.0,0.0,0.0,0.0
7433368.754939942,2.692563714840332e+16,2.69291566995178e+16,3519551114469.39,0.0,0.0,0.0,0.0,0.0
8176705.730433936,2.692563714840332e+16,2.69291566995178e+16,3519551114469.39,0.0,0.0,0.0,0.0,0.0
8994376.40347733,2.692563714840332e+16,2.69291566995178e+16,3519551114469.39,0.0,0.0,0.0,0.0,0.0
9893814.143825063,2.692563714840332e+16,2.69291566995178e+16,3519551114469.39,0.0,0.0,0.0,0.0,0.0
10883195.658207571,2.692563714840332e+16,2.69291566995178e+16,3519551114469.39,0.0,0.0,0.0,0.0,0.0
11971515.32402833,2.692563714840332e+16,2.69291566995178e+16,3519551114469.39,0.0,0.0,0.0,0.0,0.0
13168666.956431163,2.692563714840332e+16,2.69291566995178e+16,3519551114469.39,0.0,0.0,0.0,0.0,0.0
14485533.75207428,2.692563714840332e+16,2.69291566995178e+16,3519551114469.39,0.0,0.0,0.0,0.0,0.0
15934087.22728171,2.692563714840332e+16,2.69291566995178e+16,3519551114469.39,0.0,0.0,0.0,0.0,0.0
17527496.050009884,2.692563714840332e+16,2.69291566995178e+16,3519551114469.39,0.0,0.0,0.0,0.0,0.0
19280245.755010873,2.692563714840332e+16,2.69291566995178e+16,3519551114469.39,0.0,0.0,0.0,0.0,0.0
21208270.430511963,2.692563714840332e+16,2.69291566995178e+16,3519551114469.39,0.0,0.0,0.0,0.0,0.0
23329097.573563162,2.692563714840332e+16,2.69291566995178e+16,3519551114469.39,0.0,0.0,0.0,0.0,0.0
25662007.43091948,2.692563714840332e+16,2.69291566995178e+16,3519551114469.39,0.0,0.0,0.0,0.0,0.0
28228208.27401143,2.692563714840332e+16,2.69291566995178e+16,3519551114469.39,0.0,0.0,0.0,0.0,0.0
31051029.201412573,2.692563714840332e+16,2.69291566995178e+16,3519551114469.39,0.0,0.0,0.0,0.0,0.0
31536000.0,2.692563714840332e+16,2.69291566995178e+16,3519551114469.39,0.0,0.0,0.0,0.0,0.0
