t(s),Total solute volume 1,Total retention volume 1,Total 1 volume 1,Total 2 volume 1,Total 3 volume 1,Total 4 volume 1,Total 5 volume 1,Total 6 volume 1
0.1,898666397951953.1,1036126891881881.2,66325422320955.914,71135071608968.8,0.0,0.0,0.0,0.0
0.202,1353983686357642.8,1561113407891396.0,99929785036611.28,107176286194951.72,44951140.13689184,81845844.22379361,1095154970.6142983,22428350235.844574
0.30604000000000003,1700744746818774.5,1960951584243234.8,125522233903127.44,134624595312221.34,114053371.73196718,207665382.07337198,2778714975.0432944,56907775383.13494
0.41216080000000005,1994045986256794.5,2299162922909858.5,147169119398320.78,157841224836205.2,202591456.66550735,368873223.45625013,4935798384.654567,101085155475.85542
0.5204040160000001,2254513220518236.5,2599527074676070.0,166392714925647.53,178458837260901.78,308473015.61693543,561659619.1621124,7515427482.932063,153916411164.43707
0.6308120963200001,2492422105164859.5,2873890874447047.0,183951407801283.34,197290815068180.12,430575867.0383395,783981331.5861874,10490262063.484999,214841593457.815
0.7434283382464002,2713744742032707.5,3129139582461798.0,200285964675261.16,214809887512857.53,568258572.350371,1034670447.6262506,13844674496.54501,283540637452.35266
0.8582969050113283,2922306848800806.5,3369683909877895.5,215678739869531.03,231318884103558.66,721159358.1919566,1313068261.4518979,17569850761.615963,359833025618.70935
0.9754628431115548,3120729983058475.0,3598546313814193.5,230323215542860.56,247025317537883.28,889097052.1196069,1618844900.7842343,21661376895.902626,443628356118.4438
1.094972099973786,3310901805085089.0,3817903162914004.5,244358709094685.25,262078607946096.06,1072016225.2111037,1951899443.9758132,26117902478.78296,534898969986.5162
1.2168715419732616,3494234237445696.5,4029382367828696.5,257889426447062.38,276590517839606.25,1269954231.6579497,2312299906.563815,30940337603.183407,633663504590.8446
1.3412089728127268,3671815722728123.0,4234238917316593.5,270995699316667.4,290647204264216.0,1483020182.1687925,2700244956.5977707,36131340595.84082,739976401845.7739
1.4680331522689813,3844506201572574.5,4433464376777495.0,283740994999463.8,304316736905861.9,1711380907.3717947,3116038357.1764207,41694976037.986885,853920904290.8923
1.597393815314361,4012999093880159.0,4627858345034217.0,296176490848902.8,317654004291349.75,1955251253.5708497,3560071297.2220526,47636478337.02188,975604212917.7677
1.729341691620648,4177863276348316.5,4818076849147227.0,308344172397512.3,330704036573123.7,2214887189.174028,4032809839.8541093,53962083775.781525,1105154047456.0288
1.863928525453061,4339572410163617.5,5004666155456350.0,320278997866018.75,343504326999775.1,2490580804.892722,4534785818.89146,60678908700.520294,1242716151604.6716
2.001207095962122,4498525979820743.0,5188087024571400.0,332010450918140.7,356086497270299.3,2782656631.4062185,5066590134.161802,67794859806.84924,1388452455645.34
2.1412312378813647,4655064733272939.0,5368732511814524.0,343563680209710.0,368477519718676.1,3091468899.177564,5628867762.255941,75318567379.68764,1542539709164.7925
2.284055862638992,4809482240019818.0,5546941292160710.0,354960352424963.3,380700632208886.6,3417399488.493449,6222314024.024448,83259335349.42703,1705168458181.0007
2.4297369798917723,4962033695070730.0,5723007810053336.0,366219302046689.5,392776035023737.25,3760856396.1565795,6847671792.7821245,91627103935.50812,1876542280064.9456
2.578331719489608,5112942729192358.0,5897190130751701.0,377357033981609.2,404721429938599.3,4122272596.5008545,7505729420.485707,100432421897.04779,2056877215218.8782
2.7298983538794,5262406749829043.0,6069716097763177.0,388388117743137.7,416552442988690.3,4502105208.783903,8197319221.756051,109686426247.86482,2246401351628.4424
2.884496320956988,5410601181690250.0,6240788221762586.0,399325500424869.7,428282960138125.75,4900834906.615129,8923316398.59266,119400827868.32028,2445354530183.858
3.0421862473761276,5557682871388690.0,6410587605797053.0,410180757977424.2,439925396778344.4,5318965521.61139,9684638318.73382,129587901849.20898,2653988146915.275
3.2030299723236504,5703792848155144.0,6579277128776161.0,420964298963733.94,451490916266153.3,5757023806.203836,10482244099.223106,140260485992.73492,2872565637237.498
3.3670905717701234,5849058586025350.0,6747004051154877.0,431685531507107.4,462989608948873.1,6215559322.529982,11317134342.63321,151431961049.15735,3101360018847.252
3.5344323832055258,5993595866321346.0,6913902165999666.0,442353000766972.94,474430639653658.94,6695144450.242647,12190351243.212976,163116276403.4414,3340657485587.8354
3.7051210308696363,6137510331676916.0,7080093588311079.0,452974503621378.3,485822370656414.44,7196374478.143007,13102978692.673883,175327935366.83447,3590755067839.5386
3.879223451487029,6280898785738580.0,7245690254232863.0,463557184593325.1,497172464571861.44,7719867780.66813,14056142616.771263,188082003698.86053,3851961314997.0566
4.0568079205167695,6423850289743260.0,7410795185491756.0,474107616782880.3,508487971154525.44,8266266063.464169,15051011422.455551,201394115590.57196,4124596418020.452
4.237944078927105,6566447093023739.0,7575503562395517.0,484631870542465.2,519775400954065.8,8836234670.865778,16088796557.741539,215280481156.04565,4408992362858.372
4.422702960505647,6708765427107770.0,7739903639588656.0,495135572084756.4,531040788173203.2,9430462948.813044,17170753172.518042,229757895274.5368,4705493111532.997
4.61115701971576,6850876187021688.0,7904077531786141.0,505623953765809.1,542289744597152.06,10049664658.026564,18298180870.8669,244843747657.10034,5014454808302.474
4.803380160110075,6992845518735559.0,8068101891316020.0,516101897441024.7,553527506093591.1,10694578433.285357,19472424547.326527,260556034036.46243,5336246008827.561
4.9994477633122765,7134735328048002.0,8232048495107777.0,526573972023022.8,564758972894084.5,11365968285.475573,20694875301.032124,276913368398.93756,5671247930679.486
5.199436718578522,7276603723352494.0,8395984755469610.0,537044466159683.1,575988744641795.8,12064624143.740612,21966971422.872757,293934996193.37,6019854723857.583
5.403425452950093,7418505402467863.0,8559974166393905.0,547517416783897.7,587221151011555.2,12791362435.605682,23290199451.79259,311640808465.28217,6382473760254.942
5.611493962009095,7560491991917085.0,8724076695056877.0,557996634153795.6,598460278565898.6,13547026703.393385,24666095297.171192,330051356875.21423,6759525941232.476
5.823723841249277,7702612345595874.0,8888349126514077.0,568485723895755.0,609709994396554.4,14332488255.615143,26096245424.888653,349187869569.2119,7151446022644.916
6.040198318074262,7844912808608192.0,9052845368253122.0,578988106476596.9,620973967008671.5,15148646852.329588,27582288105.23794,369072267876.88306,7558682956815.454
6.261002284435747,7987437451101737.0,9217616720174814.0,589507034461646.2,632255684830372.0,15996431423.716211,29125914721.31636,389727183818.71484,7981700251083.868
6.486222330124463,8130228276165253.0,9382712114685800.0,600045607858439.8,643558472669112.8,16876800821.330153,30728871136.92377,411175978409.63446,8420976342661.922
6.715946776726952,8273325405216375.0,9548178330855926.0,610606787799135.8,654885506386311.0,17790744601.690395,32392959123.33437,433442760750.35297,8877004989621.941
6.950265712261491,8416767243787608.0,9714060185991670.0,621193408776239.9,666239826020322.0,18739283842.01204,34120037844.59708,456552407901.85864,9350295677924.686
7.18927102650672,8560590630184741.0,9880400707480034.0,631808189614218.9,677624347553701.2,19723471988.031906,35912025401.27323,480530585541.8536,9841374044461.068
7.433056447036854,8704830969132872.0,1.0047241287339858e+16,642453743333164.9,689041873492114.5,20744395733.99773,37770900432.7375,505403769404.8222,10350782316142.502
7.681717575977592,8849522352223636.0,1.021462182157275e+16,653132586038293.1,700495102398491.9,21803175934.995426,39698703778.363365,531199267509.99927,10879079765127.182
7.935351927497144,8994697666724567.0,1.0382580836113324e+16,663847144950565.6,711986637505969.1,22900968551.88527,41697540198.08169,557945243183.8309,11426843180317.537
8.194058966047088,9140388694098936.0,1.0551155600933108e+16,674599765677849.4,723518994516355.5,24038965629.199677,43769580152.95999,585670738885.5272,11994667355304.604
8.45794014536803,9286626199403800.0,1.0720382233645034e+16,685392718812895.8,735094608676540.8,25218396306.432777,45917061646.58055,614405700846.176,12583165592974.201
8.72709894827539,9433440012581020.0,1.089029579377868e+16,696228205932946.4,746715841213188.2,26440527863.220062,48142292128.12914,644181004533.5902,13192970227023.217
9.0016409272409,9580859102525500.0,1.10609303687464e+16,707108365066312.8,758384985195718.1,27706666798.96942,50447650458.21317,675028480956.5182,13824733160666.645
9.281673745785717,9728911644704424.0,1.1232319152391654e+16,718035275682931.8,770104270888757.9,29018159947.564716,52835588938.5433,706980943823.3984,14479126422844.836
9.567307220701432,9877625083003536.0,1.1404494516900988e+16,729010963258907.5,781875870647701.8,30376395627.815796,55308635406.70288,740072217572.0719,15156842742267.336
9.85865336511546,1.002702618639665e+16,1.15774880787662e+16,740037403458963.2,793701903404430.1,31782804830.382328,57869395397.33172,774337166288.1155,15858596139656.428
10.155826432417769,1.0177141100962228e+16,1.1751330759401402e+16,751116525975477.2,805584438784760.8,33238862441.94439,60520554371.13196,809811723530.749,16585122538575.887
10.458942961066125,1.032799539770943e+16,1.192605284094871e+16,762250218058252.6,817525500894166.1,34746088507.44309,63264880013.19193,846532923086.2375,17337180395256.0
10.768121820287448,1.047961411662359e+16,1.2101684017745744e+16,773440327765267.0,829527071804269.5,36306049531.25489,66105224602.2056,884538930669.9514,18115551347845.324
11.083484256693197,1.0632021807293972e+16,1.2278253443873334e+16,784688666961174.2,841591094768769.6,37920359818.209366,69044527452.24051,923869076599.1755,18921040885543.77
11.405153941827061,1.0785242566446874e+16,1.2455789777156536e+16,795997014087399.5,853719477194425.2,39590682855.400116,72085817428.78519,964563889459.8417,19754479038090.477
11.733257020663602,1.0939300072671098e+16,1.263432121995109e+16,807367116725033.5,865914093389794.5,41318732735.780685,75232215540.88135,1006665130791.3473,20616721086101.16
12.067922161076874,1.109421761859259e+16,1.2813875557010928e+16,818800693969460.6,878176787112065.8,43106275624.57662,78486937611.21992,1050215830814.574,21508648292770.684
12.409280604298411,1.1250018140727596e+16,1.2994480190702362e+16,830299438633646.9,890509373930105.0,44955131269.58421,81853297026.14813,1095260325229.2128,22431168657472.996
12.75746621638438,1.140672424721955e+16,1.3176162173801838e+16,841865019295237.9,902913643420013.8,46867174556.4671,85334707567.61389,1141844293107.4368,23385217691814.88
13.112615540712067,1.1564358243643904e+16,1.335894824009078e+16,853499082201071.1,915391361207756.1,48844337110.19818,88934686329.1351,1190014795911.939,24371759218715.05
13.474867851526309,1.1722942157047132e+16,1.354286483293889e+16,865203253041356.5,927944270871971.4,50888608943.837555,92656856717.96115,1239820317667.263,25391786195102.473
13.844365208556836,1.1882497758368328e+16,1.3727938132048466e+16,876979138604474.4,940574095718802.9,53002040155.87004,96504951545.658,1291310806314.3354,26446321558845.68
14.221252512727972,1.2043046583378422e+16,1.3914194078515898e+16,888828328322404.2,953282540439353.4,55186742677.37094,100482816209.42526,1344537716279.0417,27536419100544.62
14.605677562982532,1.2204609952258194e+16,1.4101658398350396e+16,900752395715638.2,966071292659427.9,57444892070.303314,104594411966.51506,1399554052286.609,28663164360835.918
14.997791114242183,1.2367208987925298e+16,1.4290356624578352e+16,912752899745816.2,978942024390211.9,59778729378.29094,108843819304.20958,1456414414454.6233,29827675553882.742
15.397746936527026,1.253086463320952e+16,1.4480314118047536e+16,924831386083312.0,991896393387804.0,62190563031.252495,113235241407.86879,1515175044698.3103,31031104517739.945
15.805701875257567,1.2695597666966606e+16,1.4671556087037232e+16,936989388296525.0,1004936044428741.5,64682770805.31819,117773007729.64642,1575893874482.8508,32274637692303.555
16.221815912762718,1.2861428719213e+16,1.4864107605768886e+16,949228428968868.6,1018062610507988.4,67257801839.49589,122461577660.53937,1638630573958.3523,33559497125576.57
16.64625223101797,1.3028378285355502e+16,1.5057993631904356e+16,961550020748997.9,1031277713965327.1,69918178710.58972,127305544308.51085,1703446602514.201,34886941509001.56
17.079177275638333,1.3196466739584598e+16,1.5253239023110742e+16,973955667339279.6,1044582967545495.2,72666499567.91983,132309638385.50395,1770405260790.4492,36258267242631.05
17.5207608211511,1.3365714347492414e+16,1.5449868552764144e+16,986446864427063.6,1057979975396998.1,75505440329.42796,137478732206.23926,1839571744184.9368,37674809530929.164
17.97117603757412,1.3536141277972612e+16,1.5647906924858258e+16,999025100562927.2,1071470334014043.2,78437756940.80553,142817843801.76285,1911013197895.8855,39137943510016.26
18.430599558325603,1.370776761445331e+16,1.584737878817835e+16,1011691857989734.8,1085055633125717.6,81466287699.31064,148332141150.7964,1984798773540.7742,40649085407192.74
18.899211549492115,1.3880613365510438e+16,1.6048308749795622e+16,1024448613425939.4,1098737456536081.2,84593955643.9967,154026946532.01422,2060999687393.2588,42209693733598.57
19.37719578048196,1.4054698474904728e+16,1.6250721387932954e+16,1037296838806354.2,1112517382918667.0,87823771014.11072,159907741000.44806,2139689280281.1208,43821270510884.66
19.864739696091597,1.4230042831081406e+16,1.6454641264247858e+16,1050238001983265.4,1126396986568430.8,91158833777.46552,165980168991.32123,2220943079189.1396,45485362532798.28
20.36203449001343,1.4406666276168928e+16,1.6660092935576112e+16,1063273567390595.5,1140377838114086.8,94602336230.63861,172250043054.66205,2304838860612.0293,47203562662603.766
20.869275179813698,1.4584588614509898e+16,1.6867100965174076e+16,1076404996673494.4,1154461505193335.5,98157565672.88663,178723348724.15594,2391456715703.5244,48977511167282.68
21.38666068340997,1.4763829620753474e+16,1.7075689933496004e+16,1089633749285624.5,1168649553093474.0,101827907155.7205,185406249523.77188,2480879117268.903,50808897089481.54
21.91439389707817,1.4944409047537396e+16,1.7285884448538214e+16,1102961283056096.5,1182943545359446.8,105616846310.1198,192305092115.7618,2573190988649.2676,52699459658193.875
22.452681775019734,1.5126346632783528e+16,1.7497709155780404e+16,1116389054727937.9,1197345044371353.0,109527972253.41684,199426411593.73917,2668479774546.9546,54650989739188.85
23.00173541052013,1.5309662106629676e+16,1.7711188747750022e+16,1129918520469668.8,1211855611893116.8,113564980577.92108,206776936924.59683,2766835513842.6006,56665331326219.45
23.561770118730532,1.5494375198017018e+16,1.7926347973233966e+16,1143551136361503.0,1226476809593963.8,117731676423.39723,214363596543.12683,2868350914455.2866,58744383074060.08
24.133005521105144,1.5680505640950498e+16,1.814321164615827e+16,1157288358857375.5,1241210199543924.8,122031977635.54897,222193524103.24905,2973121430298.283,60890099874452.3
24.715665631527248,1.586807318044677e+16,1.83618046541542e+16,1171131645223928.8,1256057344684688.0,126469918012.70448,230274064389.84964,3081245340383.7397,63104494476043.336
25.309978944157795,1.6057097578181886e+16,1.858215196682547e+16,1185082453957352.5,1271019809276632.5,131049650642.9236,238612779395.2817,3192823830130.643,65389639149435.27
25.91617852304095,1.6247598617847966e+16,1.88042786437288e+16,1199142245178695.0,1286099159322840.5,135775451333.78857,247217454564.6343,3307961074930.8726,67747667398460.43
26.53450209350177,1.6439596110225234e+16,1.9028209842076308e+16,1213312481008243.8,1301296962970588.2,140651722137.1576,256096105213.9321,3426764326029.1235,70180775718825.39
27.165192135371807,1.6633109897972548e+16,1.925397082416427e+16,1227594625919052.2,1316614790890542.0,145682994971.18137,265256983125.44226,3549343998772.58,72691225405266.89
27.808495978079243,1.6828159860135874e+16,1.9481586964529516e+16,1241990147069696.5,1332054216633625.8,150873935341.8905,274708583324.3097,3675813763286.669,75281344408369.42
28.464665897640828,1.7024765916370652e+16,1.971108375682887e+16,1256500514615912.5,1347616816965263.8,156229346166.66943,284459651040.7148,3806290637633.17,77953529242195.16
29.133959215593645,1.7222948030869074e+16,1.994248682043369e+16,1271127202000426.8,1363304172176235.5,161754171701.90475,294519188861.7436,3940895083506.64,80710246943871.06
29.816638399905518,1.7422726215979154e+16,2.0175821906724824e+16,1285871686220077.5,1379117866369131.2,167453501577.0881,304896464077.10455,4079751104524.44,83554037086260.34
30.51297116790363,1.7624120535496138e+16,2.041111490506693e+16,1300735448068727.0,1395059487718939.2,173332574937.5925,315601016222.7496,4222986347164.667,86487513844831.75
31.223230591261704,1.7827151107602414e+16,2.0648391848436068e+16,1315719972354237.2,1411130628705702.2,179396784698.2928,326642664826.3314,4370732204404.6455,89513368119797.0
31.947695203086937,1.803183810742401e+16,2.0887678918664e+16,1330826748087150.8,1427332886316898.8,185651681910.1025,338031517358.3021,4523123922110.693,92634369714557.02
32.686649107148675,1.8238201769165292e+16,2.1129002451257256e+16,1346057268638244.0,1443667862216431.0,192102980241.39648,349777977392.20154,4680300708226.947,95853369571431.28
33.44038208929165,1.8446262387776012e+16,2.1372388939738076e+16,1361413031861563.2,1460137162876563.0,198756560576.14114,361892752977.4958,4842405844807.741,99173302065576.0
34.20918973107749,1.865604032009611e+16,2.1617865039445384e+16,1376895540178906.0,1476742399668550.0,205618475730.38724,374386865227.94885,5009586802933.861,102597187357918.19
34.993373525699035,1.8867555985414332e+16,2.186545757072299e+16,1392506300621059.8,1493485188906849.2,212694955288.56387,387271657128.1573,5181995360547.638,106128133807814.53
35.793240996213015,1.908082986536771e+16,2.211519352141162e+16,1408246824820374.8,1510367151841154.0,219992410560.76065,400558802560.42035,5359787723235.905,109769340446032.11
36.60910581613728,1.929588250309857e+16,2.2367100048548524e+16,1424118628948563.0,1527389914589691.0,227517439661.90356,414260315553.58435,5543124647982.79,113524099508490.8
37.44128793246003,1.9512734501575396e+16,2.262120447916784e+16,1440123233592750.2,1544555108006277.8,235276832713.36804,428388559754.85864,5732171569905.756,117395799031045.39
38.29011369110923,1.9731406520972364e+16,2.2877534310080004e+16,1456262163562082.0,1561864367472907.5,243277577167.20215,442956258124.91534,5927098731978.806,121387925505382.34
39.15591596493141,1.995191927499239e+16,2.313611720649722e+16,1472536947616353.2,1579319332608699.8,251526863252.6715,457976502855.75433,6128081317736.233,125504066595890.98
40.03903428423004,2.017429352600661e+16,2.3396980999358124e+16,1488949118107268.5,1596921646885139.0,260032089544.34088,473462765509.9087,6335299586937.398,129747913917112.98
40.93981496991464,2.0398550078872144e+16,2.366015368119235e+16,1505500210522193.8,1614672957136741.2,268800868650.3483,489428907378.5306,6548939014160.154,134123265871094.77
41.85861126931294,2.0624709773280252e+16,2.3925663400352016e+16,1522191762919387.5,1632574912955333.2,277841033018.89795,505889190054.78845,6769190430274.58,138634030543662.73
42.7957834946992,2.085279347447607e+16,2.419353845342674e+16,1539025315243081.5,1650629165955475.8,287160640860.32263,522858286217.7323,6996250166732.704,143284228658289.84
43.751699164593184,2.1082822062180996e+16,2.4463807275645736e+16,1556002408505919.5,1668837368897589.2,296767982181.3065,540351290620.44073,7230320202591.032,148077996585857.6
44.72673314788505,2.1314816417542548e+16,2.473649842906184e+16,1573124583825795.2,1687201174654971.5,306671584927.0724,558383731274.7856,7471608314163.543,153019589408210.7
