t(s),Total solute volume 1,Total retention volume 1,Total 1 volume 1,Total 2 volume 1,Total 3 volume 1,Total 4 volume 1,Total 5 volume 1,Total 6 volume 1
0.1,1388605447609674.5,1.2965503955258198e+16,3123970752525701.5,8452927755122823.0,0.0,0.0,0.0,-0.03849354864423057
0.202,1937462170274415.0,1.8598560318092492e+16,4358750944138261.0,1.1794184834041574e+16,561692340163.5186,4127890543223.113,100138978796995.47,403333807957854.25
0.30604000000000003,2342740021919069.0,2.3253746647056132e+16,5270514418099880.0,1.4261314282639426e+16,1372074534475.4792,10107192469821.861,264282105259198.34,1103416552134267.1
0.41216080000000005,2660799505578981.5,2.7369377377935304e+16,5986060317794340.0,1.6197495063176358e+16,2361051982789.595,17408114199248.486,473166598494014.3,2032086726709559.8
0.5204040160000001,2919953459689298.5,3.115345781315123e+16,6569084923395359.0,1.7775086294668272e+16,3489501652951.601,25739933370824.203,715560058012032.8,3144543642362498.5
0.6308120963200001,3136636135516372.0,3.4719744304804172e+16,7056560832337943.0,1.9094132961038788e+16,4732906472413.096,34920796919844.05,984261923662049.1,4408498748856772.0
0.7434283382464002,3321336010186683.5,3.813708792049642e+16,7472084254952337.0,2.0218484331452e+16,6074865082896.75,44829223287708.766,1274481895501520.0,5799797340033276.0
0.8582969050113283,3481178465673450.0,4.145057720657127e+16,7831685351819311.0,2.1191516531411596e+16,7503932696428.166,55380581883139.766,1583033803166872.0,7300278539920461.0
0.9754628431115548,3621208357044976.5,4.469158295575103e+16,8146713664924150.0,2.2043940322926396e+16,9011845644119.54,66513875284533.46,1907820959853391.8,8896373930073472.0
1.094972099973786,3745097234191239.5,4.788299494910143e+16,8425429173832558.0,2.2798106369975348e+16,10592422973412.838,78183553588956.27,2247462927472789.5,1.057812326706711e+16
1.2168715419732616,3855578969766031.0,5.104216666747463e+16,8673982339863563.0,2.3470657156524516e+16,12240882088701.895,90354414289373.9,2601031641214174.0,1.233832126372824e+16
1.3412089728127268,3954711188757344.5,5.418267667502539e+16,8897002251440923.0,2.4074118459995196e+16,13953333698393.559,102997840833456.0,2967881611782582.5,1.4172011988517512e+16
1.4680331522689813,4044107607152766.5,5.731543411208609e+16,9098119323262060.0,2.4618313741817956e+16,15726639327929.889,116090754643897.98,3347540632368446.0,1.6075535413513036e+16
1.597393815314361,4125054467711708.0,6.04494059959867e+16,9280227245054230.0,2.5111072958858684e+16,17558222021837.516,129614210962714.34,3739653228118436.5,1.804622566325909e+16
1.729341691620648,4198598961479963.5,6.359211373162346e+16,9445681905861716.0,2.555877083540212e+16,19445965800683.85,143552654777768.44,4143934179870990.5,2.008212922843021e+16
1.863928525453061,4265605403243831.0,6.67499808861714e+16,9596427773443266.0,2.5966668833854964e+16,21388123845268.016,157893240106305.44,4560138376953188.0,2.2181859134724556e+16
2.001207095962122,4326793804482261.5,6.992858158016405e+16,9734084672866574.0,2.633914996960897e+16,23383239119483.76,172625242700136.75,4988045128013949.0,2.4344499523372704e+16
2.1412312378813647,4382769812437413.0,7.313282144076363e+16,9860015141267908.0,2.667990106759621e+16,25430088486770.266,187739649735842.16,5427455791829569.0,2.656950988940993e+16
2.284055862638992,4434049731974679.5,7.636707268465355e+16,9975380720246160.0,2.699206508539127e+16,27527654406724.977,203228956286105.2,5878200605514005.0,2.8856619930834628e+16
2.4297369798917723,4481081203438407.0,7.963527776295438e+16,1.0081188475414086e+16,2.7278366991457932e+16,29675118129580.105,219087121601510.4,6340148512179633.0,3.12057303407332e+16
2.578331719489608,4524259155591270.0,8.294103083410947e+16,1.0178326886138996e+16,2.754121087925149e+16,31871862623144.926,235309596022433.62,6813214298853324.0,3.3616838155628796e+16
2.7298983538794,4563937003550576.0,8.628764277715144e+16,1.0267591037787656e+16,2.778274813405902e+16,34117473962280.97,251893333866333.22,7297359823285356.0,3.608999597064021e+16
2.884496320956988,4600433756977611.0,8.967819328240989e+16,1.034969861313563e+16,2.800492070273709e+16,36411734352404.62,268836741657324.66,7792589029756716.0,3.862530270379309e+16
3.0421862473761276,4634038169788525.0,9.311557242010278e+16,1.0425299228005454e+16,2.8209486353473196e+16,38754605215809.14,286139550850017.4,8298938610115282.0,4.122291590265451e+16
3.2030299723236504,4665011144126021.0,9.660251359367264e+16,1.049497983948139e+16,2.8398033308559656e+16,41146202700657.305,303802633665964.6,8816467080804836.0,4.38830733843341e+16
3.3670905717701234,4693587391019958.0,1.0014161958834082e+17,1.0559268481897764e+16,2.857199035270944e+16,43586769848535.26,321827794466269.3,9345244869193306.0,4.660611392920555e+16
3.5344323832055258,4719977011576406.0,1.0373538329441874e+17,1.0618637824059752e+16,2.873263645809662e+16,46076649742922.19,340217569375725.8,9885347175562712.0,4.939249060600463e+16
3.7051210308696363,4744367328313859.0,1.0738620450809694e+17,1.0673509289244258e+16,2.8881111932598868e+16,48616262930775.266,358975058823814.3,1.0436850353930856e+16,5.224277428225456e+16
3.879223451487029,4766925038748876.0,1.1109640396831134e+17,1.0724257900185358e+16,2.9018431530018456e+16,51206090935870.94,378103806393417.94,1.0999831657674638e+16,5.515764794435474e+16
4.0568079205167695,4787798603846784.0,1.1486823550435798e+17,1.0771217652446542e+16,2.9145498990171436e+16,53846666259047.23,397607726588394.94,1.157437158858487e+16,5.813789427646093e+16
4.237944078927105,4807120712819555.0,1.1870389688741749e+17,1.081468705955297e+16,2.9263122043735096e+16,56538568168859.91,417491075943573.9,1.2160557806053282e+16,6.118437962114414e+16
4.422702960505647,4825010659523141.0,1.2260553973598424e+17,1.0854934499242848e+16,2.9372026878862484e+16,59282422930219.086,437758457051688.0,1.275848954950779e+16,6.429803726886599e+16
4.61115701971576,4841576498380766.0,1.2657527864123302e+17,1.089220306370713e+16,2.947287126552261e+16,62078906876912.13,458414843375076.8,1.3368281714295956e+16,6.74798523490746e+16
4.803380160110075,4856916896942857.0,1.3061519955893226e+17,1.0926714727339284e+16,2.9566255832971724e+16,64928750812728.17,479465613411708.9,1.3990068003157424e+16,7.073084973429656e+16
4.9994477633122765,4871122651769241.0,1.3472736745321432e+17,1.0958673757047714e+16,2.965273329757526e+16,67832744504462.08,500916584968571.6,1.4624002870218e+16,7.405208554713104e+16
5.199436718578522,4884277874827491.0,1.3891383316118469e+17,1.0988269381316536e+16,2.9732815684807044e+16,70791740394569.83,522774043095797.44,1.5270262225482946e+16,7.744464221126027e+16
5.403425452950093,4896460885235108.0,1.4317663946057962e+17,1.101567779636918e+16,2.980697975747837e+16,73806656024625.7,545044757996374.3,1.5929043046384288e+16,8.090962656109168e+16
5.611493962009095,4907744856091499.0,1.4751782635110426e+17,1.1041063621350722e+16,2.987567095306017e+16,76878474969314.69,567735991549616.8,1.6600562143944034e+16,8.444817031013891e+16
5.823723841249277,4918198270719755.0,1.5193943559223843e+17,1.1064580924735442e+16,2.993930616079879e+16,80008246311010.72,590855492802389.8,1.7285054365323892e+16,8.806143213154723e+16
6.040198318074262,4927885240023772.0,1.5644351456839494e+17,1.1086373938283284e+16,2.9998275653400972e+16,83197082835506.22,614411483886613.8,1.7982770500391312e+16,9.175060066957347e+16
6.261002284435747,4936865725863294.0,1.6103211957205424e+17,1.1106577559564332e+16,3.0052944446643384e+16,86446158211359.12,638412638405823.6,1.8693975116999616e+16,9.551689792636638e+16
6.486222330124463,4945195706736505.0,1.6570731860548746e+17,1.1125317724693002e+16,3.0103653307822136e+16,89756703444891.62,662868054525296.6,1.9418944494532564e+16,9.936158261373306e+16
6.715946776726952,4952927313269329.0,1.7047119380252173e+17,1.1142711713137244e+16,3.0150719580441748e+16,93130002896494.06,687787224925973.9,2.0157964769763416e+16,1.0328595319808752e+17
6.950265712261491,4960108953011015.0,1.753258435653209e+17,1.1158868428471462e+16,3.019443794384227e+16,96567390115418.89,713180005548160.0,2.091133036031841e+16,1.0729135048401413e+17
7.18927102650672,4966785437291913.0,1.8027338449963414e+17,1.1173888683770046e+16,3.023508118540922e+16,100070243710226.62,739056584736244.5,2.167934269223832e+16,1.1137915967247819e+17
7.433056447036854,4972998117541133.0,1.8531595321767933e+17,1.1187865508283862e+16,3.0272901030392764e+16,103639983427799.03,765427454055137.6,2.2462309229834668e+16,1.1555081189414398e+17
7.681717575977592,4978785034422697.0,1.904557080627094e+17,1.1200884482955534e+16,3.0308129049775196e+16,107278066570129.86,792303381717510.5,2.326054278721203e+16,1.1980778526005637e+17
7.935351927497144,4984181080264582.0,1.9569483079482806e+17,1.1213024105840518e+16,3.034097764906875e+16,110985984837785.34,819695389258478.4,2.4074361089736308e+16,1.241516054958217e+17
8.194058966047088,4989218173325980.0,2.010355282647317e+17,1.122435618416105e+16,3.037164112918376e+16,114765261653531.77,847614731831403.4,2.4904086548482908e+16,1.285838462360931e+17
8.45794014536803,4993925441275639.0,2.0648003409129952e+17,1.123494624708261e+16,3.040029680337117e+16,118617449989808.61,876072882278934.8,2.575004620958484e+16,1.331061290577165e+17
8.72709894827539,4998329410658092.0,2.120306103504878e+17,1.1244853971961434e+16,3.042710615061519e+16,122544130699591.3,905081518957170.1,2.6612571842002604e+16,1.3772012332559358e+17
9.0016409272409,5002454198950401.0,2.1768954927675728e+17,1.1254133616419834e+16,3.0452215984793852e+16,126546911331473.11,934652517155387.5,2.7492000130477624e+16,1.424275459176287e+17
9.281673745785717,5006321705932796.0,2.2345917497402374e+17,1.1262834448877964e+16,3.047575961965923e+16,130627425396052.0,964797943855328.5,2.8388672944522476e+16,1.4723016088577984e+17
9.567307220701432,5009951801410007.0,2.2934184513056445e+17,1.1271001170875282e+16,3.049785801159893e+16,134787332041342.05,995530055507833.1,2.930293765870561e+16,1.5212977910042538e+17
9.85865336511546,5013362506747004.0,2.3533995273110256e+17,1.127867432547623e+16,3.0518620864739336e+16,139028316089317.08,1026861298465926.8,3.023514750384877e+16,1.5712825791573594e+17
10.155826432417769,5016570168163487.0,2.414559277590869e+17,1.1285890687134996e+16,3.0538147685876652e+16,143352088383185.75,1058804311697338.8,3.1185661932851172e+16,1.6222750088498006e+17
10.458942961066125,5019589620221382.0,2.476922388826916e+17,1.129268362949734e+16,3.055652877970527e+16,147760386394976.97,1091371931401271.6,3.2154846988558052e+16,1.6742945754691325e+17
10.768121820287448,5022434338408944.0,2.540513951190435e+17,1.129908346867247e+16,3.0573846177668896e+16,152254975044905.66,1124577197169815.5,3.314307566434159e+16,1.7273612329773683e+17
11.083484256693197,5025116580152806.0,2.60535947472417e+17,1.1305117780471126e+16,3.0590174496365376e+16,156837647687272.88,1158433359359909.2,3.4150728250838304e+16,1.781495393575422e+17
11.405153941827061,5027647513964707.0,2.6714849054347798e+17,1.1310811690949738e+16,3.060558172371974e+16,161510227221889.88,1192953887373911.5,3.5178192664601796e+16,1.836717928356462e+17
11.733257020663602,5030037336746142.0,2.7389166410799574e+17,1.1316188140313214e+16,3.062012993306782e+16,166274567294810.06,1228152478582897.8,3.622586475630999e+16,1.8930501689568086e+17
12.067922161076874,5032295379531699.0,2.8076815466467795e+17,1.1321268120807934e+16,3.0633875926859908e+16,171132553557211.9,1264043067664544.5,3.729414859765064e+16,1.9505139101860598e+17
12.409280604298411,5034430202152354.0,2.877806969528928e+17,1.132607088968766e+16,3.0646871812914424e+16,176086104956331.75,1300639836164999.8,3.838345674714673e+16,2.0091314135987027e+17
12.75746621638438,5036449677448039.0,2.9493207544197286e+17,1.1330614158668274e+16,3.065916551705317e+16,181137175037232.9,1337957222130294.0,3.949421049601923e+16,2.068925411956167e+17
13.112615540712067,5038361065760541.0,3.0222512579455526e+17,1.1334914261515866e+16,3.0670801236568076e+16,186287753238759.0,1376009929686480.5,4.0626840095767224e+16,2.1299191145201818e+17
13.474867851526309,5040171080498963.0,3.0966273630698944e+17,1.1338986301550626e+16,3.068181983934305e+16,191539866171177.34,1414812938478255.0,4.178178496952128e+16,2.1921362131142614e+17
13.844365208556836,5041885945598058.0,3.172478493302664e+17,1.134284428091195e+16,3.0692259213624124e+16,196895578866710.34,1454381512902919.8,4.2959493909433096e+16,2.2556008888892966e+17
14.221252512727972,5043511445690275.0,3.2498346267517677e+17,1.134650121343141e+16,3.070215457343497e+16,202356995997355.94,1494731211099951.0,4.416042526244399e+16,2.320337819730788e+17
14.605677562982532,5045052969791604.0,3.3287263100555725e+17,1.1349969222913634e+16,3.071153872450853e+16,207926263057110.34,1535877893676301.5,4.538504710675448e+16,2.3863721882485574e+17
14.997791114242183,5046515549264708.0,3.4091846722349997e+17,1.1353259628542646e+16,3.072044229538213e+16,213605567507945.38,1577837732163829.5,4.663383742122683e+16,2.45372969029412e+17
15.397746936527026,5047903890774576.0,3.491241438503458e+17,1.1356383019022824e+16,3.0728893938010484e+16,219397139890688.5,1620627217218309.2,4.7907284249814344e+16,2.5224365439561453e+17
15.805701875257567,5049222404896522.0,3.5749289440715283e+17,1.1359349316938794e+16,3.0736920501912756e+16,225303254903342.53,1664263166579560.5,4.920588586293966e+16,2.592519498989823e+17
16.221815912762718,5050475230976480.0,3.6602801479815264e+17,1.136216783468421e+16,3.074454718550632e+16,231326232450408.16,1708762732819608.2,5.0530150917560616e+16,2.664005846641551e+17
16.64625223101797,5051666258782605.0,3.7473286470049075e+17,1.1364847323171596e+16,3.0751797667907948e+16,237468438667489.44,1754143410910948.2,5.1880598617466856e+16,2.7369234298358323e+17
17.079177275638333,5052799147426361.0,3.836108689633161e+17,1.1367396014399652e+16,3.075869422411356e+16,243732286925900.38,1800423045650084.8,5.3257758875163144e+16,2.8113006536963738e+17
17.5207608211511,5053877341972993.0,3.926655190190399e+17,1.1369821658822058e+16,3.076525782611265e+16,250120238822220.0,1847619838973096.5,5.4662172476510984e+16,2.887166496378259e+17
17.97117603757412,5054904088106172.0,4.0190037430933376e+17,1.137213155833882e+16,3.0771508232157656e+16,256634805157772.22,1895752357200115.8,5.609439124912962e+16,2.964550520192437e+17
18.430599558325603,5055882445160436.0,4.113190637282072e+17,1.1374332595615694e+16,3.0777464066097852e+16,263278546912914.84,1944839538244845.2,5.755497823540037e+16,3.0434828830077485e+17
18.899211549492115,5056815297788684.0,4.209252870842675e+17,1.1376431260332662e+16,3.078314288840409e+16,270054076220802.88,1994900698823598.8,5.904450787077552e+16,3.123994349919223e+17
19.37719578048196,5057705366489947.0,4.30722816584067e+17,1.1378433672868634e+16,3.0788561260256204e+16,276964057345008.56,2045955541696166.5,6.056356616796621e+16,3.206116305174449e+17
19.864739696091597,5058555217185897.0,4.4071549833823386e+17,1.1380345605845842e+16,3.07937348018393e+16,284011207665037.4,2098024162968320.8,6.211275090747221e+16,3.289880764352575e+17
20.36203449001343,5059367270001848.0,4.509072538919254e+17,1.138217250388464e+16,3.079867824579786e+16,291198298673414.6,2151127059483004.8,6.369267183481862e+16,3.3753203867926605e+17
20.869275179813698,5060143807380012.0,4.613020817809757e+17,1.138391950185618e+16,3.080340548662501e+16,298528156987628.25,2205285136324395.0,6.530395086478201e+16,3.462468488270206e+17
21.38666068340997,5060886981628885.0,4.719040591149881e+17,1.1385591441866354e+16,3.0807929626619224e+16,306003665379840.8,2260519714456293.5,6.6947222292817064e+16,3.551359053922204e+17
21.91439389707817,5061598821992095.0,4.827173431884938e+17,1.1387192889158798e+16,3.0812263018916132e+16,313627763826914.7,2316852538513517.5,6.862313301383613e+16,3.642026751422502e+17
22.452681775019734,5062281241303311.0,4.937461731212167e+17,1.1388728147086582e+16,3.0816417308000156e+16,321403450582941.6,2374305784762464.5,7.033234274844473e+16,3.734506944410364e+17
23.00173541052013,5062936042279591.0,5.0499487152839034e+17,1.1390201271270586e+16,3.0820403468015544e+16,329333783276159.3,2432902069244630.5,7.20755242766978e+16,3.8288357061760595e+17
23.561770118730532,5063564923494354.0,5.164678462220151e+17,1.1391616083036908e+16,3.082423183912683e+16,337421880031834.9,2492664456114765.0,7.385336367940936e+16,3.92504983360801e+17
24.133005521105144,5064169485061615.0,5.281695919438897e+17,1.1392976182204976e+16,3.0827912162121964e+16,345670920622444.9,2553616466183396.5,7.566656058702525e+16,4.023186861406702e+17
24.715665631527248,5064751234056178.0,5.4010469213120896e+17,1.139428495928142e+16,3.0831453611407852e+16,354084147646249.2,2615782085671836.0,7.751582843604944e+16,4.123285076570962e+17
25.309978944157795,5065311589688541.0,5.5227782071549126e+17,1.1395545607102198e+16,3.0834864826512804e+16,362664867735162.06,2679185775186332.0,7.940189473300526e+16,4.225383533162611e+17
25.91617852304095,5065851888248935.0,5.64693743955577e+17,1.1396761131955342e+16,3.0838153942183576e+16,371416452792653.75,2743852478916781.5,8.132550132590146e+16,4.329522067355781e+17
26.53450209350177,5066373387831741.0,5.773573223054286e+17,1.1397934364209606e+16,3.0841328617145564e+16,380342341262290.9,2809807634064490.0,8.328740468317258e+16,4.435741312777421e+17
27.165192135371807,5066877272848977.0,5.902735123174509e+17,1.1399067968468578e+16,3.084439606157875e+16,389446039427390.94,2877077180502563.5,8.528837618006102e+16,4.5440827161456365e+17
27.808495978079243,5067364658340015.0,6.034473685820532e+17,1.1400164453266324e+16,3.0847363063353376e+16,398731122742199.4,2945687570671961.0,8.732920239241053e+16,4.654588553212689e+17
28.464665897640828,5067836594083426.0,6.168840457041741e+17,1.140122618031799e+16,3.085023601306105e+16,408201237194917.9,3015665779715681.0,8.941068539784542e+16,4.767301945019555e+17
29.133959215593645,5068294068516231.0,6.305888003174977e+17,1.140225537333698e+16,3.0853020927873316e+16,417860100702866.25,3087039315853253.5,9.153364308431722e+16,4.882266874468981e+17
29.816638399905518,5068738012465421.0,6.445669931371036e+17,1.1403254126429874e+16,3.085572347425742e+16,427711504540030.6,3159836230997467.5,9.36989094660045e+16,4.999528203224091e+17
30.51297116790363,5069169302696382.0,6.588240910512916e+17,1.1404224412079424e+16,3.085834898957766e+16,437759314797228.75,3234085131615101.5,9.590733500656506e+16,5.119131688939608e+17
31.223230591261704,5069588765283018.0,6.733656692533526e+17,1.1405168088726394e+16,3.086090250261108e+16,448007473875118.2,3309815189833451.5,9.815978694974398e+16,5.2411240028327955e+17
31.947695203086937,5069997178804304.0,6.881974134140613e+17,1.1406086907960954e+16,3.086338875300669e+16,458460002010273.5,3387056154794386.5,1.0045714965735462e+17,5.3655527476012986e+17
32.686649107148675,5070395277372311.0,7.033251218956809e+17,1.1406982521334862e+16,3.086581220971864e+16,469120998834571.6,3465838364257848.0,1.028003249546574e+17,5.4924664756950515e+17
33.44038208929165,5070783753496832.0,7.187547080082962e+17,1.1407856486806158e+16,3.086817708844495e+16,479994644968139.44,3546192756456747.0,1.0519023248317285e+17,5.621914707949504e+17
34.20918973107749,5071163260792070.0,7.344922023092975e+17,1.1408710274828408e+16,3.0870487368104316e+16,491085203646142.75,3628150882205467.0,1.0762781006097427e+17,5.7539479525874726e+17
34.993373525699035,5071534416530880.0,7.505437549468673e+17,1.1409545274097052e+16,3.0872746806385468e+16,502397022379714.4,3711744917264296.0,1.1011401405051715e+17,5.888617724596928e+17
35.793240996213015,5071897804052365.0,7.669156380483237e+17,1.1410362796965898e+16,3.087495895440337e+16,513934534651359.5,3797007674962438.0,1.1264981973407112e+17,6.025976565492166e+17
36.60910581613728,5072253975028692.0,7.836142481542138e+17,1.1411164084546776e+16,3.0877127170498624e+16,525702261645194.94,3883972619082350.5,1.1523622169683048e+17,6.166078063465812e+17
