t(s),Total solute volume 1,Total retention volume 1,Total 1 volume 1,Total 2 volume 1,Total 3 volume 1,Total 4 volume 1,Total 5 volume 1,Total 6 volume 1
0.1,878184692305091.0,1002349173156223.1,60489917771387.09,63674563079745.664,0.0,0.0,0.0,0.0
0.202,1323177374451709.8,1510266386707056.5,91141295674576.55,95939660948555.72,16901388.52658822,29900946.222741354,383201017.50042695,7625628862.405868
0.30604000000000003,1662069871185595.0,1897086485810676.2,114484425526479.02,120511749273526.72,42883963.3468967,75867802.56144129,972299302.4626526,19348774005.18483
0.41216080000000005,1948718746409919.2,2224279843238826.8,134228981627723.69,141295807758709.6,76174808.52786745,134764026.8808015,1727097083.3042858,34369406556.70744
0.5204040160000001,2203282168575894.8,2514854368839977.0,151763471396110.3,159753445341969.3,115987278.33974044,205197931.26440173,2629758767.091256,52332582023.85449
0.6308120963200001,2435802449400459.5,2780272032251158.0,167779615625239.3,176612800221068.34,161899528.94168866,286423214.29821223,3670719923.250818,73047961725.87564
0.7434283382464002,2652115988644047.5,3027194313247140.5,182679429228041.34,192297052407738.75,213670479.5870585,378013370.1773115,4844514552.793664,96406768908.19733
0.8582969050113283,2855961550818799.5,3259888526730718.5,196720440672554.34,207077288611718.25,271164207.53409576,479727932.5486197,6148060895.075685,122347674606.28065
0.9754628431115548,3049901106924082.5,3481278842375983.0,210079120144134.88,221139269740337.03,334312700.51550883,591446578.3388246,7579816916.719889,150839991234.35614
1.094972099973786,3235779417602777.5,3693470837342149.5,222882535924439.1,234616753908245.16,403095231.03899616,713132637.9648181,9139312666.829853,181874366153.72894
1.2168715419732616,3414976327099048.5,3898039455577635.5,235225732559064.0,247609789522942.9,477525963.92096907,844811171.3033355,10826869303.801216,215457190145.15173
1.3412089728127268,3588555560313194.5,4096198839174798.5,247181980092953.16,260195504117281.88,557646050.8989773,986554981.9399714,12643419857.312613,251607030477.60178
1.4680331522689813,3757357541466845.0,4288908267933923.5,258809167478849.72,272434834355179.97,643518353.4614049,1138475281.1076102,14590389579.645353,290352249839.8746
1.597393815314361,3922059965830151.0,4476941293446563.0,270153974796240.8,284376917907646.6,735223794.6314914,1300715233.4762347,16669613230.121433,331729360261.4203
1.729341691620648,4083218822496196.0,4660932560748863.0,281254698926040.2,296062067892304.6,832858767.5629141,1473445372.5924006,18883276320.517426,375781853868.91907
1.863928525453061,4241297054929897.0,4841410520222882.0,292143227707356.0,307523850964662.1,936533256.1993779,1656860276.0609765,21233872505.02675,422559354927.2686
2.001207095962122,4396685121141965.0,5018820894065668.0,302846456135295.56,318790578075250.7,1046369451.3133831,1851176117.1229556,23724172201.896687,472116995396.1783
2.1412312378813647,4549716082536155.0,5193543898022748.0,313387325690321.25,329886398517121.8,1162500720.8107548,2056628842.9797537,26357199247.292408,524514950331.69556
2.284055862638992,4700676899005252.0,5365907133104066.0,323785602351617.75,340832118899708.94,1285070839.5803418,2273472812.289775,29136213433.797497,579818090394.5953
2.4297369798917723,4849817032564196.0,5536195405390359.0,334058469220789.06,351645826972706.44,1414233413.6293926,2501979776.3839107,32064697453.930588,638095722020.4493
2.578331719489608,4997355102634321.0,5704658322088625.0,344220984942059.8,362343374180960.5,1550151452.5117314,2742438122.8322043,35146347205.88712,699421394499.3834
2.7298983538794,5143484105439340.0,5871516248737419.0,354286443217567.4,372938754107373.44,1692997056.9841068,2995152322.8655334,38385064711.83593,763872759046.7142
2.884496320956988,5288375557975306.0,6036965039142913.0,364266658249023.3,383444402948417.0,1842951198.1043572,3260442545.072491,41784954260.007805,831531622164.0082
3.0421862473761276,5432182825755040.0,6201179832894881.0,374172193945240.56,393871440764371.25,2000203567.3817601,3538644372.34746,45350314419.76685,902483267862.4087
3.2030299723236504,5575043820392686.0,6364318135301712.0,384012549748046.44,404229867125678.3,2164952490.4710584,3830108676.046711,49085642945.085014,976817331180.7472
3.3670905717701234,5717083208900223.0,6526522338378228.0,393796312800190.06,414528721267055.8,2337404886.0637183,4135201525.42036,52995631282.10855,1054627173082.1943
3.5344323832055258,5858414236743302.0,6687921801824081.0,403531283521080.06,424776214280829.1,2517776268.0287886,4454304195.851239,57085165754.78069,1136010032645.687
3.7051210308696363,5999140244503784.0,6848634584140934.0,413224580075453.5,434979839085616.6,2706290782.2167773,4787813233.9686165,61359328399.32542,1221067043674.9194
3.879223451487029,6139355938584662.0,7008768893031639.0,422882725900334.3,445146462561377.1,2903181273.472104,5136140576.205422,65823398483.64303,1309903264933.883
4.0568079205167695,6279148462901077.0,7168424308659397.0,432511723523795.94,455282403254540.9,3108689379.0209675,5499713714.0174675,70482854624.71657,1402627722283.104
4.237944078927105,6418598308284250.0,7327692821686049.0,442117117205283.94,465393497316184.6,3323065645.190124,5878975900.378443,75343377434.9965,1499353461342.6494
4.422702960505647,6557780088588947.0,7486659719176874.0,451704046394370.0,475485154775278.9,3546569665.02712,6274386393.252749,80410852642.68483,1600197609585.9185
4.61115701971576,6696763206577586.0,7645404344707436.0,461277291597292.6,485562407819968.6,3779470234.877631,6686420732.60624,85691374641.83241,1705281446986.8345
4.803380160110075,6835612428087267.0,7804000753793461.0,470841313925935.8,495629952428717.44,4022045528.3608932,7115571048.19687,91191250436.90335,1814730484517.0583
4.9994477633122765,6974388379429194.0,7962518281707052.0,480400289359018.3,505692184435265.0,4274583286.4934373,7562346395.934268,96917003953.47076,1928674549929.3027
5.199436718578522,7113147980179324.0,8121022037556501.0,489958138552984.2,515753230908984.9,4537381022.961273,8027273121.039009,102875380692.37308,2047247880375.5696
5.403425452950093,7251944821311012.0,8279573335986914.0,499518552888026.56,525816977572166.8,4810746243.74414,8510895246.593154,109073352709.2764,2170589221501.0813
5.611493962009095,7390829496863124.0,8438230075853187.0,509085017313587.0,535887092848279.56,5094996680.462992,9013774886.369238,115518123905.38237,2298841932730.0415
5.823723841249277,7529849895926499.0,8597047073607503.0,518660830460578.94,545967049033052.06,5390460536.960031,9536492681.069695,122217135618.16127,2432154098522.005
6.040198318074262,7669051460595342.0,8756076357845250.0,528249122409233.94,556060140997745.2,5697476748.736202,10079648257.313408,129178072503.60368,2570678645429.439
6.261002284435747,7808477414605649.0,8915367430400075.0,537852870437866.75,566169502767066.8,6016395254.96803,10643860708.87676,136408868703.68204,2714573464831.0854
6.486222330124463,7948168966630796.0,9074967498518238.0,547474913026002.3,576298122259515.2,6347577282.907501,11229769099.842825,143917714294.57904,2864001541252.581
6.715946776726952,8088165491584642.0,9234921681937274.0,557117962342648.9,586448854433131.0,6691395644.539225,11838032989.435,151713062012.82205,3019131086217.459
6.950265712261491,8228504692773581.0,9395273198111572.0,566784615415434.0,596624433042666.6,7048235045.428471,12469332978.419077,159803634257.82962,3180135677598.801
7.18927102650672,8369222747315999.0,9556063528345222.0,576477364147182.5,606827481183513.9,7418492405.746996,13124371277.049355,168198430370.5629,3347194404465.357
7.433056447036854,8510354436895612.0,9717332567191296.0,586198604322309.1,617060520772240.4,7802577193.507818,13803872294.614485,176906734188.9921,3520492017436.3813
7.681717575977592,8651933265621536.0,9879118757140348.0,595950643725063.1,627325981092277.4,8200911770.081338,14508583250.711185,185938121882.02432,3700219084577.8486
7.935351927497144,8793991566520526.0,1.0041459210340194e+16,605735709474812.2,637626206515351.2,8613931748.100054,15239274808.435472,195302470064.32086,3886572152888.305
8.194058966047088,8936560597978942.0,1.0204389818849902e+16,615555954669011.9,647963463494207.5,9042086361.891495,15996741729.738556,205009964195.16455,4079753915437.5654
8.45794014536803,9079670631275818.0,1.0367945354731638e+16,625413464412529.8,658339946909365.1,9485838850.60774,16781803553.244707,215071107265.20642,4279973384233.9116
8.72709894827539,9223351030198660.0,1.0532159561112038e+16,635310261301654.2,668757785841837.2,9945666854.24571,17595305294.876072,225496728775.48706,4487446068907.848
9.0016409272409,9367630323606806.0,1.0697065235199864e+16,645248310422283.9,679219048834468.1,10422062822.777552,18438118171.670353,236297994013.7037,4702394161310.892
9.281673745785717,9512536271697256.0,1.086269430412287e+16,655229523914379.5,689725748696686.1,10915534438.63178,19311140349.219074,247486413633.18344,4925046726138.346
9.567307220701432,9658095926635728.0,1.1029077894338634e+16,665255765148240.1,700279846900663.9,11426605052.786901,20215297713.1889,259073853540.50565,5155639897694.017
9.85865336511546,9804335688133788.0,1.1196246395284402e+16,675328852552727.8,710883257611075.0,11955814134.76026,21151544665.425034,271072545098.15955,5394417082924.429
10.155826432417769,9951281354485250.0,1.1364229517850654e+16,685450563130661.0,721537851385569.1,12503717736.790998,22120864945.16824,283495095649.0463,5641629170857.357
10.458942961066125,1.00989581695136e+16,1.1533056348194398e+16,695622635692593.5,732245458578804.1,13070888972.53684,23124272475.947193,296354499370.0456,5897534748589.155
10.768121820287448,1.0247390865831116e+16,1.1702755397349822e+16,705846773836519.5,743007872479024.0,13657918510.619062,24162812238.74202,309664148462.2462,6162400323971.39
11.083484256693197,1.039660370476435e+16,1.1873354647041396e+16,716124648697986.5,753826852202956.5,14265415083.368176,25237561172.039745,323437844685.8343,6436500555156.234
11.405153941827061,1.0546620513262144e+16,1.204488159205988e+16,726457901492317.4,764704125371880.4,14894006011.138927,26349629099.434185,337689811247.9738,6720118487166.513
11.733257020663602,1.0697464718066566e+16,1.2217363279522318e+16,736848145868350.0,775641390589279.5,15544337742.578173,27500159685.450474,352434705052.41376,7013545795663.892
12.067922161076874,1.0849159377398046e+16,1.2390826345302428e+16,747296970090909.8,786640319738225.2,16217076411.246157,28690331420.301453,367687629319.86993,7317083038095.615
12.409280604298411,1.100172721037892e+16,1.2565297047887258e+16,757805939067534.1,797702560114784.5,16912908409.006336,29921358634.30966,383464146588.6069,7631039912407.17
12.75746621638438,1.1155190624395968e+16,1.274080129989035e+16,768376596233221.1,808829736412023.6,17632540976.61412,31194492542.759426,399780292104.99194,7955735523515.181
13.112615540712067,1.1309571740582892e+16,1.2917364697426678e+16,779010465305671.1,820023452567629.4,18376702811.951317,32511022321.96559,416652587614.1196,8291498657741.975
13.474867851526309,1.1464892417583942e+16,1.3095012547534954e+16,789709051922144.6,831285293486973.9,19146144696.366856,33872276217.376564,434098055560.9817,8638668065419.661
13.844365208556836,1.1621174273745586e+16,1.3273769893814192e+16,800473845168040.8,842616826652136.1,19941640139.600567,35279622684.55476,452134233712.9807,8997592751878.943
14.221252512727972,1.177843870786704e+16,1.3453661540424614e+16,811306319006202.6,854019603626488.0,20763986043.78263,36734471563.904434,470779190214.9438,9368632277044.6
14.605677562982532,1.1936706918629142e+16,1.3634712074589352e+16,822207933615195.2,865495161463406.8,21614003387.01519,38238275290.04485,490051539088.14374,9752157063866.572
14.997791114242183,1.2095999922808856e+16,1.3816945887719812e+16,833180136643932.1,877045024026962.1,22492537927.05982,39792530136.75473,509970456185.1873,10148548715822.828
15.397746936527026,1.225633857237706e+16,1.4000387195275844e+16,844224364389371.0,888670703231623.6,23400460925.66996,41398777498.440926,530555695612.99207,10558200343736.475
15.805701875257567,1.2417743570568076e+16,1.418506005546282e+16,855342042903408.4,900373700207411.9,24338669894.12191,43058605209.11215,551827606636.4219,10981516902158.373
16.221815912762718,1.2580235487000954e+16,1.4370988386856564e+16,866534589034429.0,912155506396299.8,25308089360.516685,44773648899.869545,573807151075.5292,11418915535571.74
16.64625223101797,1.2743834771925918e+16,1.4558195985040678e+16,877803411408629.2,924017604585192.5,26309671659.438583,46545593395.95033,596515921209.7091,11870825934684.29
17.079177275638333,1.2908561769662862e+16,1.4746706538332006e+16,889149911355645.2,935961469880291.5,27344397744.575306,48376174154.39513,619976158202.478,12337690703079.887
17.5207608211511,1.3074436731291624e+16,1.4936543642663874e+16,900575483782682.8,947988570627234.5,28413278024.9184,50267178743.43442,644210771060.8912,12819965734509.65
17.97117603757412,1.3241479826650048e+16,1.5127730815690892e+16,912081518000953.9,960100369281055.5,29517353225.1835,52220448364.723076,669243356144.109,13318120601109.809
18.430599558325603,1.3409711155690478e+16,1.5320291510172742e+16,923669398507903.6,972298323229592.1,30657695271.102192,54237879419.579384,695098217235.8947,13832638952841.418
18.899211549492115,1.3579150759240226e+16,1.5514249126690318e+16,935340505728411.9,984583885573700.6,31835408200.259346,56321425120.41846,721800386196.3129,14364018928455.113
19.37719578048196,1.3749818629208378e+16,1.5709627025742284e+16,947096216717839.0,996958505867318.9,33051629099.16356,58473097148.59697,749375644208.2175,14912773578290.998
19.864739696091597,1.392173471827738e+16,1.590644853926643e+16,958937905829588.9,1009423630820184.5,34307529067.25746,60694967359.92158,777850543634.5603,15479431299232.896
20.36203449001343,1.4094918949113988e+16,1.6104736981625636e+16,970866945349570.0,1021980704965679.8,35604314208.59207,62989169539.099106,807252430502.9447,16064536282143.094
20.869275179813698,1.4269391223131638e+16,1.6304515660095126e+16,982884706099741.4,1034631171296172.1,36943226651.90651,65357901204.44278,837609467634.2052,16668648972111.191
21.38666068340997,1.4445171428832224e+16,1.6505807884884162e+16,994992558012712.0,1047376471867857.6,38325545599.8716,67803425464.17469,868950658432.2437,17292346541860.426
21.91439389707817,1.4622279449753432e+16,1.6708636978720892e+16,1007191870679148.6,1060218048376977.4,39752588408.27156,70328072925.6966,901305871352.6534,17936223378659.395
22.452681775019734,1.4800735172043598e+16,1.6913026286027754e+16,1019484013869544.4,1073157342709077.6,41225711695.91801,72934243659.2303,934705865068.1321,18600891585097.203
23.00173541052013,1.4980558491684464e+16,1.711899918170903e+16,1031870358031726.8,1086195797462678.5,42746312486.1001,75624409217.25473,969182314348.9264,19286981494084.625
23.561770118730532,1.516176932137797e+16,1.7326579079571002e+16,1044352274765207.9,1099334856448642.6,44315829380.39436,78401114711.19327,1004767836676.9893,19995142198453.08
24.133005521105144,1.5344387597110678e+16,1.753578944039004e+16,1056931137273373.4,1112575965166127.4,45935743765.66898,81266980946.82765,1041496019612.6987,20726042095525.43
24.715665631527248,1.552843328440688e+16,1.774665377964067e+16,1069608320794176.0,1125920571255972.5,47607581055.12572,84224706619.93515,1079401448933.364,21480369447041.516
25.309978944157795,1.571392638427588e+16,1.7959195674892508e+16,1082385203009796.1,1139370124931936.2,49332911964.23636,87277070573.6591,1118519737562.8716,22258832954821.91
25.91617852304095,1.5900886938857644e+16,1.8173438772879028e+16,1095263164435537.8,1152926079390039.5,51113353822.43215,90426934119.13596,1158887555311.9414,23062162352558.414
26.53450209350177,1.6089335036765232e+16,1.8389406796237824e+16,1108243588787773.9,1166589891195909.2,52950571921.40984,93677243420.90417,1200542659448.5947,23891109014119.074
27.165192135371807,1.6279290818118014e+16,1.8607123549916176e+16,1121327863330681.0,1180363020649759.5,54846280900.91471,97031031948.62006,1243523926118.3176,24746446578756.27
27.808495978079243,1.6470774479255198e+16,1.882661292722958e+16,1134517379200889.8,1194246932128115.0,56802246172.85409,100491422996.58553,1287871382633.2585,25628971593601.652
28.464665897640828,1.6663806277113546e+16,1.9047898915555996e+16,1147813531709026.5,1208243094401260.5,58820285384.581085,104061632272.58257,1333626240649.5679,26539504173826.895
29.133959215593645,1.685840653324646e+16,1.92710056016392e+16,1161217720616545.2,1222352980924621.0,60902269922.17193,107744970557.45891,1380830930251.4087,27478888680839.41
29.816638399905518,1.7054595637455426e+16,1.9495957176470156e+16,1174731350385880.2,1236578070102097.0,63050126454.48527,111544846436.87233,1429529134959.6697,28447994418870.445
30.51297116790363,1.7252394050997508e+16,1.972277793970309e+16,1188355830401363.8,1250919845518596.2,65265838518.76103,115464769106.525,1479765827682.4111,29447716350294.363
31.223230591261704,1.7451822309324134e+16,1.995149230355765e+16,1202092575157873.0,1265379796138652.0,67551448148.46493,119508351252.14113,1531587307623.1597,30478975829997.98
31.947695203086937,1.7652901024298176e+16,2.018212479614574e+16,1215943004413572.0,1279959416467139.5,69909057544.02466,123679312005.33148,1585041238161.6494,31542721359091.457
32.686649107148675,1.7855650885827318e+16,2.0414700064152144e+16,1229908543302379.0,1294660206667738.5,72340830787.03322,127981479976.35999,1640176685719.9944,32639929358217.266
33.44038208929165,1.806009266284069e+16,2.0649242874787932e+16,1243990622401265.5,1309483672633715.5,74848995598.40456,132418796364.67442,1697044159625.4438,33771604960678.26
34.20918973107749,1.826624720352731e+16,2.088577811692107e+16,1258190677746674.5,1324431326005235.5,77435845140.86473,136995318147.87758,1755695652978.2314,34938782825554.72
34.993373525699035,1.847413543474255e+16,2.112433080127913e+16,1272510150793623.0,1339504684126320.8,80103739866.04076,141715221349.6038,1816184684530.6318,36142527970929.68
35.793240996213015,1.868377836047797e+16,2.136492605960484e+16,1286950488310329.8,1354705269933885.8,82855109406.2735,146582804386.52267,1878566341579.8745,37383936627277.07
36.60910581613728,1.8895197059279784e+16,2.1607589142631636e+16,1301513142200371.8,1370034611770576.0,85692454511.11577,151602491494.40237,1942897323874.2717,38664137110996.125
37.44128793246003,1.9108412680488216e+16,2.185234541673576e+16,1316199569243658.8,1385494243112092.2,88618349028.30469,156778836232.86444,2009235988527.6267,39984290717996.17
38.29011369110923,1.932344643915974e+16,2.2099220359105468e+16,1331011230746679.2,1401085702199002.8,91635441928.79266,162116525068.08688,2077642395932.503,41345592637141.445
39.15591596493141,1.9540319609523556e+16,2.234823955125797e+16,1345949592091768.0,1416810531562309.8,94746459375.20424,167620381032.33856,2148178356658.06,42749272883272.77
40.03903428423004,1.9759053516812504e+16,2.2599428670721068e+16,1361016122174421.0,1432670277431118.5,97954206832.82947,173295367458.7807,2220907479312.298,44196597249404.26
40.93981496991464,1.9979669527299136e+16,2.2852813480686216e+16,1376212292716969.0,1448666489010179.2,101261571222.01173,179146591789.49985,2295895219342.756,45688868277575.48
41.85861126931294,2.020218903635984e+16,2.3108419817429764e+16,1391539577446432.8,1464800717614466.0,104671523110.48483,185179309454.23306,2373208928742.9565,47227426247712.58
42.7957834946992,2.0426633454381544e+16,2.33662735752897e+16,1406999451123758.5,1481074515647310.2,108187118943.90897,191398927816.6692,2452917906624.8643,48813650183703.305
43.751699164593184,2.0653024190319508e+16,2.362640068897883e+16,1422593388411276.0,1497489435408215.2,111811503312.51263,197811010184.6464,2535093450609.993,50448958875744.41
44.72673314788505,2.088138263271147e+16,2.3888827113010652e+16,1438322862564947.5,1514047027716247.0,115547911251.40077,204421279879.91205,2619808908983.74,52134811917859.125
