t(s),Total solute volume 1,Total retention volume 1,Total 1 volume 1,Total 2 volume 1,Total 3 volume 1,Total 4 volume 1,Total 5 volume 1,Total 6 volume 1
0.1,1388605447609674.5,1.2965503955258198e+16,3123970752525701.5,8452927755122823.0,0.0,0.0,0.0,-0.03849354864423057
0.202,1973818470646357.5,1.8433107730299188e+16,4440542478477990.0,1.2015500958689746e+16,3576783272.8780446,26287391688.24279,639131678549.4889,2576826631575.806
0.30604000000000003,2443778541147910.5,2.282698864865034e+16,5497822994726406.0,1.4876380545421592e+16,8946140349.498167,65903001300.8534,1725707150136.2893,7206011062637.124
0.41216080000000005,2847494344719671.0,2.6604470532858692e+16,6406071914663780.0,1.7333992067338614e+16,15793457525.480434,116452005352.52374,3171238606947.088,13608722066793.283
0.5204040160000001,3208198892617243.5,2.998230543844116e+16,7217557304608085.0,1.952977112532336e+16,23964632341.255497,176788842231.2772,4932365060961.46,21644997356943.137
0.6308120963200001,3538622670566729.5,3.3079262932808372e+16,7960919298034087.0,2.1541215734717644e+16,33375000540.75184,246285433048.3508,6985327120683.65,31240241935648.074
0.7434283382464002,3846480329464722.0,3.5967322226688716e+16,8653513747887405.0,2.3415289188893108e+16,43975610706.710915,324578824130.5075,9316216128693.73,42354189879949.44
0.8582969050113283,4136821172965895.0,3.869360157088507e+16,9306700200117790.0,2.518272923237651e+16,55738491009.72739,411461585550.87866,11916802260546.838,54966963087802.8
0.9754628431115548,4413149264482755.5,4.129080802899655e+16,9928361832530824.0,2.6864866875416716e+16,68649262935.03587,506826976163.16876,14782475513257.125,69072104813902.18
1.094972099973786,4678008535618400.0,4.378269574107807e+16,1.052422178973437e+16,2.84771882952779e+16,82703023637.15547,610638406945.1985,17911110509100.496,84672668507697.05
1.2168715419732616,4933312622536808.0,4.618714261342676e+16,1.1098585224881808e+16,3.003134273487519e+16,97901861568.18071,722911028730.4193,21302387073909.266,101778831168736.92
1.3412089728127268,5180542740386255.0,4.851799594070759e+16,1.165478446290715e+16,3.153634707108727e+16,114253266062.56601,843699950404.0599,24957358176866.82,120406354933576.77
1.4680331522689813,5420872591301400.0,5.078623736049294e+16,1.219546000923034e+16,3.2999346195348536e+16,131769062153.12842,973092350444.2032,28878162362863.668,140575540837211.1
1.597393815314361,5655250595881694.0,5.300074972687332e+16,1.2722745547968058e+16,3.4426113598992852e+16,150464671707.9527,1111202006318.4675,33067825401848.605,162310491950854.84
1.729341691620648,5884455963529025.0,5.516883997454019e+16,1.3238394084754464e+16,3.582139270183505e+16,170358586667.95532,1258165394913.7493,37530119553242.08,185638580886831.84
1.863928525453061,6109138077767456.0,5.729660636832226e+16,1.3743866552856158e+16,3.718913661035323e+16,191471985397.6934,1414138852736.319,42269461448229.64,210590055059038.75
2.001207095962122,6329844874599146.0,5.9389203102384296e+16,1.4240395656646436e+16,3.853268087083217e+16,213828448694.48563,1579296473939.712,47290836676916.69,237197738706984.06
2.1412312378813647,6547043745323455.0,6.1451035188271384e+16,1.4729032897180034e+16,3.985487071512298e+16,237453747102.59332,1753828536173.5725,52599743346986.0,265496805014618.75
2.284055862638992,6761137232229023.0,6.3485904788614504e+16,1.5210683883166962e+16,4.115815660800625e+16,262375680470.543,1937940313095.0337,58202149442535.77,295524599776141.9
2.4297369798917723,6972475015856132.0,6.549712297375801e+16,1.568613529900215e+16,4.244466721949663e+16,288623956598.6324,2131851176157.9573,64104460434270.18,327320503836081.3
2.578331719489608,7181363208847361.0,6.748759636725105e+16,1.6156075813361492e+16,4.371626600101796e+16,316230099693.13995,2335793916954.8213,70313494650683.375,360925825356886.06
2.7298983538794,7388071659125552.0,6.9459895233460776e+16,1.6621112509334146e+16,4.497459564337564e+16,345227381943.9915,2550014240641.528,76836464627654.61,396383715375157.44
2.884496320956988,7592839758578991.0,7.1416307634089144e+16,1.7081783952358328e+16,4.622111343701938e+16,375650773329.29736,2774770394204.143,83680963137562.14,433739101827364.4
3.0421862473761276,7795881113818544.0,7.335888297836459e+16,1.753857069813359e+16,4.745711970518459e+16,407536906002.62494,3010332902598.754,90854952936460.4,473038638482809.1
3.2030299723236504,7997387339357521.0,7.528946739442674e+16,1.7991903826226542e+16,4.86837808947945e+16,440924050513.02515,3256984392414.4824,98366759507538.27,514330666097792.7
3.3670905717701234,8197531166080640.0,7.720973272012318e+16,1.8442171933266228e+16,4.9902148499196e+16,475852101756.5972,3515019487511.6265,106225066251981.34,557665183739079.8
3.5344323832055258,8396469009770544.0,7.91212004629433e+16,1.88897269114183e+16,5.111317469400543e+16,512362573036.0121,3784744764621.871,114438911704964.6,603093828706395.2
3.7051210308696363,8594343109675223.0,8.102526175448306e+16,1.933488875957012e+16,5.231772535558695e+16,550498596960.8119,4066478759534.9736,123017688448482.44,650669863845743.2
3.879223451487029,8791283321604208.0,8.292319408711494e+16,1.9777949617301052e+16,5.351659097648099e+16,590304932190.5546,4360552016488.7524,131971143463327.9,700448171316710.0
4.0568079205167695,8987408631121801.0,8.481617544415275e+16,2.0219177169148464e+16,5.471049587693011e+16,631827975228.5728,4667307174901.214,141309379716160.66,752485252086062.1
4.237944078927105,9182828438205936.0,8.670529630241446e+16,2.0658817534734744e+16,5.590010602520639e+16,675115776632.8721,4987099088758.278,151042858818760.9,806839230583302.9
4.422702960505647,9377643653970518.0,8.859156988568376e+16,2.109709773608892e+16,5.708603571387962e+16,720218061134.4534,5320294974886.0625,161182404628462.16,863569864080307.8
4.61115701971576,9571947641799366.0,9.047594097065982e+16,2.1534227814937668e+16,5.82688532889453e+16,767186251250.6133,5667274587056.446,171739207683673.03,922738556455455.2
4.803380160110075,9765827028863422.0,9.23592934875462e+16,2.1970402658394372e+16,5.9449086089913096e+16,816073494057.9504,6028430413445.366,182724830388028.5,984408376079792.2
4.9994477633122765,9959362409021546.0,9.424245711109019e+16,2.240580358029124e+16,6.062722472869595e+16,866934690851.4352,6404167895419.129,194151212872294.88,1048644077622782.2
5.199436718578522,1.0152628954199572e+16,9.612621300146766e+16,2.284059969661304e+16,6.180372681136283e+16,919826529465.5046,6794905665991.05,206030679475599.34,1115512127621108.0
5.403425452950093,1.0345696948249936e+16,9.80112988255896e+16,2.3274949126533452e+16,6.2979020187994264e+16,974807519073.3914,7201075806588.311,218375945797578.88,1185080733688734.5
5.611493962009095,1.053863225482955e+16,9.989841316641685e+16,2.3709000045010716e+16,6.415350580087519e+16,1031938027313.6902,7623124121011.342,231200126281159.2,1257419877271926.5
5.823723841249277,1.0731496728855544e+16,1.0178821940943243e+17,2.414289160844914e+16,6.532756018921956e+16,1091280319620.1361,8061510425667.724,244516742292292.6,1332601349870595.0
6.040198318074262,1.0924348579501622e+16,1.0368134918052518e+17,2.4576754771340384e+16,6.6501537698900216e+16,1152898600652.8323,8516708855327.011,258339730668422.97,1410698792658524.0
6.261002284435747,1.1117242691401138e+16,1.0557840539743944e+17,2.5010713008881452e+16,6.76757724377627e+16,1216859057747.7246,8989208183780.22,272683452711947.3,1491787739440694.8
6.486222330124463,1.1310230909664054e+16,1.0747996498706626e+17,2.5444882958183876e+16,6.885058001065727e+16,1283229906316.6204,9479512158902.215,287562703608702.6,1575945662887116.2
6.715946776726952,1.1503362293445782e+16,1.0938658131273426e+17,2.587937498873345e+16,7.00262590630316e+16,1352081437143.1216,9988139851712.203,302992722254679.0,1663252023979827.8
6.950265712261491,1.1696683342089118e+16,1.1129878634896387e+17,2.6314293711146852e+16,7.12030926575623e+16,1423486065530.9812,10515626019109.342,318989201476862.8,1753788324604101.5
7.18927102650672,1.1890238197266288e+16,1.1321709263559586e+17,2.674973843193536e+16,7.238134950468869e+16,1497518382270.819,11062521480030.865,335568298636456.3,1847638163206729.0
7.433056447036854,1.208406882405377e+16,1.1514199503857678e+17,2.7185803560873004e+16,7.356128506489938e+16,1574255206399.3555,11629393504840.496,352746646604757.4,1944887293434572.8
7.681717575977592,1.2278215173458998e+16,1.1707397234082086e+17,2.7622578976636544e+16,7.474314253810829e+16,1653775639732.368,12216826217806.988,370541365103816.1,2045623685655690.8
7.935351927497144,1.247271532857082e+16,1.1901348868331102e+17,2.8060150355603656e+16,7.592715375334091e+16,1736161123158.7986,12825421012579.168,388970072405611.25,2149937591254251.5
8.194058966047088,1.2667605636213762e+16,1.2096099487386651e+17,2.8498599468038384e+16,7.711353997017472e+16,1821495494688.845,13455796980603.37,408050897385004.56,2257921609579392.0
8.45794014536803,1.2862920825737558e+16,1.2291692957868198e+17,2.8938004445334836e+16,7.830251260186661e+16,1909865049253.769,14108591352465.746,427802491923107.1,2369670757418121.0
8.72709894827539,1.3058694116364338e+16,1.2488172040977269e+17,2.9378440021518436e+16,7.949427386882494e+16,2001358600259.4094,14784459952173.324,448244043658999.94,2485282540853610.5
9.0016409272409,1.3254957314335494e+16,1.26855784919782e+17,2.9819977751799544e+16,8.06890173899872e+16,2096067542899.3015,15484077664416.674,469395289088973.3,2604857029363430.0
9.281673745785717,1.345174090094757e+16,1.2883953151416882e+17,3.0262686210629788e+16,8.188692871873594e+16,2194085919236.763,16208138914883.072,491276527013595.25,2728496932007846.5
9.567307220701432,1.3649074112434104e+16,1.3083336028956312e+17,3.0706631171414036e+16,8.30881858291756e+16,2295510485068.4863,16957358163711.986,513908632334022.2,2856307675556553.0
9.85865336511546,1.384698501253674e+16,1.3283766380601386e+17,3.1151875769775332e+16,8.429295955790741e+16,2400440778585.0073,17732470412206.258,537313070199982.25,2988397484403577.0
10.155826432417769,1.4045500558510372e+16,1.348528277999418e+17,3.15984806520481e+16,8.550141400583206e+16,2508979190845.985,18534231722931.52,561511910512829.2,3124877462124624.0
10.458942961066125,1.4244646661221136e+16,1.3687923184381597e+17,3.204650411048201e+16,8.671370690399472e+16,2621231038090.589,19363419753352.984,586527842787940.2,3265861674538704.5
10.768121820287448,1.4444448239921524e+16,1.3891724995788586e+17,3.249600220647079e+16,8.7929989947026e+16,2737304635905.2764,20220834303175.188,612384191381553.6,3411467234146929.5
11.083484256693197,1.4644929272221068e+16,1.409672511787042e+17,3.2947028882972428e+16,8.915040909733691e+16,2857311375273.1787,21107297875562.63,639104931087854.8,3561814385835082.5
11.405153941827061,1.4846112839713566e+16,1.4302960008865227e+17,3.3399636067157684e+16,9.037510486287226e+16,2981365800530.8296,22023656252432.434,666714703112750.8,3717026593743020.5
11.733257020663602,1.5048021169670776e+16,1.4510465731022742e+17,3.385387376420945e+16,9.160421255091995e+16,3109585689259.471,22970779084019.81,695238831431313.8,3877230629222693.5
12.067922161076874,1.5250675673167746e+16,1.4719277996844957e+17,3.43097901430942e+16,9.283786250019738e+16,3242092134139.1914,23949560492925.855,724703339536319.1,4042556659826759.0
12.409280604298411,1.5454096979964944e+16,1.4929432212439357e+17,3.4767431615036892e+16,9.407618029319502e+16,3379009626795.3438,24960919692865.164,755134967585605.4,4213138339291394.0
12.75746621638438,1.5658304970436898e+16,1.514096351825507e+17,3.5226842905351904e+16,9.531928695054109e+16,3520466143667.3203,26005801622335.746,786561189956279.4,4389112898498557.0
13.112615540712067,1.5863318804805714e+16,1.5353906827444118e+17,3.5688067119209976e+16,9.65672991089592e+16,3666593233930.4097,27085177593438.984,819010233213878.9,4570621237424918.0
13.474867851526309,1.6069156949909754e+16,1.5568296862066938e+17,3.615114580186067e+16,9.782032918422309e+16,3817526109501.969,28200045956080.33,852511094504716.1,4757808018105502.0
13.844365208556836,1.6275837203713014e+16,1.5784168187339347e+17,3.661611899377152e+16,9.907848552035485e+16,3973403737163.3984,29351432777783.68,887093560379576.6,4950821758659481.0
14.221252512727972,1.6483376717738416e+16,1.6001555244099677e+17,3.7083025281096616e+16,1.0034187252618888e+17,4134368932829.554,30540392539353.773,922788226056886.5,5149814928443754.0
14.605677562982532,1.6691792017588872e+16,1.622049237965773e+17,3.75519018418435e+16,1.0161059080029246e+17,4300568457997.3545,31768008846621.367,959626515133347.1,5354944044414693.0
14.997791114242183,1.690109902170262e+16,1.644101387717272e+17,3.8022784488067544e+16,1.0288473724513838e+17,4472153118405.281,33035395158505.023,997640699749835.1,5566369768791882.0
15.397746936527026,1.7111313058473862e+16,1.666315398369345e+17,3.849570770438845e+16,1.0416440517132778e+17,4649277864935.277,34343695531623.715,1036863921220222.1,5784257008127554.0
15.805701875257567,1.7322448881856576e+16,1.6886946936982982e+17,3.897070468309457e+16,1.0544968439257683e+17,4832101896788.473,35694085381691.84,1077330211130536.4,6008775013892701.0
16.221815912762718,1.753452068555716e+16,1.7112426991238534e+17,3.944780735607265e+16,1.0674066131211515e+17,5020788766965.946,37087772261927.0,1119074512915702.9,6240097484695665.0
16.64625223101797,1.7747542115911512e+16,1.7339628441808486e+17,3.992704642377749e+16,1.0803741900107534e+17,5215506490085.261,38525996658698.97,1162132703920927.0,6478402670250928.0
17.079177275638333,1.7961526283533038e+16,1.7568585648999648e+17,4.040845138143668e+16,1.0934003726939955e+17,5416427652563.529,40010032804646.27,1206541617954587.8,6723873477215620.0
17.5207608211511,1.8176485773809892e+16,1.7799333061060266e+17,4.089205054266688e+16,1.1064859272974254e+17,5623729525197.101,41541189509483.51,1252339068339371.5,6976697577009266.0
17.97117603757412,1.8392432656323196e+16,1.8031905236417344e+17,4.1377871060661896e+16,1.1196315885480486e+17,5837594178167.914,43120811008721.086,1299563871468305.0,7237067515728194.0
18.430599558325603,1.8609378493251664e+16,1.8266336865241136e+17,4.1865938947100856e+16,1.1328380602849645e+17,6058208598505.947,44750277830515.16,1348255870872168.0,7505180826261302.0
18.899211549492115,1.882733434682275e+16,1.8502662790403338e+17,4.235627908891128e+16,1.1461060159129571e+17,6285764810036.896,46431007680863.95,1398455961804760.5,7781240142707926.0
19.37719578048196,1.904631078586581e+16,1.874091802789088e+17,4.284891526301207e+16,1.159436098801431e+17,6520459995843.822,48164456347361.66,1450206116352438.2,8065453317192199.0
19.864739696091597,1.9266317891518864e+16,1.898113778673327e+17,4.334387014915194e+16,1.1728289226318083e+17,6762496623270.86,49952118621719.82,1503549409074326.2,8358033539161884.0
20.36203449001343,1.9487365262136264e+16,1.922335748849605e+17,4.38411653409501e+16,1.186285071696287e+17,7012082571496.893,51795529241260.414,1558530043179538.8,8659199457253164.0
20.869275179813698,1.970946201744157e+16,1.9467612786390378e+17,4.434082135524005e+16,1.199805101150661e+17,7269431261706.03,53696263849581.734,1615193377247820.8,8969175303796909.0
21.38666068340997,1.9932616801967652e+16,1.9713939584045226e+17,4.484285763980775e+16,1.2133895372237414e+17,7534761789881.688,55655939976594.02,1673585952499958.5,9288191022036292.0
21.91439389707817,2.0156837787821784e+16,1.9962374053984784e+17,4.5347292579613064e+16,1.227038877385678e+17,7808299062249.815,57676218038115.016,1733755520624333.8,9616482396120590.0
22.452681775019734,2.038213267681247e+16,2.0212952655852294e+17,4.58541435015744e+16,1.2407535904774568e+17,8090273933396.497,59758802355212.55,1795751072165963.2,9954291183935656.0
23.00173541052013,2.060850870197211e+16,2.0465712154417658e+17,4.636342667799413e+16,1.2545341168035755e+17,8380923347084.057,61905442193472.73,1859622865484415.0,1.0301865252827782e+16
23.561770118730532,2.0835972628506656e+16,2.0720689637405446e+17,4.687515732869545e+16,1.2683808681898858e+17,8680490479788.969,64117932822367.43,1925422456286839.5,1.0659458718274706e+16
24.133005521105144,2.106453075420312e+16,2.0977922533176022e+17,4.738934962193876e+16,1.2822942280083925e+17,8989224886983.852,66398116594886.445,1993202727742467.5,1.102733208555471e+16
24.715665631527248,2.1294188909322396e+16,2.1237448628292598e+17,4.790601667418113e+16,1.2962745511707491e+17,9307382652184.74,68747884047592.016,2063017921184709.8,1.1405752394463032e+16
25.309978944157795,2.1524952456004652e+16,2.149930608500385e+17,4.842517054873789e+16,1.3103221640920539e+17,9635226538783.676,71169175021245.25,2134923667407061.0,1.1794993367123466e+16
25.91617852304095,2.1756826287211604e+16,2.1763533458671133e+17,4.894682225340378e+16,1.3244373646264914e+17,9973026144685.324,73663979802143.52,2208977018558813.0,1.219533555894112e+16
26.53450209350177,2.1989814825230228e+16,2.203016971516739e+17,4.9470981737086424e+16,1.3386204219762378e+17,10321058059764.947,76234340284299.2,2285236480646513.0,1.2607066512742618e+16
27.165192135371807,2.222392201975969e+16,2.229925424827394e+17,4.999765788550265e+16,1.3528715765750298e+17,10679606026163.887,78882351152579.25,2363762046646998.5,1.3030480916148448e+16
27.808495978079243,2.245915134560344e+16,2.257082689710043e+17,5.0526858515986024e+16,1.3671910399476603e+17,11048961101436.447,81610161086911.86,2444615230237678.5,1.3465880762222618e+16
28.464665897640828,2.269550579998602e+16,2.284492796355093e+17,5.10585903714509e+16,1.3815789945466661e+17,11429421824561.453,84419973987658.28,2527859100149500.0,1.3913575513444066e+16
29.133959215593645,2.2932987899514492e+16,2.3121598229860672e+17,5.1592859113556344e+16,1.3960355935673643e+17,11821294384828.916,87314050222230.1,2613558315148046.0,1.4373882269044256e+16
29.816638399905518,2.3171599676802724e+16,2.3400878976224e+17,5.212966931511151e+16,1.4105609607423554e+17,12224892793611.299,90294707893022.92,2701779159647781.5,1.4847125935755984e+16
30.51297116790363,2.3411342676775996e+16,2.3682811998536515e+17,5.2669024451762504e+16,1.4251551901165912e+17,12640539059026.205,93364324126720.66,2792589579964471.0,1.5333639402017342e+16
31.223230591261704,2.3652217952673364e+16,2.3967439626270922e+17,5.321092689299859e+16,1.4398183458040222e+17,13068563363495.84,96525336385011.64,2886059221210393.5,1.5833763715676158e+16
31.947695203086937,2.3894226061763596e+16,2.4254804740507702e+17,5.375537789251436e+16,1.454550461726822e+17,13509304244205.969,99780243796737.14,2982259464836875.0,1.6347848265239034e+16
32.686649107148675,2.413736706079097e+16,2.4544950792139728e+17,5.430237757796384e+16,1.4693515413381578e+17,13963108776465.248,103131608511486.33,3081263466828319.0,1.68762509647103e+16
33.44038208929165,2.4381640501165828e+16,2.4837921820270198e+17,5.48519249401412e+16,1.484221557329433e+17,14430332759962.945,106582057074619.17,3183146196551644.5,1.7419338442065424e+16
34.20918973107749,2.462704542391524e+16,2.5133762470822733e+17,5.54040178216205e+16,1.499160451322913e+17,14911340907921.244,110134281823698.94,3287984476264824.5,1.7977486231403902e+16
34.993373525699035,2.4873580354407876e+16,2.5432518015381843e+17,5.595865290488858e+16,1.5141681335506234e+17,15406507039135.055,113791042306279.64,3395857021287796.5,1.855107896882642e+16
35.793240996213015,2.5121243296867628e+16,2.5734234370281968e+17,5.65158257000023e+16,1.5292444825203792e+17,15916214272890.152,117555166718986.69,3506844480838850.5,1.914051059208121e+16
36.60910581613728,2.537003172868995e+16,2.6038958115962947e+17,5.707553053180161e+16,1.5443893446698006e+17,16440855226747.406,121429553367802.92,3621029479539027.0,1.9746184544024244e+16
37.44128793246003,2.561994259457461e+16,2.6346736516609238e+17,5.763776052671029e+16,1.559602534009157e+17,16980832217177.797,125417172149452.27,3738496659587036.0,2.0368513979937964e+16
38.29011369110923,2.5870972300488536e+16,2.6657617540090637e+17,5.8202507599153784e+16,1.574883831753879e+17,17536557463030.605,129521066053749.8,3859332723606459.0,2.1007921978753044e+16
