t(s),Total solute volume 1,Total retention volume 1,Total 1 volume 1,Total 2 volume 1,Total 3 volume 1,Total 4 volume 1,Total 5 volume 1,Total 6 volume 1
0.1,1388605447609674.5,1.2965503955258198e+16,3123970752525701.5,8452927755122823.0,0.0,0.0,0.0,-0.03849354864423057
0.202,1974010850865733.0,1.8432256166230852e+16,4440975280323500.5,1.2016672058552006e+16,658932736.8674991,4842795065.612754,117745962166.18683,474728799641.3126
0.30604000000000003,2444329685734876.0,2.2824787683755692e+16,5499062916878703.0,1.4879735608442658e+16,1648313347.2032144,12142535089.201845,317962797533.233,1327719053481.5342
0.41216080000000005,2848548428109863.5,2.6600517052216796e+16,6408443310092644.0,1.7340408760894752e+16,2910342433.3274493,21459224301.05678,584390477682.5326,2507793075119.8765
0.5204040160000001,3209888460264811.5,2.997623861973732e+16,7221358364363054.0,1.954005632733158e+16,4416778018.632399,32582917768.318134,909083941415.6199,3989384140686.792
0.6308120963200001,3541074048173709.5,3.3070744991501104e+16,7966434220473219.0,2.1556138461217612e+16,6152168046.516725,45398986799.51134,1287711303805.0486,5758999177910.416
0.7434283382464002,3849816454076454.5,3.5956028600699144e+16,8661019107846788.0,2.343559782798895e+16,8107641841.021715,59841661814.133156,1717757873230.7864,7809503610058.372
0.8582969050113283,4141163262468769.0,3.8679215140134824e+16,9316468704815378.0,2.520916170716428e+16,10278198318.399282,75873859132.73372,2197757849929.5635,10137555779026.582
0.9754628431115548,4418617912549665.5,4.127301538664155e+16,9940664784889198.0,2.6898157309400036e+16,12661346879.530205,93477091081.39037,2726915250069.69,12742326114650.611
1.094972099973786,4684724483313019.0,4.3761184593617496e+16,1.0539330824276248e+16,2.8518071709476396e+16,15256350063.708654,112645849477.82866,3304895005345.006,15624779346983.338
1.2168715419732616,4941397332165280.0,4.616159985576246e+16,1.1116773598737514e+16,3.008055854112947e+16,18063766876.8873,133384221138.0889,3931698026255.528,18787237715908.29
1.3412089728127268,5190118842102405.0,4.848810616466985e+16,1.1676328060552734e+16,3.1594641790758756e+16,21085160692.78606,155703724019.4379,4607581834209.056,22233100537054.45
1.4680331522689813,5432064243140634.0,5.075168165381328e+16,1.2220638152464532e+16,3.3067475651020456e+16,24322903846.99559,179621860112.6404,5333007812176.77,25966654611510.0
1.597393815314361,5668183782666519.0,5.296120467289936e+16,1.2751841668367014e+16,3.4504844734054052e+16,27780042310.57729,205161113489.73752,6108604893044.414,29992941762924.176
1.729341691620648,5899258751458149.0,5.512397679462478e+16,1.3271696296427038e+16,3.591150513028882e+16,31460199421.336555,232348237652.58224,6935143864323.063,34317664149420.273
1.863928525453061,6125940836003151.0,5.724609016781077e+16,1.3781668150954254e+16,3.7291423965728184e+16,35367505976.26498,261213738088.6447,7813518790216.528,38947115090897.984
2.001207095962122,6348780471779390.0,5.933269219293446e+16,1.428299555946308e+16,3.864795200244794e+16,39506548688.92588,291791490792.8014,8744733357361.906,43888127847224.53
2.1412312378813647,6568247726728759.0,6.138818046698288e+16,1.4776736044725854e+16,3.998395076659117e+16,43882331795.42004,324118458118.56744,9729890720170.797,49148037427046.875
2.284055862638992,6784747981807629.0,6.341634915967064e+16,1.5263801601682104e+16,4.130188800355612e+16,48500248302.45389,358234475992.3182,10770185893610.41,54734652006911.0
2.4297369798917723,6998633906260619.0,6.542050080187042e+16,1.5744985638497074e+16,4.2603910577319896e+16,53366058458.61763,394182094580.9721,11866900040210.232,60656231599565.09
2.578331719489608,7210214741900815.0,6.7403532954722056e+16,1.6220983863627108e+16,4.3891900988353176e+16,58485873742.22674,432006459778.8628,13021396192991.996,66921472314462.59
2.7298983538794,7419763598599312.0,6.936800631449737e+16,1.6692410698654834e+16,4.516752178478824e+16,63866145137.61131,471755226423.216,14235116086355.332,73539494997053.45
2.884496320956988,7627523256769624.0,7.131619888133595e+16,1.7159812332275166e+16,4.643225088493457e+16,69513654800.57996,513478496582.4119,15509577856065.15,80519837349137.61
3.0421862473761276,7833710833121366.0,7.325014951761602e+16,1.7623677216950962e+16,4.768740997996055e+16,75435510444.34962,557228777968.1698,16846374431649.701,87872448863096.27
3.2030299723236504,8038521569815145.0,7.517169332422474e+16,1.8084444593463736e+16,4.893418760029316e+16,81639141941.8525,603060958741.3352,18247172488669.81,95607688063310.39
3.3670905717701234,8242131939718829.0,7.708249063351592e+16,1.854251147688128e+16,5.017365801879574e+16,88132299759.7942,651032295865.211,19713711860191.266,103736321664203.97
3.5344323832055258,8444702212406539.0,7.898405096912178e+16,1.8998238429345664e+16,5.140679687122722e+16,94923054927.83154,701202414811.5831,21247805330145.137,112269525342429.12
3.7051210308696363,8646378590786870.0,8.087775299835115e+16,1.9451954366895544e+16,5.2634494162914264e+16,102019800311.93127,753633318910.7719,22851338748607.22,121218885886696.62
3.879223451487029,8847295002773018.0,8.276486126512003e+16,1.9903960590228156e+16,5.3857565175498536e+16,109431253010.63713,808389407004.5463,24526271422075.707,130596404538285.23
4.0568079205167695,9047574613505570.0,8.464654031491338e+16,2.0354534186782224e+16,5.50767596725541e+16,117166457730.95161,865537498341.7759,26274636741754.87,140414501373580.31
4.237944078927105,9247331109451916.0,8.652386669085213e+16,2.0803930919606172e+16,5.629276971650864e+16,125234791029.8954,925146863873.8801,28098543020490.465,150686020609946.16
4.422702960505647,9446669794945988.0,8.839783917949886e+16,2.1252387694269052e+16,5.7506236343799656e+16,133645966330.72691,987289263276.7294,30000174514937.332,161424236739629.66
4.61115701971576,9645688533490282.0,9.026938760810011e+16,2.17001246765295e+16,5.871775529502443e+16,142410039640.86557,1052038987159.2516,31981792614195.926,172642861414903.4
4.803380160110075,9844478559771436.0,9.213938043550269e+16,2.2147347119146184e+16,5.992788195806278e+16,151537415912.92612,1119472904025.2625,34045737179839.87,184356051022512.5
4.9994477633122765,1.0043125183374696e+16,9.400863133262315e+16,2.2594246945040176e+16,6.1137135651917944e+16,161038856001.7834,1189670511640.2136,36194428025198.34,196578414897453.06
5.199436718578522,1.0241708401279504e+16,9.587790491192384e+16,2.304100412524085e+16,6.2346003355266824e+16,170925484179.90338,1262713992523.425,38430366524125.35,209325024135834.12
5.403425452950093,1.0440303433129778e+16,9.774792173651227e+16,2.348778788309561e+16,6.355494296490143e+16,181208796180.7491,1338688273342.4397,40756137341408.18,222611420974538.94
5.611493962009095,1.0638981190808524e+16,9.96193627164881e+16,2.393475775068261e+16,6.476438615425066e+16,191900667746.31332,1417681088032.2437,43174410278536.695,236453628711982.9
5.823723841249277,1.0837808691869958e+16,1.0149287298171283e+17,2.4382064498918932e+16,6.5974740890136184e+16,203013363659.96008,1499783044500.1309,45687942229848.41,250868162149746.38
6.040198318074262,1.103684942478622e+16,1.033690653052773e+17,2.482985095926405e+16,6.718639365620033e+16,214559547250.06625,1585087694808.75,48299579245134.15,265872038539436.12
6.261002284435747,1.1236163672668288e+16,1.052485231398366e+17,2.5278252752002716e+16,6.8399711423547784e+16,226552290353.5407,1673691608756.4854,51012258695685.445,281482789023018.2
6.486222330124463,1.1435808801062348e+16,1.0713180331910006e+17,2.5727398933706828e+16,6.961504340269664e+16,239005083731.35312,1765694450796.8687,53829011541517.625,297718470558146.75
6.715946776726952,1.1635839514552214e+16,1.090194384686391e+17,2.6177412574519788e+16,7.083272260563799e+16,251931847930.79132,1861199060257.8416,56752964698137.734,314597678322840.3
6.950265712261491,1.1836308086181086e+16,1.1091193916348374e+17,2.6628411274291984e+16,7.205306724243323e+16,265346944591.3935,1960311534838.18,59787343501774.11,332139558596287.5
7.18927102650672,1.203726456311031e+16,1.1280979586441507e+17,2.708050762525612e+16,7.327638197315582e+16,279265188193.4253,2063141317372.5962,62935474272448.3,350363822114675.94
7.433056447036854,1.223875695143731e+16,1.147134806602394e+17,2.753380962781622e+16,7.450295903296424e+16,293701858249.443,2169801285869.4133,66200786974676.21,369290757902784.44
7.681717575977592,1.2440831382679492e+16,1.1662344883945549e+17,2.798842106509033e+16,7.573307924556714e+16,308672711940.9676,2280407846835.608,69586817975937.99,388941247583701.06
7.935351927497144,1.2643532264083038e+16,1.1854014031147358e+17,2.8444441841063764e+16,7.696701293822374e+16,324193997203.57684,2395081031913.6196,73097212903364.89,409336780170464.44
8.194058966047088,1.2846902414621244e+16,1.2046398089480606e+17,2.890196828654757e+16,7.820502076962894e+16,340282466264.9051,2513944597862.9233,76735729599366.75,430499467344704.75
8.45794014536803,1.3050983188298412e+16,1.2239538348732395e+17,2.9361093436578216e+16,7.9447354480522e+16,356955389641.07294,2637126129927.0913,80506241177167.44,452452059228502.94
8.72709894827539,1.3255814586164008e+16,1.2433474913170446e+17,2.98219072824184e+16,8.069425757556858e+16,374230570598.02527,2764757148634.092,84412739177436.36,475217960656719.6
9.0016409272409,1.3461435358261522e+16,1.2628246798751192e+17,3.0284497000913576e+16,8.194596594397128e+16,392126360085.1102,2896973220083.916,88459336827402.03,498821247957962.06
9.281673745785717,1.3667883096582496e+16,1.2823892021991909e+17,3.0748947163613104e+16,8.320270842532437e+16,410661672149.0537,3033914069783.6245,92650272404018.11,523286686253209.3
9.567307220701432,1.3875194319963972e+16,1.3020447681383792e+17,3.121533992776563e+16,8.446470732642355e+16,429855999837.19946,3175723700095.334,96989912702916.23,548639747281871.94
9.85865336511546,1.4083404551753678e+16,1.32179500321173e+17,3.1683755211044492e+16,8.573217889405094e+16,449729431599.60596,3322550511367.8013,101482756615039.66,574906627765768.2
10.155826432417769,1.4292548390969398e+16,1.3416434554799043e+17,3.2154270851636404e+16,8.700533374815448e+16,470302668200.2317,3474547426827.1313,106133438812993.45,602114268322126.9
10.458942961066125,1.4502659577593486e+16,1.3615936018760397e+17,3.2626962755136136e+16,8.82843772793263e+16,491597040148.0675,3631872021306.7876,110946733549285.17,630290372937314.4
10.768121820287448,1.471377105257034e+16,1.3816488540489176e+17,3.3101905029524156e+16,8.956951001403549e+16,513634525659.68604,3794686653901.37,115927558568760.55,659463429013524.6
11.083484256693197,1.4925915013009824e+16,1.4018125637655819e+17,3.3579170109359064e+16,9.086092795067667e+16,536437769165.2256,3963158604633.059,121080979137659.88,689662728001142.9
11.405153941827061,1.5139122963044252e+16,1.4220880279153394e+17,3.405882887019169e+16,9.215882286916058e+16,560030100370.4159,4137460215223.5176,126412212191843.86,720918386629971.6
11.733257020663602,1.5353425760737098e+16,1.4424784931524963e+17,3.454095073409657e+16,9.346338261646829e+16,584435553887.7698,4317769034068.3086,131926630606846.89,753261368752897.0
12.067922161076874,1.5568853661398886e+16,1.4629871602111923e+17,3.502560376712098e+16,9.477479137033592e+16,609678889450.6172,4504267965514.569,137629767592534.39,786723507815975.9
12.409280604298411,1.5785436357628236e+16,1.4836171879221766e+17,3.5512854769365956e+16,9.609322988300258e+16,635785612724.1617,4697145423546.688,143527321215243.53,821337529969264.2
12.75746621638438,1.600320301636245e+16,1.5043716969582733e+17,3.600276935833989e+16,9.741887570675485e+16,662781996728.2787,4896595489988.562,149625159050398.9,857137077833036.8
13.112615540712067,1.622218231319312e+16,1.525253773332579e+17,3.649541204615913e+16,9.875190340282123e+16,690695103887.2611,5102818077334.662,155929322968696.8,894156734934361.8
13.474867851526309,1.6442402464176056e+16,1.5462664716709546e+17,3.699084631111158e+16,1.0009248473501446e+17,719552808722.2628,5316019096326.064,162446034059058.25,932432050829266.0
13.844365208556836,1.6663891255342308e+16,1.5674128182783584e+17,3.748913466404828e+16,1.0144078884937818e+17,749383821202.6553,5536410628391.229,169181697691656.38,971999566925996.4
14.221252512727972,1.6886676070096284e+16,1.5886958140165354e+17,3.799033871002145e+16,1.0279698244097242e+17,780217710773.067,5764211103075.099,176142908724421.38,1012896843025145.8
14.605677562982532,1.7110783914669272e+16,1.6101184370089866e+17,3.8494519205548e+16,1.0416122990882042e+17,812084931073.3501,5999645480584.007,183336456856538.62,1055162484592649.5
14.997791114242183,1.733624144178018e+16,1.631683645187625e+17,3.900173611183968e+16,1.0553369349994315e+17,845016845369.256,6242945439577.286,190769332132550.8,1098836170781896.5
15.397746936527026,1.7563074972641542e+16,1.6533943786941616e+17,3.951204864431034e+16,1.0691453344331902e+17,879045752712.0981,6494349570340.801,198448730600784.88,1143958683221444.0
15.805701875257567,1.7791310517435184e+16,1.675253562148088e+17,4.002551531864048e+16,1.0830390807452986e+17,914204914846.2257,6754103573481.02,206382060129926.56,1190571935585058.8
16.221815912762718,1.8020973794371296e+16,1.6972641067920422e+17,4.0542193993655144e+16,1.0970197395178082e+17,950528583883.6248,7022460464282.357,214576946387669.8,1238719003961050.2
16.64625223101797,1.8252090247433676e+16,1.719428912524414e+17,4.106214191124543e+16,1.1110888596392493e+17,988052030765.5256,7299680782874.39,223041238985480.03,1288444158038114.8
17.079177275638333,1.8484685062904964e+16,1.741750869828145e+17,4.1585415733546056e+16,1.1252479743105982e+17,1026811574531.416,7586032810359.404,231783017793610.03,1339792893125178.2
17.5207608211511,1.8718783184757544e+16,1.764232861603929e+17,4.21120715775602e+16,1.1394986019821808e+17,1066844612416.4052,7881792791054.964,240810599430623.62,1392811963023021.0
17.97117603757412,1.8954409328987868e+16,1.786877764915331e+17,4.264216504740825e+16,1.1538422472262776e+17,1108189650798.424,8187245161010.077,250132543931785.38,1447549413765742.5
18.430599558325603,1.9191587996965412e+16,1.8096884526526822e+17,4.317575126435859e+16,1.1682804015497304e+17,1150886337017.349,8502682782957.562,259757661600790.06,1504054618250467.2
18.899211549492115,1.9430343487861324e+16,1.832667795122083e+17,4.371288489478948e+16,1.1828145441505389e+17,1194975492088.628,8828407187869.727,269695020049421.6,1562378311774087.5
19.37719578048196,1.967069991021654e+16,1.8558186615652854e+17,4.425362017621327e+16,1.1974461426220515e+17,1240499144334.634,9164728823288.482,279953951429833.53,1622572628496103.2
19.864739696091597,1.9912681192703508e+16,1.879143921615845e+17,4.479801094148775e+16,1.2121766536080917e+17,1287500563957.5208,9511967308605.07,290544059864272.3,1684691138847221.5
20.36203449001343,2.0156311094131836e+16,1.902646446696388e+17,4.534611064132595e+16,1.2270075234120408e+17,1336024298577.9214,9870451697469.691,301475229077176.3,1748788887903622.5
20.869275179813698,2.0401613212743548e+16,1.9263291113615882e+17,4.58979723652079e+16,1.2419401885626798e+17,1386116209764.4995,10240520747514.656,312757630234698.1,1814922434747430.5
21.38666068340997,2.0648610994839812e+16,1.9501947945910256e+17,4.64536488607885e+16,1.2569760763393494e+17,1437823510579.8936,10622523197580.393,324401729996826.06,1883149892834379.5
21.91439389707817,2.0897327742778236e+16,1.9742463810357866e+17,4.7013192551889064e+16,1.2721166052587702e+17,1491194804169.2656,11016818052636.982,336418298787400.5,1953530971390246.8
22.452681775019734,2.114778662237603e+16,1.9984867622224416e+17,4.757665555515224e+16,1.2873631855257043e+17,1546280123418.2676,11423774876599.662,348818419287435.3,2026127017858158.5
23.00173541052013,2.1400010669751184e+16,2.0229188377176765e+17,4.814408969543298e+16,1.3027172194494146e+17,1603130971707.888,11843774093240.363,361613495157301.3,2101001061419583.2
23.561770118730532,2.16540227976325e+16,2.0475455162567203e+17,4.871554651999457e+16,1.3181801018277893e+17,1661800364794.2715,12277207295403.076,374815259993430.2,2178217857612401.0
24.133005521105144,2.1909845801165536e+16,2.0723697168384365e+17,4.9291077311569784e+16,1.3337532203007621e+17,1722342873842.2698,12724477562734.787,388435786525341.4,2257843934070158.5
24.715665631527248,2.2167502363239972e+16,2.09739436978973e+17,4.987073310034651e+16,1.3494379556746242e+17,1784814669642.157,13185999788149.467,402487496058927.3,2339947637407328.5
25.309978944157795,2.2427015059361884e+16,2.122622417801812e+17,5.045456467492867e+16,1.3652356822186136e+17,1849273568039.568,13662201013246.688,416983168172052.3,2424599181276122.0
25.91617852304095,2.268840636209228e+16,2.148056816940654e+17,5.104262259232212e+16,1.3811477679351152e+17,1915779076609.4824,14153520772912.38,431935950668657.3,2511870695621171.0
26.53450209350177,2.295169864507202e+16,2.1737005376337594e+17,5.163495718698886e+16,1.3971755748046643e+17,1984392442605.6797,14660411449333.482,447359369797714.6,2601836277159146.0
27.165192135371807,2.321691418665064e+16,2.1995565656354176e+17,5.223161857901191e+16,1.413320459006865e+17,2055176702217.8474,15183338635664.08,463267340743479.56,2694572041111207.0
27.808495978079243,2.3484075173137e+16,2.225627902972208e+17,5.283265668140724e+16,1.4295837711182539e+17,2128196731169.234,15722781509585.607,479674178393663.94,2790156174216973.5
28.464665897640828,2.3753203701685856e+16,2.2519175688707363e+17,5.343812120661879e+16,1.445966856288034e+17,2203519296688.431,16279233217008.568,496594608392255.0,2888668989059464.0
29.133959215593645,2.4024321782835748e+16,2.2784286006691056e+17,5.404806167222707e+16,1.462471054392555e+17,2281213110889.6084,16853201266169.906,514043778483894.56,2990192979731394.0
29.816638399905518,2.429745134271024e+16,2.3051640547139293e+17,5.466252740590226e+16,1.4790977001693162e+17,2361348885596.2666,17445207932383.48,532037270156815.06,3094812878873869.0
30.51297116790363,2.45726142248953e+16,2.3321270072442096e+17,5.5281567549626856e+16,1.4958481233312534e+17,2443999388644.3423,18055790673709.06,550591110591533.9,3202615716119537.0
31.223230591261704,2.4849832192003264e+16,2.3593205552636714e+17,5.5905231063214936e+16,1.5127236486619402e+17,2529239501701.16,18685502557808.785,569721784922612.6,3313690877972849.5
31.947695203086937,2.5129126926933708e+16,2.386747817402783e+17,5.653356672714838e+16,1.5297255960923424e+17,2617146279637.658,19334912700266.574,589446248820953.4,3428130169161130.5
32.686649107148675,2.541052003384048e+16,2.4144119347718253e+17,5.716662314475236e+16,1.5468552807596835e+17,2707799011491.9146,20004606714651.75,609781941404243.9,3546027875490766.0
33.44038208929165,2.5694033038813176e+16,2.4423160718062125e+17,5.780444874372889e+16,1.5641140130489456e+17,2801279283062.818,20695187174613.86,630746798483336.6,3667480828243799.0
34.20918973107749,2.597968739028116e+16,2.4704634171052208e+17,5.844709177706527e+16,1.581503098617429e+17,2897671041173.6675,21407274088300.406,652359266152451.5,3792588470150829.0
34.993373525699035,2.6267504459146796e+16,2.4988571842652378e+17,5.909460032333389e+16,1.599023838402895e+17,2997060659646.0127,22141505385397.1,674638314731315.6,3921452922977128.5
35.793240996213015,2.6557505538654464e+16,2.5275006127086106e+17,5.974702228639787e+16,1.616677528615578e+17,3099537007025.101,22898537417093.957,697603453067432.9,4054179056759444.0
36.60910581613728,2.6849711844001296e+16,2.5563969685090973e+17,6.040440539453534e+16,1.6344654607144874e+17,3205191516098.925,23679045469288.16,721274743206891.1,4190874560731934.0
37.44128793246003,2.714414451169519e+16,2.5855495452148957e+17,6.106679719899433e+16,1.6523889213683293e+17,3314118255253.768,24483724289339.746,745672815442242.9,4331650015980297.0
38.29011369110923,2.7440824598664092e+16,2.6149616646702138e+17,6.173424507199003e+16,1.6704491924012858e+17,3426414001709.9116,25313288626702.51,770818883746164.8,4476618969864122.0
39.15591596493141,2.7739773081121884e+16,2.644636677836249e+17,6.240679620415279e+16,1.6886475507239814e+17,3542178316682.113,26168473787757.93,796734761599747.8,4625898012247932.0
