t(s),Total solute volume 1,Total retention volume 1,Total 1 volume 1,Total 2 volume 1,Total 3 volume 1,Total 4 volume 1,Total 5 volume 1,Total 6 volume 1
0.1,1360095892163908.8,3176178273173015.0,653029631800972.5,1163052749208134.2,0.0,0.0,0.0,-4.1755110825714755e-98
0.202,1873279280824788.5,5038019631654628.0,899426996106778.2,1601889611531840.0,109801915246.94365,436098517334.01306,18423625046039.91,644454217712595.9
0.30604000000000003,2173889271533191.5,6663354172120037.0,1043760394254782.8,1858949125706555.2,257390716897.80988,1022306865846.5717,43265535501586.29,1542210147541177.0
0.41216080000000005,2375118626181122.0,8198299729571652.0,1140377663684399.5,2031025639237319.0,426053060742.49164,1692226824975.3037,71674421782475.0,2577985098800619.0
0.5204040160000001,2519880176289973.5,9695277818122082.0,1209882760555216.8,2154815053020177.0,608755092778.7676,2417918258837.6353,102459131834465.11,3705214023070625.5
0.6308120963200001,2629005883408396.0,1.117888625511199e+16,1262277839980173.0,2248131324070060.5,801906817855.1511,3185121110380.465,135012214997850.78,4900471964727271.0
0.7434283382464002,2714089793070833.0,1.2662637599419964e+16,1303129609609306.8,2320888823945742.0,1003486361788.0054,3985804193425.415,168991454156405.28,6150548628082467.0
0.8582969050113283,2782166351776325.5,1.4154795762752176e+16,1335815553761264.2,2379102891682147.5,1212285408534.1252,4815167916478.199,204192196278900.72,7447491315928519.0
0.9754628431115548,2837770645193047.5,1.5660838515507272e+16,1362513126022002.2,2426651597589991.0,1427554906824.5413,5670236978391.8955,240487461998187.78,8786317892818828.0
1.094972099973786,2883963299080935.0,1.718463925237725e+16,1384691840101480.0,2466152162833105.5,1648821511611.9724,6549131248901.893,277796920563304.12,1.01638370770379e+16
1.2168715419732616,2922885817633748.0,1.8729089634993336e+16,1403379907233944.8,2499435843735786.0,1875785535125.0183,7450660415233.075,316069638333904.5,1.1577991982105612e+16
1.3412089728127268,2956081385214568.5,2.0296451812611724e+16,1419318264333268.0,2527822257711262.5,2108261064438.9077,8374086119103.841,355273952165225.6,1.3027473606003854e+16
1.4680331522689813,2984689730898152.0,2.1888569174213452e+16,1433054135288449.5,2552286017012151.5,2346139271183.983,9318976215904.525,395391262191398.3,1.4511482913336218e+16
1.597393815314361,3009570419668626.5,2.3506998341928332e+16,1445000227388314.0,2573562158248968.0,2589365116438.6235,10285112241538.736,436412088977304.6,1.6029578970287134e+16
1.729341691620648,3031383550627905.5,2.5153095039233012e+16,1455473477359478.8,2592215149533836.5,2837922110298.1606,11272428873827.58,478333492729729.75,1.758157901799793e+16
1.863928525453061,3050644119501733.5,2.6828071783164816e+16,1464721152710792.0,2608685377278943.5,3091822082190.3706,12280973297599.64,521157340160144.8,1.9167490998133428e+16
2.001207095962122,3067759560398331.0,2.853303774018886e+16,1472938876847473.2,2623321249135418.5,3351098160661.411,13310877318533.309,564889114504904.9,2.078746696382357e+16
2.1412312378813647,3083056239469700.0,3.0269026940165908e+16,1480283349606560.2,2636401849416067.5,3615799861859.349,14362337853295.676,609537082563257.8,2.2441770281395172e+16
2.284055862638992,3096798512800218.5,3.203701868692877e+16,1486881497617257.2,2648153235994780.0,3885989594925.5625,15435603048056.705,655111701731134.0,2.413075214614236e+16
2.4297369798917723,3109202670866338.0,3.383795261503499e+16,1492837169524906.2,2658760364579414.5,4161740138680.602,16530962255306.26,701625191623926.2,2.585483451604642e+16
2.578331719489608,3120447298575755.0,3.567273999685031e+16,1498236110208967.8,2668375947852912.0,4443132796201.638,17648738703507.25,749091220619932.2,2.7614497548093056e+16
2.7298983538794,3130681079136939.5,3.754227237485426e+16,1503149707694409.5,2677127128767001.0,4730256030272.88,18789284076975.312,797524673959842.0,2.9410270245188836e+16
2.884496320956988,3140028746527568.0,3.944742825434234e+16,1507637851140502.5,2685120570654293.0,5023204445043.644,19952974471055.566,846941480588267.2,3.124272342651561e+16
3.0421862473761276,3148595677980123.0,4.138907836871253e+16,1511751135854186.5,2692446384383449.5,5322078020353.219,21140207351023.766,897358482884345.1,3.3112464402239056e+16
3.2030299723236504,3156471474526011.0,4.336808988018509e+16,1515532582434876.0,2699181190176690.0,5626981532785.369,22351399252786.895,948793338102329.0,3.502013291415957e+16
3.3670905717701234,3163732779630792.0,4.538532977694669e+16,1519018990100062.5,2705390527898966.5,5938024116342.502,23586984038246.934,1001264443532071.6,3.696639802763019e+16
3.5344323832055258,3170445517905908.5,4.7441667657077016e+16,1522242011569341.2,2711130771439388.5,6255318928661.316,24847411569956.08,1054790879597384.0,3.895195574606644e+16
3.7051210308696363,3176666687958523.0,4.953797803988145e+16,1525229013874493.0,2716450661824387.0,6578982897834.8,26133146706012.438,1109392366659993.0,4.0977527179960184e+16
3.879223451487029,3182445809242268.0,5.167514230974928e+16,1528003773043278.2,2721392544457952.5,6909136531401.463,27444668541947.957,1165089232398214.5,4.304385714553425e+16
4.0568079205167695,3187826098068742.0,5.385405037197804e+16,1530587038743806.8,2725993374760167.5,7245903773731.487,28782469844909.08,1221902387421375.0,4.515171309936536e+16
4.237944078927105,3192845429893340.0,5.607560208121211e+16,1532996996311713.2,2730285541043214.0,7589411901432.275,30147056638904.97,1279853307356610.2,4.730188433806693e+16
4.422702960505647,3197537131666227.0,5.834070848923866e+16,1535249647185666.2,2734297542071640.5,7939791448885.392,31538947909791.0,1338964020067308.2,4.949518140888916e+16
4.61115701971576,3201930638106853.0,6.065029294849001e+16,1537359124007785.8,2738054548260119.5,8297176157872.306,32958675405983.35,1399257096975655.5,5.173243568957571e+16
4.803380160110075,3206052038287545.0,6.300529209975215e+16,1539337953057583.2,2741578869071464.5,8661702946625.129,34406783516379.31,1460755647696010.8,5.401449910517659e+16
4.9994477633122765,3209924533240153.0,6.5406656766609864e+16,1541197273964990.0,2744890344328279.5,9033511894678.48,35883829211088.04,1523483317362452.5,5.634224395660827e+16
5.199436718578522,3213568820961224.5,6.785535277456266e+16,1542947024564842.5,2748006673441025.0,9412746240688.03,37390382033714.38,1587464286168076.2,5.871656284115312e+16
5.403425452950093,3217003421846094.0,7.035236170920243e+16,1544596097149198.0,2750943693695378.5,9799552390986.42,38927024136339.3,1652723270736394.2,6.1138368649248056e+16
5.611493962009095,3220244954985217.5,7.289868162506726e+16,1546152471126907.5,2753715616520561.5,10194079937112.674,40494350350192.72,1719285527024436.2,6.360859462512282e+16
5.823723841249277,3223308373725711.5,7.549532771461645e+16,1547623326124982.2,2756335228924238.0,10596481680913.227,42092968286451.195,1787176854518718.2,6.612819448135542e+16
6.040198318074262,3226207167303554.5,7.814333294505005e+16,1549015138799272.0,2758814065913578.5,11006913666094.865,43723498462712.65,1856423601533166.2,6.8698142559371656e+16
6.261002284435747,3228953534087203.0,8.084374866933134e+16,1550333766014829.5,2761162558640515.0,11425535215331.756,45386574451584.47,1927052671456018.0,7.131943402946574e+16
6.486222330124463,3231558530966563.5,8.359764521667589e+16,1551584516572775.2,2763390162148170.0,11852508972203.906,47082843048516.14,1999091529822420.8,7.399308512514522e+16
6.715946776726952,3234032202615017.5,8.640611246689437e+16,1552772213273545.2,2765505465906283.5,12288000947383.93,48812964456560.305,2072568212113261.5,7.672013340758224e+16
6.950265712261491,3236383693703331.5,8.927026041225949e+16,1553901246794714.5,2767516289768312.0,12732180568599.932,50577612486189.99,2147511332199669.5,7.950163805673872e+16
7.18927102650672,3238621346619535.5,9.219121970999816e+16,1554975622609764.2,2769429767534294.0,13185220733991.658,52377474768652.31,2223950091367865.5,8.233868018636402e+16
7.433056447036854,3240752786822254.0,9.51701422280297e+16,1555999001969186.8,2771252419938754.5,13647297868549.238,54213252981627.07,2301914287871344.0,8.52323631805779e+16
7.681717575977592,3242784997606690.0,9.820820158619051e+16,1556974737798275.8,2772990218585095.0,14118591983382.23,56085663086189.44,2381434326967285.5,8.818381305016352e+16
7.935351927497144,3244724385776906.5,1.0130659369486562e+17,1557905906228684.8,2774648642103724.0,14599286737613.889,57995435574266.58,2462541231402233.5,9.119417880704227e+16
8.194058966047088,3246576839482885.0,1.0446653729268213e+17,1558795334368028.2,2776232725610040.0,15089569502734.98,59943315725929.195,2545266652318726.5,9.426463285567381e+16
8.45794014536803,3248347779286325.0,1.07689274484704e+17,1559645624818374.8,2777747104372183.0,15589631429282.975,61930063875991.05,2629642880560028.0,9.73963714003618e+16
8.72709894827539,3250042203357861.5,1.109760712823871e+17,1560459177377006.0,2779196052460379.5,16099667515739.246,63956455689489.59,2715702858354573.5,1.0059061486763189e+17
9.0016409272409,3251664727573924.5,1.1432821814639682e+17,1561238208288336.8,2780583517034826.0,16619876679558.164,66023282445711.375,2803480191365527.5,1.038486083430089e+17
9.281673745785717,3253219621169032.5,1.1774703053327075e+17,1561984767361816.2,2781913148832914.0,17150461830260.996,68131351330496.02,2893009161093947.5,1.0717162202165237e+17
9.567307220701432,3254710838505060.0,1.2123384944679558e+17,1562700753225494.2,2783188329336016.5,17691629944541.812,70281485736613.97,2984324737626652.5,1.1056095167242112e+17
9.85865336511546,3256142047439784.0,1.2479004199488176e+17,1563387926946733.8,2784412195028154.5,18243592143346.27,72474525572064.48,3077462592722069.5,1.1401791911502973e+17
10.155826432417769,3257516654709829.5,1.2841700195264462e+17,1564047924219461.0,2785587659101621.5,18806563770894.04,74711327576182.62,3172459113229224.0,1.1754387271003739e+17
10.458942961066125,3258837828686557.5,1.3211615033233246e+17,1564682266290075.2,2786717430916201.5,19380764475625.613,76992765643480.42,3269351414836516.5,1.2114018786148397e+17
10.768121820287448,3260108519815287.0,1.3588893596069368e+17,1565292369771020.5,2787804033477249.0,19966418293061.54,79319731155178.9,3368177356148402.5,1.2480826753203347e+17
11.083484256693197,3261331479007008.5,1.3973683606432611e+17,1565879555471310.0,2788849819162965.0,20563753730568.49,81693133318414.2,3468975553089092.5,1.2854954277054674e+17
11.405153941827061,3262509274216973.0,1.436613568635119e+17,1566445056356477.5,2789856983901159.0,21173003854033.03,84113899513122.56,3571785393633456.0,1.3236547325203662e+17
11.733257020663602,3263644305414285.5,1.4766403417501405e+17,1566990024736001.0,2790827579970194.0,21794406376448.66,86582975646632.36,3676647052866152.5,1.362575478300045e+17
12.067922161076874,3264738818120982.0,1.5174643402427712e+17,1567515538763907.0,2791763527576569.0,22428203748425.367,89101326516002.64,3783601508370764.5,1.4022728510118048e+17
12.409280604298411,3265794915676902.0,1.5591015326745264e+17,1568022608327550.5,2792666625342989.0,23074643250635.39,91669936178168.95,3892690555951323.5,1.4427623398272522e+17
12.75746621638438,3266814570367485.5,1.6015682022365664e+17,1568512180390464.5,2793538559823986.5,23733977088212.266,94289808327966.48,4003956825689198.5,1.4840597430196925e+17
13.112615540712067,3267799633535064.0,1.644880953178362e+17,1568985143847151.8,2794380914152404.0,24406462487122.48,96961966684114.6,4117443798338872.5,1.5261811739879146e+17
13.474867851526309,3268751844779975.0,1.689056717346264e+17,1569442333940856.0,2795195175907491.0,25092361792532.41,99687455383255.44,4233195822066579.0,1.5691430674075578e+17
13.844365208556836,3269672840345234.0,1.7341127608354778e+17,1569884536289335.0,2795982744284865.0,25791942569194.715,102467339382150.3,4351258129536050.5,1.6129621855114096e+17
14.221252512727972,3270564160767756.5,1.7800666907590458e+17,1570312490558494.2,2796744936639278.5,26505477703881.727,105302704868146.06,4471676855346240.0,1.657655624500207e+17
14.605677562982532,3271427257869675.5,1.826936462137182e+17,1570726893819150.2,2797482994463086.5,27233245509893.6,108194659678029.92,4594499053825965.0,1.7032408210855232e+17
14.997791114242183,3272263501154894.5,1.8747403849103885e+17,1571128403618252.2,2798198088856106.5,27975529833672.78,111144333725401.08,4719772717190914.0,1.7497355591665965e+17
15.397746936527026,3273074183669019.0,1.9234971310796483e+17,1571517640792426.2,2798891325536606.5,28732620163555.742,114152879436692.61,4847546794068703.0,1.7971579766429776e+17
15.805701875257567,3273860527374202.0,1.9732257419769603e+17,1571895192048643.5,2799563749437468.5,29504811740696.48,117221472195980.38,4977871208397765.0,1.8455265723650134e+17
16.221815912762718,3274623688085043.5,2.023945635669507e+17,1572261612334101.5,2800216348927014.5,30292405672196.164,120351310798730.3,5110796878706511.0,1.89486021322427e+17
16.64625223101797,3275364760006699.5,2.075676614500659e+17,1572617427015147.5,2800850059689695.0,31095709046475.934,123543617914629.67,5246375737778877.0,1.945178141386144e+17
17.079177275638333,3276084779912031.5,2.12843887277108e+17,1572963133882864.0,2801465768298014.5,31915035050929.582,126799640559662.1,5384660752713219.0,1.996499981666913e+17
17.5207608211511,3276784730990779.0,2.1822530045631222e+17,1573299205001192.0,2802064315504139.0,32750703091895.79,130120650577587.47,5525705945381131.0,2.0488457490576522e+17
17.97117603757412,3277465546400420.5,2.2371400117117418e+17,1573626088411830.2,2802646499276277.0,33603038916989.324,133507945130991.61,5669566413293483.0,2.102235856397442e+17
18.430599558325603,3278128112545278.0,2.2931213119252582e+17,1573944209708639.5,2803213077602754.5,34472374739832.37,136962847202079.39,5816298350880857.0,2.156691122198466e+17
18.899211549492115,3278773272107851.5,2.350218747059037e+17,1574253973493104.2,2803764771084191.0,35359049367228.34,140486706103384.72,5965959071195821.0,2.2122327786255206e+17
19.37719578048196,3279401826853960.0,2.4084545915455773e+17,1574555764721166.2,2804302265332241.5,36263408328821.18,144080897998579.22,6118607028044876.0,2.268882479632783e+17
19.864739696091597,3280014540231155.0,2.4678515609841258e+17,1574849949950819.5,2804826213191566.5,37185804009284.47,147746826433564.0,6274301838557687.0,2.3266623092603856e+17
20.36203449001343,3280612139777960.5,2.528432820893257e+17,1575136878498878.0,2805337236800062.5,38126595783085.58,151485922878033.75,6433104306201934.0,2.3855947900938576e+17
20.869275179813698,3281195319359915.5,2.590221995629697e+17,1575416883514573.5,2805835929500942.0,39086150151871.016,155299647277705.6,6595076444251707.0,2.4457028918891302e+17
21.38666068340997,3281764741246779.0,2.653243177476843e+17,1575690282976884.8,2806322857618994.0,40064840884520.62,159189488617412.56,6760281499718207.0,2.507010040366215e+17
21.91439389707817,3282321038043961.5,2.7175209359063296e+17,1575957380621905.8,2806798562112237.5,41063049159917.87,163156965495261.97,6928783977751003.0,2.5695401261744826e+17
22.452681775019734,3282864814490059.0,2.783080327016184e+17,1576218466805881.2,2807263560109021.0,42081163712486.68,167203626708065.2,7100649666518966.0,2.633317514032739e+17
23.00173541052013,3283396649131235.5,2.8499469031490112e+17,1576473819309156.8,2807718346339828.0,43119580980544.055,171331051848251.97,7275945662579529.0,2.698367052047125e+17
23.561770118730532,3283917095882306.5,2.9181467226937837e+17,1576723704085704.0,2808163394472222.5,44178705257519.664,175540851912478.72,7454740396745735.0,2.7647140812102237e+17
24.133005521105144,3284426685483393.0,2.9877063600748314e+17,1576968375962500.0,2808599158356443.5,45258948846094.95,179834669922157.44,7637103660460180.0,2.8323844450845222e+17
24.715665631527248,3284925926860316.5,3.058652915931655e+17,1577208079292718.0,2809026073188739.0,46360732215314.37,184214181556121.53,7823106632685465.0,2.9014044996736736e+17
25.309978944157795,3285415308396165.0,3.1310140274933024e+17,1577443048566244.0,2809444556598708.0,47484484160723.15,188681095795661.7,8012821907320879.0,2.971801123484915e+17
25.91617852304095,3285895299120808.5,3.2048178791509523e+17,1577673508980793.0,2809855009666479.0,48630641967585.51,193237155582161.97,8206323521155197.0,3.043601727786221e+17
26.53450209350177,3286366349824551.0,3.280093213232624e+17,1577899676976637.8,2810257817875052.5,49799651577241.19,197884138487572.16,8403686982365657.0,3.116834267061557e+17
27.165192135371807,3286828894101632.0,3.356869340983769e+17,1578121760737605.2,2810653352002596.5,50991967756655.15,202623857397959.4,8604989299573422.0,3.191527249668067e+17
27.808495978079243,3287283349328787.5,3.435176153757677e+17,1578339960660934.5,2811041968959244.0,52208054271219.88,207458161210383.0,8810309011465982.0,3.267709748698715e+17
28.464665897640828,3287730117583587.0,3.515044134419706e+17,1578554469798192.0,2811424012572399.5,53448384060868.34,212388935543344.25,9019726216997184.0,3.345411413054147e+17
29.133959215593645,3288169586506965.5,3.596504368969241e+17,1578765474269413.0,2811799814324316.0,54713439419557.63,217418103461064.25,9233322606175736.0,3.4246624787276736e+17
29.816638399905518,3288602130114007.5,3.679588558383635e+17,1578973153652385.0,2812169694045406.5,56003712178184.7,222547626211850.62,9451181491453194.0,3.505493780307086e+17
30.51297116790363,3289028109556618.0,3.764329030688084e+17,1579177681348823.0,2812533960566428.0,57319703890995.164,227779503980817.62,9673387839722890.0,3.5879367626974214e+17
31.223230591261704,3289447873841540.0,3.850758753255808e+17,1579379224929130.2,2812892912332478.0,58661926025548.83,233115776657225.9,9900028304940940.0,3.6720234930685395e+17
31.947695203086937,3289861760506821.0,3.9389113453426816e+17,1579577946457178.5,2813246837981462.0,60030900156305.92,238558524616719.5,1.0131191261381402e+16,3.757786673031683e+17
32.686649107148675,3290270096259627.5,4.028821090860733e+17,1579774002796565.5,2813596016889511.0,61427158161898.08,244109869518733.8,1.0366966837536976e+16,3.845259651049101e+17
33.44038208929165,3290673197578140.5,4.120522951394865e+17,1579967545899576.0,2813940719685657.0,62851242426150.94,249771975119364.94,1.0607446950678018e+16,3.9344764350809965e+17
34.20918973107749,3291071371279853.0,4.21405257946728e+17,1580158723080072.5,2814281208737832.5,64303706042925.62,255547048099980.44,1.085272534208144e+16,4.0254717054740576e+17
34.993373525699035,3291464915058715.5,4.3094463320540966e+17,1580347677271382.2,2814617738612163.5,65785113024845.68,261437338911871.8,1.110289761294245e+16,4.118280828095879e+17
35.793240996213015,3291854117993111.5,4.40674128435886e+17,1580534547270189.0,2814950556507375.5,67296038515980.234,267445142637244.12,1.135806126098193e+16,4.212939867719795e+17
36.60910581613728,3292239261026677.5,4.505975243847505e+17,1580719467967402.0,2815279902665946.5,68837069008553.08,273572799866848.0,1.1618315717762064e+16,4.30948560166453e+17
37.44128793246003,3292620617423728.0,4.6071867645496026e+17,1580902570566822.0,2815606010763567.5,70408802563748.3,279822697594561.0,1.1883762386723792e+16,4.407955533693246e+17
38.29011369110923,3292998453201033.5,4.7104151616306e+17,1581083982792443.2,2815929108278345.5,72011849036685.73,286197270129234.75,1.215450468195924e+16,4.5083879081766266e+17
39.15591596493141,3293373027537402.0,4.815700526240057e+17,1581263829085113.8,2816249416841063.0,73646830305638.58,292699000024126.3,1.2430648067732886e+16,4.610821724524791e+17
40.03903428423004,3293744593162602.0,4.923083740640728e+17,1581442230789277.5,2816567152567747.0,75314380505569.36,299330419024241.44,1.2712300098765296e+16,4.715296751892584e+17
40.93981496991464,3294113396726906.0,5.0326064936236224e+17,1581619306330388.2,2816882526375685.0,77015146266057.6,306094109031914.7,1.2999570461293732e+16,4.821853544163377e+17
41.85861126931294,3294479679152512.5,5.144311296214013e+17,1581795171383663.8,2817195744283935.5,78749786953698.45,312992703090969.3,1.3292571014923552e+16,4.930533455216133e+17
