t(s),Total solute volume 1,Total retention volume 1,Total 1 volume 1,Total 2 volume 1,Total 3 volume 1,Total 4 volume 1,Total 5 volume 1,Total 6 volume 1
0.1,1063829490026819.8,1368988609462191.8,135960145783138.03,169198973652234.8,0.0,0.0,0.0,0.0
0.202,1602207429685363.2,2061803833327663.5,204766232533144.7,254826417517120.38,3247676.31636422,7433330.112973813,140157951.44099864,3602753078.1430984
0.30604000000000003,2012395501109625.8,2589659983519951.0,257189323729690.4,320065634207700.4,8239706.0455747,18859172.558583386,355601301.8552901,9141772752.390318
0.41216080000000005,2359381061190909.5,3036185626722021.5,301534971272365.2,375252675535477.06,14635789.312483331,33498638.765188273,631641199.3041977,16238947643.547916
0.5204040160000001,2667540796541090.5,3432749719287512.0,340918578483432.25,424264582611795.25,22284881.438445836,51006014.42741487,961758573.1997323,24726601725.952732
0.6308120963200001,2949023961933963.5,3794986431953020.5,376892851397993.75,469033659019784.44,31105993.179378413,71195929.73659287,1342457996.7883656,34514841357.31945
0.7434283382464002,3210892801561466.5,4131983757746714.0,410360363001195.2,510683134114799.3,41052854.39420887,93962480.68484592,1771742500.2257714,45552311418.796074
0.8582969050113283,3457671824590992.5,4449564029598250.5,441899357209436.25,549932617889061.6,52099394.71920032,119245996.91318326,2248486914.411512,57810076455.55887
0.9754628431115548,3692461640652175.0,4751717250886976.0,471906099913176.0,587275253263074.5,64232589.97325211,147016668.41642693,2772129126.0479503,71273680159.5182
1.094972099973786,3917494968162405.5,5041316589986275.0,500665938272191.3,623066147590051.6,77448500.77104455,177265478.64206955,3342499107.995169,85938748543.37871
1.2168715419732616,4134441898247824.5,5320511206284352.0,528392314230419.2,657570923992943.9,91749892.4170729,209998756.8573228,3959716196.7161603,101808348328.43982
1.3412089728127268,4344589946955827.0,5590957948556844.0,555249775652132.94,690994358143999.4,107144716.62561895,245234703.0806037,4624123565.328401,118891301897.17883
1.4680331522689813,4548956377404419.0,5853965895514445.0,581368331381712.4,723498242775138.2,123645098.0534996,283001068.4383954,5336244483.805222,137201062529.49533
1.597393815314361,4748361502461601.0,6110590684520908.0,606852819514732.0,755213046255403.0,141266633.72144306,323333551.6676676,6096752083.053955,156754936899.38504
1.729341691620648,4943478331462035.0,6361698398877920.0,631789252376115.0,786245808756460.8,160027895.4329754,366274660.24287623,6906447880.087955,177573532864.37964
1.863928525453061,5134867256879633.0,6608010203940731.0,656249249566165.4,816685659066722.5,179950068.974519,411872884.5704099,7766246206.477588,199680359056.5011
2.001207095962122,5323000938051168.0,6850134368422299.0,680293218164483.9,846607772275035.0,201056688.47737744,460182089.99135464,8677162743.843807,223101530083.73206
2.1412312378813647,5508282563391985.0,7088589764890672.0,703972686688123.2,876076274322807.0,223373438.83747065,511261064.5561246,9640305996.618002,247865547261.09735
2.284055862638992,5691059521226146.0,7323823461901501.0,727332052258876.6,905146416309686.5,246928007.99959058,565173180.9299315,10656870916.873955,274003134680.25055
2.4297369798917723,5871633813208219.0,7556224124378486.0,750409911465376.0,933866230717923.4,271749976.5717347,621986143.740047,11728134140.264765,301547116706.83594
2.578331719489608,6050270109666320.0,7786132379534263.0,773240089856666.1,962277812591177.4,297870735.93580663,681771802.1460621,12855450451.814869,330532327102.02386
2.7298983538794,6227202067069128.0,8013848946431467.0,795852449330734.1,990418324309236.2,325323428.5042434,744606013.09817,14040250207.492413,360995542720.5953
2.884496320956988,6402637344038712.0,8239641090788397.0,818273529193875.6,1018320793370208.4,354142905.4767744,810568544.6500764,15284037511.057222,392975436629.8063
3.0421862473761276,6576761628609040.0,8463747807422497.0,840527060854680.6,1046014752914252.1,384365698.64573675,879743011.42649,16588388997.2196,426512546818.5351
3.2030299723236504,6749741904458580.0,8686384023381466.0,862634385256977.8,1073526761208347.4,416030003.6502215,952216836.294923,17954953108.910076,461649257611.6512
3.3670905717701234,6921729124428669.0,8907744038350874.0,884614794562352.0,1100880826861580.4,449175672.6971357,1028081233.7055471,19385449783.12442,498429791590.13324
3.5344323832055258,7092860417405500.0,9128004364580384.0,906485814195348.2,1128098759823303.8,483844215.22203374,1107431211.203721,20881670479.43469,536900210322.19214
3.7051210308696363,7263260924173907.0,9347326089360006.0,928263437470305.4,1155200463370309.8,520078805.30191576,1190365586.3965702,22445478499.902393,577108422587.2129
3.879223451487029,7433045335565825.0,9565856854401310.0,949962322170690.2,1182204178744862.0,557924294.8886316,1276987017.2418532,24078809560.198467,619104199058.9492
4.0568079205167695,7602319189722280.0,9783732525239744.0,971595956342523.9,1209126691480452.2,597427232.1275586,1367402043.9761255,25783672580.19408,662939192631.9071
4.237944078927105,7771179972922443.0,1.0001078607862432e+16,993176798983151.5,1235983506485405.0,638635884.1777,1461721141.3457932,27562150668.824192,708666963743.0483
4.422702960505647,7939718059069105.0,1.021801145771586e+16,1014716400109917.9,1262788997465342.0,681600264.0676285,1560058780.0755477,29416402283.13033,756343010172.0776
4.61115701971576,8108017515758515.0,1.0434639317031834e+16,1036225503777968.0,1289556535126228.2,726372161.214852,1662533496.721645,31348662545.40976,806024800907.037
4.803380160110075,8276156799334473.0,1.0651063209296716e+16,1057714136909934.5,1316298597720687.0,773005175.3103006,1769267971.227393,33361244705.59704,857771813744.2223
4.9994477633122765,8444209357021466.0,1.0867377714149094e+16,1079191686250120.2,1343026866815522.2,821554753.3290731,1880389111.634034,35456541738.567924,911645576357.2567
5.199436718578522,8612244150854182.0,1.1083671641644474e+16,1100666965324023.8,1369752310621197.5,872078229.4766238,1996028145.5103629,37637028068.13257,967709710623.6287
5.403425452950093,8780326115448224.0,1.1300028621386818e+16,1122148272942623.0,1396485256798903.5,924634867.9187833,2116320717.7539976,39905261411.17168,1026029980040.4292
5.611493962009095,8948516559529157.0,1.1516527619288332e+16,1143643444518815.8,1423235456322609.8,979285908.1761734,2241406994.490986,42263884736.76463,1086674340096.7344
5.823723841249277,9116873519430646.0,1.1733243392524174e+16,1165159897245398.0,1450012139701894.0,1036094613.0902634,2371431772.861435,44715628336.302505,1149712991499.7002
6.040198318074262,9285452071395952.0,1.1950246891475672e+16,1186704670007995.2,1476824066652591.5,1095126319.2905278,2506544596.5297174,47263312001.54539,1215218436176.107
6.261002284435747,9454304608399484.0,1.2167605616019138e+16,1208284458763551.2,1503679570124447.8,1156448490.1108952,2646899876.800643,49909847308.3849,1283265535991.8052
6.486222330124463,9623481086292764.0,1.2385383932343088e+16,1229905647998461.2,1530586595449929.0,1220130770.9195185,2792657019.259283,52658240004.761635,1353931574149.2412
6.715946776726952,9793029243331728.0,1.2603643355513164e+16,1251574338784684.5,1557552735259396.5,1286245046.839415,2943980555.8831024,55511592501.76702,1427296319237.9968
6.950265712261491,9962994796523848.0,1.2822442802210956e+16,1273296373873412.8,1584585260709517.0,1354865502.8491719,3101040282.6016207,58473106467.46512,1503442091926.5283
7.18927102650672,1.0133421617722496e+16,1.3041838817413436e+16,1295077360200416.5,1611691149490612.5,1426068686.2631166,3264011402.302134,61546085523.40538,1582453834294.2617
7.433056447036854,1.0304351891970928e+16,1.3261885778232556e+16,1316922689122774.5,1638877111010747.8,1499933571.5989902,3433074673.300243,64733938044.17712,1664419181813.104
7.681717575977592,1.0475826260240724e+16,1.3482636077676144e+16,1338837554661253.2,1666149609097908.8,1576541627.8492503,3608416563.3115673,68040180060.699165,1749428537996.168
7.935351927497144,1.0647883948412128e+16,1.3704140290706612e+16,1360826969984281.2,1693514882513921.0,1655976888.1788204,3790229408.977415,71468438268.22969,1837575151739.0823
8.194058966047088,1.082056288409051e+16,1.3926447324649886e+16,1382895782337433.5,1720978963533800.0,1738326022.0785666,3978711581.010921,75022453140.35928,1928955197386.3347
8.45794014536803,1.0993899802641142e+16,1.414960455573207e+16,1405048686594917.8,1748547694810223.5,1823678410.0092323,4174067655.0436907,78706082150.491,2023667857561.2427
8.72709894827539,1.1167930343642574e+16,1.4373657953290104e+16,1427290237586605.2,1776226744714199.8,1912126220.575951,4376508588.2641535,82523303102.52786,2121815408804.0078
9.0016409272409,1.1342689138805e+16,1.4598652193001396e+16,1449624861334160.0,1804021621318216.0,2003764490.2780242,4586251901.95053,86478217572.71307,2223503310067.5005
9.281673745785717,1.1518209892268346e+16,1.4824630760310874e+16,1472056865313419.0,1831937685167416.5,2098691205.8832498,4803521870.010718,90575054464.73096,2328840294125.395
9.567307220701432,1.1694525454081648e+16,1.5051636045085852e+16,1494590447845164.5,1859980160966273.5,2197007389.480124,5028549713.651513,94818173680.38704,2437938461951.9194
9.85865336511546,1.187166788756727e+16,1.5279709428405528e+16,1517229706704524.0,1888154148292683.8,2298817186.2653036,5261573802.308112,99212069908.33061,2550913380136.801
10.155826432417769,1.2049668531191236e+16,1.5508891362283334e+16,1539978647028094.0,1916464631438258.2,2404227955.1273055,5502839860.974046,103761376533.4616,2667884181403.1196
10.458942961066125,1.2228558055486294e+16,1.5739221443026446e+16,1562841188588886.8,1944916488461753.0,2513350362.0911665,5752601184.078982,108470869669.80882,2788973668299.953
10.768121820287448,1.2408366515513032e+16,1.597073847885678e+16,1585821172501000.5,1973514499532907.0,2626298476.6922426,6011118856.071072,113345472319.8229,2914308420145.2744
11.083484256693197,1.2589123399288922e+16,1.6203480552346516e+16,1608922367408936.2,2002263354634856.2,2743189871.350585,6278661978.866871,118390258663.16989,3044018903298.6333
11.405153941827061,1.2770857672566584e+16,1.643748507816002e+16,1632148475210426.2,2031167660686076.5,2864145723.8208165,6555507906.340743,123610458478.25612,3178239584846.575
11.733257020663602,1.2953597820302514e+16,1.6672788856539446e+16,1655503136356222.8,2060231948135814.5,2989290922.7956166,6841942486.032194,129011461699.85721,3317109049787.4897
12.067922161076874,1.3137371885119728e+16,1.6909428122926294e+16,1678989934765699.5,2089460677081451.2,3118754176.7440925,7138260308.257131,134598823116.35756,3460770121806.208
12.409280604298411,1.3322207503035296e+16,1.7147438594067156e+16,1702612402392958.0,2118858242950889.8,3252668126.0696034,7444764962.817099,140378267210.2494,3609369987732.014
12.75746621638438,1.3508131936696704e+16,1.738685551091762e+16,1726374023474517.8,2148428981788699.2,3391169458.674734,7761769303.506608,146355693145.6817,3763060325777.5283
13.112615540712067,1.3695172104838896e+16,1.7627713678675402e+16,1750278238302660.0,2178177174984913.0,3534399029.5746593,8089595738.18596,152537188636.66846,3921999365536.2397
13.474867851526309,1.3883354617193772e+16,1.7870047503940416e+16,1774328447652206.0,2208107054652165.8,3682501981.3640914,8428576439.737566,158929000550.5103,4086344363271.768
13.844365208556836,1.407270579244369e+16,1.8113891029747132e+16,1798528015127186.0,2238222806743952.5,3835627873.8244066,8779053739.242281,165537592059.52826,4256263158629.342
14.221252512727972,1.4263251689490746e+16,1.8359277968148132e+16,1822880271122359.0,2268528575852655.5,3993930811.8968124,9141380354.944363,172369614011.3865,4431926757209.012
14.605677562982532,1.4455018129599906e+16,1.8606241730802748e+16,1847388515661835.5,2299028468775142.0,4157569580.247885,9515919716.132833,179431919220.88666,4613511357356.58
14.997791114242183,1.464803071858232e+16,1.885481545768346e+16,1872056021234171.5,2329726558040980.5,4326707781.298996,9903046279.066107,186731568427.13763,4801198503531.409
15.397746936527026,1.4842314867630818e+16,1.9105032044052612e+16,1896886035455211.5,2360626885226272.0,4501513977.367462,10303145852.3073,194275836428.07452,4995175244035.994
15.805701875257567,1.503789581291468e+16,1.9356924165846744e+16,1921881783572318.5,2391733464070121.0,4682161837.032877,10716615931.73078,202072218397.33496,5195634293434.45
16.221815912762718,1.5234798634030894e+16,1.961052430359522e+16,1947046470822536.5,2423050283409273.0,4868830285.8464775,11143866045.46849,210128436388.56107,5402774199789.825
16.64625223101797,1.5433048271400846e+16,1.9865864764986424e+16,1972383284655902.8,2454581309945008.0,5061703661.503975,11585318109.072935,218452446032.34396,5616799516855.001
17.079177275638333,1.5632669542693042e+16,2.012297770618593e+16,1997895396834322.2,2486330490855112.5,5260971873.606861,12041406791.181904,227052443431.19363,5837920981354.656
17.5207608211511,1.5833687158345754e+16,2.038189515200207e+16,2023585965415381.0,2518301756262692.5,5466830568.139809,12512579889.97785,235936872258.04578,6066355695501.097
17.97117603757412,1.6036125736256508e+16,2.0642649014984756e+16,2049458136629744.2,2550499021572550.5,5679481296.796477,12999298720.744205,245114431064.02155,6302327314889.869
18.430599558325603,1.6240009815700548e+16,2.090527111353832e+16,2075515046659942.8,2582926189684847.5,5899131691.289175,13502038514.828941,254594080801.2725,6546066241925.922
18.899211549492115,1.6445363870534692e+16,2.116979318911962e+16,2101759823327842.8,2615587153095096.5,6125995642.782102,14021288830.334906,264385052566.95282,6797809824935.241
19.37719578048196,1.6652212321737426e+16,2.1436246922589652e+16,2128195587697357.8,2648485795888713.5,6360293486.591462,14557553974.865608,274496855574.5031,7057802563121.052
19.864739696091597,1.686057954933415e+16,2.1704663949778704e+16,2154825455598464.8,2681625995637609.0,6602252192.300381,15111353440.663795,284939285358.6178,7326296317528.515
20.36203449001343,1.707048990374984e+16,2.197507587632209e+16,2181652539078138.2,2715011625205846.5,6852105559.440026,15683222352.490734,295722432220.44794,7603550528186.206
20.869275179813698,1.7281967716630102e+16,2.2247514291817984e+16,2208679947783311.0,2748646554470703.0,7110094418.893062,16273711928.602425,306856689919.7592,7889832437597.349
21.38666068340997,1.7495037311167406e+16,2.2522010783355116e+16,2235910790280565.5,2782534651964975.0,7376466840.179679,16883389955.19044,318352764620.97577,8185417320758.902
21.91439389707817,1.7709723011966218e+16,2.2798596948454836e+16,2263348175316959.0,2816679786446054.0,7651478344.790821,17512841274.663193,330221684100.21375,8490588721890.749
22.452681775019734,1.7926049154479e+16,2.3077304407467304e+16,2290995213025931.5,2851085828396667.0,7935392125.737757,18162668288.155884,342474807220.585,8805638698063.324
23.00173541052013,1.8144040094041684e+16,2.3358164815460064e+16,2318855016082081.0,2885756651461940.0,8228479273.492094,18833491472.66666,355123833683.3115,9130868069915.924
23.561770118730532,1.8363720214535624e+16,2.3641209873633588e+16,2346930700808225.5,2920696133827088.5,8531019008.494351,19525949913.226963,368180814062.3247,9466586679664.328
24.133005521105144,1.8585113936701056e+16,2.3926471340295988e+16,2375225388237784.0,2955908159539629.5,8843298920.414732,20240701850.527107,381658160130.2673,9813113656600.59
24.715665631527248,1.8808245726124788e+16,2.421398104142657e+16,2403742205135730.5,2991396619779744.0,9165615214.35424,20978425244.42622,395568655484.0359,10170777690294.383
25.309978944157795,1.9033140100923496e+16,2.4503770880855896e+16,2432484284980449.5,3027165414082388.0,9498272964.179558,21739818353.790627,409925466478.1924,10539917311710.01
25.91617852304095,1.925982163914241e+16,2.4795872850088416e+16,2461454768909392.0,3063218451513970.0,9841586373.189983,22525600333.114075,424742153474.8161,10920881182459.094
26.53450209350177,1.9488314985888196e+16,2.5090319037791332e+16,2490656806630599.5,3099559651806810.5,10195879042.320406,23336511846.38627,440032682418.59406,11314028392415.57
27.165192135371807,1.9718644860212428e+16,2.538714163897144e+16,2520093557302477.5,3136192946453946.5,10561484246.089064,24173315698.688225,455811436746.1535,11719728765923.98
27.808495978079243,1.995083606176176e+16,2.56863729638615e+16,2549768190383697.5,3173122279766865.5,10938745216.505255,25036797486.006092,472093229638.9352,12138363176839.53
28.464665897640828,2.018491347721024e+16,2.5988045446534904e+16,2579683886455233.0,3210351609898450.0,11328015435.156492,25927766263.766922,488893316629.05566,12570323872644.186
29.133959215593645,2.0420902086486196e+16,2.629219165326647e+16,2609843838016218.5,3247884909833450.0,11729658933.70173,26847055234.61382,506227408567.9721,13016014807888.62
29.816638399905518,2.0658826968808064e+16,2.659884429065704e+16,2640251250255290.5,3285726168348390.5,12144050603.002272,27795522455.951393,524111684967.9049,13475851987217.684
30.51297116790363,2.089871330853959e+16,2.6908036213535496e+16,2670909341798968.0,3323879390942880.5,12571576511.127777,28774051567.805347,542562807726.2956,13950263818242.123
31.223230591261704,2.1140586400877036e+16,2.721980043265607e+16,2701821345438414.0,3362348600744082.0,13012634230.481909,29783552541.554035,561597935243.8352,14439691474527.064
31.947695203086937,2.1384471657377376e+16,2.7534170122200892e+16,2732990508836009.0,3401137839386001.5,13467633174.29734,30824962450.10632,581234736946.8314,14944589268974.164
32.686649107148675,2.1630394611338296e+16,2.7851178627103684e+16,2764420095212901.5,3440251167865156.0,13936994942.756634,31899246260.10996,601491408225.013,15465425037881.016
33.44038208929165,2.18783809230383e+16,2.8170859470204064e+16,2796113384018712.5,3479692667373975.5,14421153679.002087,33007397646.79514,622386685796.0634,16002680535968.945
34.20918973107749,2.212845638484532e+16,2.849324635924552e+16,2828073671584441.0,3519466440113331.0,14920556435.303816,34150439832.0678,643939863508.582,16556851842677.143
34.993373525699035,2.238064692620185e+16,2.8818373193725456e+16,2860304271759567.0,3559576610085427.0,15435663549.662539,35329426446.48622,666170808595.3143,17128449780028.096
35.793240996213015,2.2634978618493796e+16,2.9146274071608436e+16,2892808516534285.5,3600027323868091.5,15966949033.129772,36545442415.76798,689099978388.9055,17718000342377.496
36.60910581613728,2.289147767980856e+16,2.9476983295909584e+16,2925589756647647.5,3640822751371642.0,16514900968.13545,37799604872.49071,712748437512.663,18326045138367.95
37.44128793246003,2.315017047958956e+16,2.9810535381158004e+16,2958651362182356.5,3681967086579104.5,17080021918.1197,39093064093.666,737137875559.1241,18953141845414.508
38.29011369110923,2.3411083543191012e+16,3.0146965059744804e+16,2991996723146953.0,3723464548270664.5,17662829348.77222,40427004464.881744,762290625269.5342,19599864677056.465
39.15591596493141,2.3674243556338724e+16,3.048630728816398e+16,3025629250045846.0,3765319380733122.0,18263856061.19079,41802645471.72326,788229681227.6263,20266804863518.438
40.03903428423004,2.3939677369498816e+16,3.082859725314952e+16,3059552374437701.0,3807535854454744.5,18883650637.275455,43221242719.20202,814978719081.4363,20954571145830.168
40.93981496991464,2.4207412002158896e+16,3.1173870377713656e+16,3093769549482550.0,3850118266806161.0,19522777897.68472,44684088979.93446,842562115307.091,21663790283862.68
41.85861126931294,2.4477474647021844e+16,3.152216232708782e+16,3128284250477791.5,3893070942707368.0,20181819372.68297,46192515271.828026,871004967528.9302,22395107578645.13
42.7957834946992,2.474989267411339e+16,3.187350901456805e+16,3163099975383131.0,3936398235281041.0,20861373786.220085,47747891966.051384,900333115410.497,23149187409334.17
43.751699164593184,2.5024693634802464e+16,3.2227946607263636e+16,3198220245334391.0,3980104526491927.5,21562057553.58504,49351629926.07442,930573162131.2511,23926713785214.297
