t(s),Total solute volume 1,Total retention volume 1,Total 1 volume 1,Total 2 volume 1,Total 3 volume 1,Total 4 volume 1,Total 5 volume 1,Total 6 volume 1
0.1,1012905215437994.5,1251976985692815.0,109237715628389.53,129834054626431.92,0.0,0.0,0.0,0.0
0.202,1500527470486221.5,1908603920581590.2,161825796933554.28,192337412547663.75,59497383139.42917,126880870580.22678,2151734543468.735,51575127816962.39
0.30604000000000003,1853901252446296.5,2426026997732930.5,199935725038488.4,237632817568581.34,148483119301.01096,316650673598.87885,5370034498408.393,128722034388250.39
0.41216080000000005,2138394356841635.2,2878255141327593.5,230617151627962.47,274099106309073.7,259471702013.86853,553348062000.9137,9384194901856.855,224947511883043.12
0.5204040160000001,2378968387741725.5,3292770991926123.0,256562084404488.47,304935853988190.2,388744224054.83405,829043794936.498,14059743281678.322,337027134491053.56
0.6308120963200001,2588297485637059.5,3683162348293488.0,279137377980074.88,331767630281332.4,534007922450.8907,1138849786349.8965,19313783557000.88,462973213129220.4
0.7434283382464002,2773885292275059.5,4057278559830548.0,299152269660867.44,355556251001594.0,693689853209.5951,1479412910745.595,25089451348580.824,601422192780483.9
0.8582969050113283,2940625312099736.0,4420127071242784.0,317134504038490.1,376928964902964.4,866641085830.8589,1848284224172.6597,31345216375835.633,751378148515751.1
0.9754628431115548,3091928615499168.5,4775132521096061.0,333451951208581.5,396323002536670.5,1051988007824.3967,2243601888195.488,38049505108309.445,912083856847318.5
1.094972099973786,3230291459786671.0,5124762105702222.0,348373822389833.06,414058333834499.8,1249048214888.9282,2663911817796.392,45177659120124.91,1082947870538415.6
1.2168715419732616,3357609594159647.5,5470867217357162.0,362104566438097.4,430377955677216.56,1457278815706.5286,3108057450478.651,52710065684145.29,1263499699131872.5
1.3412089728127268,3475365266342697.5,5814883962536934.0,374804037753810.25,445471862381487.3,1676242637389.6973,3575107686640.301,60630935717116.32,1453360510017787.2
1.4680331522689813,3584744923915970.0,6157957645421838.0,386600189892506.6,459492132640630.3,1905585054753.018,4064307484020.3384,68927465916586.95,1652223040517377.2
1.597393815314361,3686716724352057.0,6501023619494461.0,397597434707689.25,472562864750918.44,2145017490214.4626,4575042676424.038,77589242127641.97,1859837293389509.5
1.729341691620648,3782083514186995.0,6844861790362521.0,407882355939372.7,484786967474703.0,2394305296459.189,5106814138106.537,86607801202517.48,2076000032124374.2
1.863928525453061,3871520188202197.0,7190134520746698.0,417527738250213.5,496250948735418.1,2653258628144.3843,5659218321877.236,95976300951887.83,2300546867656960.5
2.001207095962122,3955600741623444.5,7537413701831294.0,426595484695360.8,507028383164859.5,2921725416820.012,6231932282024.276,105689266153943.19,2533346168494845.0
2.1412312378813647,4034818310883971.0,7887200535552173.0,435138778037412.5,517182480925537.1,3199585865571.2793,6824701937845.832,115742389520671.28,2774294288381165.5
2.284055862638992,4109600317573164.0,8239940282434865.0,443203713959803.7,526768028860016.25,3486748067127.173,7437332732837.952,126132373291876.12,3023311767950038.5
2.4297369798917723,4180320112913411.0,8596033451744614.0,450830556876374.3,535832883078408.0,3783144469144.507,8069682100399.361,136856801465759.27,3280340270841127.0
2.578331719489608,4247306070212382.5,8955844426370186.0,458054720515436.06,544419134427701.2,4088728989538.609,8721653315714.742,147914035537588.1,3545340083371828.0
2.7298983538794,4310848782474069.0,9319708204667386.0,464907544152908.56,552564031080581.44,4403474638333.896,9393190427776.62,159303128556354.78,3818288053337367.0
2.884496320956988,4371206830338723.5,9687935737807128.0,471416914661227.7,560300717869214.4,4727371539639.408,10084274044684.178,171023753652118.4,4099175875701540.5
3.0421862473761276,4428611455638747.0,1.006081820442286e+16,477607770533374.94,567658835341009.9,5060425273605.239,10794917801332.566,183076144135998.66,4388008655698803.0
3.2030299723236504,4483270386224035.0,1.0438630470689634e+16,483502514374770.44,574665010024231.8,5402655477113.323,11525165378903.379,195461042958170.56,4684803696252406.0
3.3670905717701234,4535370994725057.0,1.0821633918648898e+16,489121353563045.56,581343259317823.6,5754094655786.389,12275087975055.281,208179659809335.0,4989589468602790.0
3.5344323832055258,4585082928930072.0,1.1210078779290618e+16,494482583923543.6,587715328652816.4,6114787170170.219,13044782145619.246,221233634522583.88,5302404733945825.0
3.7051210308696363,4632560318829307.0,1.1604206073588716e+16,499602827750090.3,593800974390954.6,6484788366677.962,13834367955089.357,234625005712218.3,5623297790584391.0
3.879223451487029,4677943641398166.0,1.2004249240386618e+16,504497234914270.6,599618202852351.0,6864163829779.007,14643987385771.428,248356183799232.6,5952325826207053.0
4.0568079205167695,4721361306338674.0,1.241043551208035e+16,509179653881229.94,605183473575636.0,7252988736458.528,15473802965136.867,262429927737462.56,6289554358845746.0
4.237944078927105,4762931012555083.0,1.28229870856372e+16,513662778000047.94,610511873190798.9,7651347297512.622,16323996578477.287,276849324882372.8,6635056753132901.0
4.422702960505647,4802760914904028.0,1.3242122126359202e+16,517958271333008.06,615617264973069.9,8059332273027.064,17194768439889.096,291617773545102.5,6988913800891061.0
4.61115701971576,4840950632891060.0,1.3668055634075262e+16,522076877439427.56,620512418137515.6,8477044551595.652,18086336199325.7,306738967854243.3,7351213357002094.0
4.803380160110075,4877592126878793.0,1.4101000195499788e+16,526028513871148.75,625209120151282.5,8904592784601.484,18998934167223.152,322216884611708.7,7722050023035036.0
4.9994477633122765,4912770462591242.0,1.454116664187637e+16,529822354621227.8,629718274727658.8,9342093068307.559,19932812641240.594,338055771880553.1,8101524872346141.0
5.199436718578522,4946564480927192.0,1.4988764627411648e+16,533466902360584.3,634049987682653.1,9789668667660.703,20888237322124.113,354260139084425.6,8489745211366994.0
5.403425452950093,4979047387095194.0,1.5444003141152652e+16,536970051973825.56,638213642450254.4,10247449776657.04,21865488807717.96,370834748432536.9,8886824372616447.0
5.611493962009095,5010287270681537.0,1.5907090962697248e+16,540339146646463.8,642217966744668.6,10715573310895.566,22864862155804.867,387784607512102.1,9292881535645782.0
5.823723841249277,5040347566325226.0,1.6378237070316432e+16,543581027546840.0,646071091609578.9,11194182728589.027,23886666507829.453,405114962913553.7,9708041572684802.0
6.040198318074262,5069287463103336.0,1.6857651008609246e+16,546702077976674.0,649780603893098.5,11683427876836.951,24931224766700.887,422831294773103.94,1.0132434916219514e+16
6.261002284435747,5097162269447426.0,1.7345543221634332e+16,549708262725818.4,653353593022714.9,12183464860413.266,25998873322824.05,440939312133480.4,1.0566197446121622e+16
6.486222330124463,5124023739359785.0,1.7842125356499122e+16,552605163253361.6,656796692819647.5,12694455930696.857,27089961823312.566,459444949037251.0,1.1009470394275072e+16
6.715946776726952,5149920364829412.0,1.8347610541604868e+16,555398009223491.44,660116118980677.1,13216569392690.947,28204852980013.92,478354361278633.0,1.1462400264919952e+16
6.950265712261491,5174897638627735.0,1.88622136430979e+16,558091706846962.4,663317702763274.5,13749979528347.158,29343922412550.75,497673923749448.75,1.1925138769169584e+16
7.18927102650672,5198998291064027.0,1.9386151502544684e+16,560690864414194.44,666406921332889.9,14294866534638.676,30507558523073.383,517410228323165.8,1.2397842772352752e+16
7.433056447036854,5222262503778125.0,1.9919643158405016e+16,563199815351957.4,669388925166841.8,14851416475023.586,31696162399835.605,537570082228075.4,1.2880674253005176e+16
7.681717575977592,5244728103225634.0,2.04629100535074e+16,565622639089956.1,672268562855264.5,15419821243106.953,32910147747066.156,558160506866752.0,1.3373800272479628e+16
7.935351927497144,5266430736154552.0,2.1016176230422904e+16,567963179985283.2,675050403593647.0,16000278537456.291,34149940838916.17,579188737044171.2,1.3877392954268898e+16
8.194058966047088,5287404029070115.0,2.157966851637267e+16,570225064520047.5,677738757623034.8,16592991846649.076,35415980495531.95,600662220571401.9,1.439162947224591e+16
8.45794014536803,5307679733427363.0,2.2153616699084936e+16,572411716959803.1,680337694840781.5,17198170443740.15,36708718079533.24,622588618215749.6,1.4916692047118e+16
8.72709894827539,5327287858071891.0,2.2738253694833476e+16,574526373636750.0,682851061776798.2,17816029389430.688,38028617511378.17,644975803971578.2,1.545276795047563e+16
9.0016409272409,5346256790261176.0,2.3333815709728816e+16,576572096001395.6,685282497106043.9,18446789543303.957,39376155302275.016,667831865629123.8,1.6000049515885492e+16
9.281673745785717,5364613406437239.0,2.3940542395203144e+16,578551782568926.2,687635445847346.8,19090677582562.773,40751820603449.43,691165105621134.6,1.6558734156542478e+16
9.567307220701432,5382383173782134.0,2.455867699851044e+16,580468179871566.4,689913172380781.8,19747926027769.36,42156115270719.086,714984042129488.9,1.7129024389047982e+16
9.85865336511546,5399590243467628.0,2.518846650896899e+16,582323892515167.1,692118772400400.8,20418773275142.05,43589553943435.875,739297410436035.4,1.7711127862931188e+16
10.155826432417769,5416257536405430.0,2.5830161800586164e+16,584121392427032.8,694255183905679.6,21103463635012.156,45052664136973.28,764114164503517.1,1.8305257395572532e+16
10.458942961066125,5432406822214102.0,2.6484017771633364e+16,585863027372172.0,696325197323497.4,21802247376089.207,46545986348015.61,789443478774206.6,1.8911631012225264e+16
10.768121820287448,5448058792039205.0,2.715029348167585e+16,587551028806652.8,698331464842194.8,22515380775218.062,48070074172001.4,815294750175125.4,1.9530471990865396e+16
11.083484256693197,5463233125794025.0,2.7829252286507092e+16,589187519129251.1,700276509030499.4,23243126172350.168,49625494432136.05,841677600320024.5,2.0162008911628788e+16
11.405153941827061,5477948554327641.0,2.8521161971390744e+16,590774518386021.9,702162730806213.8,23985752030474.562,51212827319459.37,868601877899422.9,2.080647571062147e+16
11.733257020663602,5492222916974007.0,2.9226294882970412e+16,592313950476731.9,703992416812847.5,24743533000288.82,52832666543509.93,896077661250946.4,2.1464111737912056e+16
12.067922161076874,5506073214888222.0,2.9944928060173296e+16,593807648906957.8,705767746256256.5,25516749989407.9,54485619493181.05,924115261103104.0,2.2135161819536156e+16
12.409280604298411,5519515660535408.0,3.067734336439988e+16,595257362125261.4,707490797248113.4,26305690235934.246,56172307407409.45,952725223486469.2,2.2819876323361296e+16
12.75746621638438,5532565723660392.0,3.1423827609267256e+16,596664758480847.1,709163552698307.8,27110647386229.613,57893365555378.336,981918332806886.4,2.3518511228679228e+16
13.112615540712067,5545238174034768.0,3.218467269014577e+16,598031430833629.2,710787905794250.2,27931921576748.457,59649443425957.83,1011705615076005.9,2.423132819940436e+16
13.474867851526309,5557547121247988.0,3.2960175713710548e+16,599358900845571.6,712365665101284.5,28769819519805.703,61441204926135.81,1042098341295025.8,2.4958594660774724e+16
13.844365208556836,5569506051784649.0,3.3750639127709576e+16,600648622979305.4,713898559315265.9,29624654593168.28,63269328588225.73,1073108030988015.9,2.5700583879460936e+16
14.221252512727972,5581127863606597.0,3.4556370851131868e+16,601901988227668.1,715388241695277.4,30496746933370.805,65134507785664.19,1104746455881705.1,2.645757504700162e+16
14.605677562982532,5592424898438375.0,3.5377684404947588e+16,603120327595565.5,716836294201970.4,31386423532668.344,67037450957239.98,1137025643729051.0,2.7229853366492628e+16
14.997791114242183,5603408971936147.0,3.621489904357629e+16,604304915353560.4,718244231364627.2,32294018339548.547,68978881839612.78,1169957882274262.8,2.8017710142468504e+16
15.397746936527026,5614091401904168.0,3.706833988723046e+16,605456972080909.1,719613503897933.2,33219872362736.023,70959539708008.27,1203555723357333.0,2.8821442873919376e+16
15.805701875257567,5624483034708000.0,3.7938338055268616e+16,606577667514126.4,720945502087635.0,34164333778629.03,72980179624991.31,1237831987156505.2,2.9641355350398656e+16
16.221815912762718,5634594270020692.0,3.882523080068509e+16,607668123215735.0,722241558962475.5,35127758042117.46,75041572697237.1,1272799766567290.8,3.0477757751179484e+16
16.64625223101797,5644435084025984.0,3.972936164585646e+16,608729415076668.8,723502953268400.5,36110508000737.68,77144506340236.77,1308472431717064.0,3.1330966747427404e+16
17.079177275638333,5654015051192357.0,4.065108051965448e+16,609762575664502.0,724730912259549.4,37112954012126.45,79289784550889.61,1344863634614424.2,3.2201305607360416e+16
17.5207608211511,5663343364721930.0,4.159074389602949e+16,610768596428768.1,725926614319382.1,38135474064741.17,81478228187947.72,1381987313932765.5,3.3089104304374052e+16
17.97117603757412,5672428855769192.0,4.2548714934169544e+16,611748429773641.5,727091191424147.6,39178453901820.58,83710675260288.78,1419857699927765.0,3.3994699628112732e+16
18.430599558325603,5681280011517351.0,4.352536362032012e+16,612702991007386.0,728225731459897.5,40242287148563.49,85987981223010.69,1458489319488595.8,3.491843529847538e+16
18.899211549492115,5689904992192187.0,4.452106691136391e+16,613633160177239.5,729331280403320.9,41327375442508.71,88311019281343.64,1497897001323006.0,3.5860662082544316e+16
19.37719578048196,5698311647087529.0,4.553620888023962e+16,614539783797685.8,730408844375893.6,42434128567102.125,90680680702397.34,1538095881276439.8,3.682173791443257e+16
19.864739696091597,5706507529669904.0,4.657118086328545e+16,615423676479435.5,731459391579983.9,43562964588441.914,93097875134755.62,1579101407785589.5,3.7802028018047336e+16
20.36203449001343,5714499911825200.0,4.762638160958466e+16,616285622465870.8,732483854124992.2,44714309995196.875,95563530935956.84,1620929347466993.8,3.880190503277048e+16
20.869275179813698,5722295797304834.0,4.870221743238952e+16,617126377083158.6,733483129750874.5,45888599841692.336,98078595507889.42,1663595790841325.0,3.982174914205988e+16
21.38666068340997,5729901934424610.0,4.979910236269774e+16,617946668109773.5,734458083455884.6,47086277894165.97,100644035640155.92,1707117158194159.2,4.086194820497889e+16
21.91439389707817,5737324828065642.0,5.0917458305050136e+16,618747197070745.6,735409549034850.0,48307796780195.09,103260837861450.14,1751510205574306.8,4.192289789066289e+16
22.452681775019734,5744570751022565.0,5.20577151956224e+16,619528640461520.1,736338330533786.5,49553618141300.46,105930008799015.16,1796792030930640.0,4.300500181573363e+16
23.00173541052013,5751645754741280.0,5.322031116267361e+16,620291650905980.4,737245203626249.6,50824212788733.86,108652575546244.14,1842980080388682.5,4.410867168467638e+16
23.561770118730532,5758555679485034.0,5.440569268942011e+16,621036858252813.9,738130916916434.6,52120060862458.02,111429586038495.75,1890092154668270.0,4.523432743319665e+16
24.133005521105144,5765306163965130.0,5.561431477939615e+16,621764870614157.0,738996193173641.4,53441651993331.37,114262109437207.36,1938146415643601.0,4.638239737456907e+16
24.715665631527248,5771902654469784.0,5.6846641124367e+16,622476275350087.2,739841730502386.8,54789485468507.56,117151236522385.58,1987161393047278.8,4.755331834900663e+16
25.309978944157795,5778350413521877.0,5.810314427485065e+16,623171640002345.8,740668203452188.1,56164070400067.35,120098080093566.25,2037155991319881.0,4.874753587606078e+16
25.91617852304095,5784654528095197.0,5.938430581331336e+16,623851513180410.0,741476264070693.1,57565925896895.08,123103775379336.6,2088149496606701.0,4.9965504310084024e+16
26.53450209350177,5790819917415448.0,6.069061653009469e+16,624516425402810.4,742266542903620.0,58995581239818.055,126169480455523.27,2140161583903538.2,5.1207686998773976e+16
27.165192135371807,5796851340371310.0,6.2022576602122024e+16,625166889896378.2,743039649944717.2,60453576060026.06,129296376672143.89,2193212324353269.2,5.247455644482414e+16
27.808495978079243,5802753402558954.0,6.338069577446958e+16,625803403355971.4,743796175538710.8,61940460520790.2,132485669089238.53,2247322192695207.8,5.376659447071068e+16
28.464665897640828,5808530562981522.0,6.476549354482096e+16,626426446666983.2,744536691240056.5,63456795502499.44,135738586921688.25,2302512074869254.0,5.508429238663896e+16
29.133959215593645,5814187140424084.0,6.61774993508893e+16,627036485592856.2,745261750630066.8,65003152791036.3,139056383993142.48,2358803275776890.0,5.642815116168115e+16
29.816638399905518,5819727319522677.0,6.761725276085007e+16,627633971429606.2,745971890094861.9,66580115269510.9,142440339199172.47,2416217527201166.0,5.779868159813315e+16
30.51297116790363,5825155156545406.0,6.90853036668423e+16,628219341629292.9,746667629566372.4,68188277113376.09,145891756979782.1,2474776995887989.5,5.919640450912018e+16
31.223230591261704,5830474584902060.0,7.058221248158972e+16,628793020394195.1,747349473228555.5,69828243988944.516,149411967801399.88,2534504291790934.0,6.062185089948352e+16
31.947695203086937,5835689420397332.0,7.210855033819747e+16,629355419243366.2,748017910190776.8,71500633255329.53,153002328648488.75,2595422476481902.0,6.207556214998028e+16
32.686649107148675,5840803366242672.0,7.36648992931766e+16,629906937553132.4,748673415130205.6,73206074169831.73,156664223524908.3,2657555071730248.0,6.355809020482559e+16
33.44038208929165,5845820017839835.0,7.525185253274622e+16,630447963072983.0,749316448904976.8,74945208096794.4,160399063965171.0,2720926068252571.5,6.5069997762613784e+16
34.20918973107749,5850742867349010.0,7.68700145824682e+16,630978872418222.6,749947459139744.5,76718688719947.94,164208289555739.03,2785559934636073.0,6.661185847064922e+16
34.993373525699035,5855575308053395.0,7.85200015202643e+16,631500031540675.0,750566880785115.6,78527182258266.72,168093368466496.53,2851481626437755.0,6.8184257122722376e+16
35.793240996213015,5860320638531422.0,8.020244119286627e+16,632011796178639.4,751175136652452.4,80371367685360.97,172055797992571.03,2918716595462453.5,6.9787789860363336e+16
36.60910581613728,5864982066646904.0,8.191797343574834e+16,632514512287208.9,751772637925330.5,82251936952421.89,176097105106627.03,2987290799222170.5,7.1423064377607624e+16
37.44128793246003,5869562713367153.0,8.366725029659381e+16,633008516450045.2,752359784648942.2,84169595214743.56,180218847021817.78,3057230710579762.0,7.309070012931144e+16
38.29011369110923,5874065616418281.0,8.545093626234328e+16,633494136273581.9,752936966198637.6,86125061061842.81,184422611765535.7,3128563327579529.5,7.479132854304587e+16
39.15591596493141,5878493733786205.0,8.726970848987355e+16,633971690764595.1,753504561728669.9,88119066751193.3,188710018764131.97,3201316183468025.5,7.652559323461093e+16
40.03903428423004,5882849947071714.0,8.912425704035587e+16,634441490692037.6,754062940602263.2,90152358445597.6,193082719438767.78,3275517356907616.0,7.829415022719773e+16
40.93981496991464,5887137064707218.0,9.101528511733886e+16,634903838933950.2,754612462803929.4,92225696454209.4,197542397812572.84,3351195482386098.0,8.009766817424091e+16
41.85861126931294,5891357825042490.0,9.29435093086071e+16,635359030810243.5,755153479334991.6,94339855477232.42,202090771129270.22,3428379760825439.5,8.193682858598718e+16
42.7957834946992,5895514899306054.0,9.490965983185642e+16,635807354402069.0,755686332593181.8,96495624854301.52,206729590483454.97,3507099970392568.5,8.3812326059825e+16
43.751699164593184,5899610894448884.0,9.69144807842362e+16,636249090858518.0,756211356737149.9,98693808816568.48,211460641462694.25,3587386477515664.5,8.572486851439653e+16
