t(s),Total solute volume 1,Total retention volume 1,Total 1 volume 1,Total 2 volume 1,Total 3 volume 1,Total 4 volume 1,Total 5 volume 1,Total 6 volume 1
0.1,941999071437344.5,1111941895936827.4,80338108873842.89,89604715625638.98,0.0,0.0,0.0,0.0
0.202,1418852824808488.2,1675465916871181.5,121006438780738.25,134963938673965.38,993053028.3759295,1920394959.1342084,28125729380.837303,611675430621.4185
0.30604000000000003,1781808582100050.8,2104888970338786.5,151961012013274.28,169488970376755.0,2519059699.196954,4871433468.186238,71346322338.67882,1551669033202.1394
0.41216080000000005,2088609393823621.5,2468303697194211.0,178126427491379.8,198672438388568.6,4473549317.514891,8651087456.082903,126702785622.69345,2755610068243.574
0.5204040160000001,2360882864248736.5,2791209364393960.5,201347188988746.2,224571600993454.12,6810021949.175,13169434630.679516,192878110451.06454,4194852595996.64
0.6308120963200001,2609405223394415.0,3086310085760611.0,222542344062419.2,248211513390682.03,9503420433.26827,18378019377.754593,269162615403.93546,5853960857880.604
0.7434283382464002,2840439700473661.0,3360989673557602.0,242246050343574.56,270187945680508.3,12539307684.872787,24248923511.608047,355147411280.1285,7724041417380.75
0.8582969050113283,3057998301324027.0,3619978576504659.0,260800470550549.16,290882527375962.5,15909419137.323029,30766165464.69614,450598432722.1795,9800003236801.193
0.9754628431115548,3264829862898513.5,3866518766944693.5,278440038420940.53,310556732998487.0,19609470750.760033,37921461356.68119,555394354638.5446,12079207340005.215
1.094972099973786,3462913244248555.0,4102945120638165.5,295333520357206.6,329398795328674.7,23637944566.840084,45711876469.861626,669492195677.202,14560718687009.977
1.2168715419732616,3653728098578567.0,4331004565237060.5,311607108140405.6,347549461751555.94,27995358507.24985,54138413168.76252,792906636901.3882,17244856357954.22
1.3412089728127268,3838414583041326.0,4552044300967472.0,327358039732343.8,365117186151622.9,32683800091.369846,63205109193.87217,925696815415.0022,20132906317479.406
1.4680331522689813,4017872992934260.5,4767129207735648.0,342663096548221.56,382187606304276.4,37706614733.77407,72918434886.14717,1067957496129.0973,23226929403142.98
1.597393815314361,4192828785915398.5,4977118460391365.0,357584149027445.25,398829729101084.94,43068189837.11441,83286875663.3125,1219812956724.7812,26529628325215.566
1.729341691620648,4363876623136685.0,5182717415639326.0,372171912668515.5,415100119824904.44,48773801017.98241,94320634650.69186,1381412632397.5166,30044252941158.33
1.863928525453061,4531511140288375.0,5384513861936149.0,386468572328345.25,431045829149277.3,54829500179.18065,106031416235.86604,1552927945810.1243,33774531307924.152
2.001207095962122,4696149022781424.0,5583004023565765.0,400509664897591.75,446706492971135.6,61242032675.285614,118432265884.85687,1734549961050.6165,37724618655990.305
2.1412312378813647,4858145206986171.0,5778611644527113.0,414325461018444.44,462115873502984.06,68018775264.2717,131537450155.09785,1926487626311.1174,41899059167771.055
2.284055862638992,5017805008275209.0,5971702274238545.0,427941999421145.3,477303012915058.5,75167689267.39813,145362366118.71387,2128966447309.2698,46302757124433.05
2.4297369798917723,5175393359158788.0,6162594149331804.0,441381874795597.8,492293112084072.4,82697285092.92918,159923472761.66034,2342227482567.432,50940955052912.95
2.578331719489608,5331141955276029.0,6351566611465958.0,454664847235089.4,507108210333290.25,90616595412.84413,175238239116.43643,2566526583771.325,55819217203238.2
2.7298983538794,5485254859418072.0,6538866709330703.0,467808320173735.0,521767718497704.7,98935155042.34465,191325105357.04553,2802133825973.44,60943417154821.91
2.884496320956988,5637912950742498.0,6724714440919977.0,480827719836390.0,536288842141656.4,107662986094.09767,208203454094.5973,3049333087194.813,66319728672037.78
3.0421862473761276,5789277496590262.0,6909306962846183.0,493736799859998.2,550686921316741.0,116810587344.87616,225893589819.1833,3308421747336.964,71954619154674.14
3.2030299723236504,5939493048941412.0,7092822004661673.0,506547888316947.5,564975706078116.6,126388927013.11598,244416724938.1174,3579710483704.2046,77854845189546.95
3.3670905717701234,6088689814837546.0,7275420664058309.0,519272089875840.4,579167581963518.0,136409438335.02083,263794971226.33826,3863523145792.399,84027449826062.06
3.5344323832055258,6236985612632411.0,7457249714681037.0,531919452639740.3,593273756075481.4,146884017466.01382,284051335773.897,4160196695942.1714,90479761284221.62
3.7051210308696363,6384487498900860.0,7638443526450410.0,544499106896614.4,607304411835972.2,157825023338.10352,305209720716.1295,4470081205393.438,97219392867518.77
3.879223451487029,6531293131065881.0,7819125675002769.0,557019381330576.4,621268838602031.1,169245279182.10654,327294926183.67377,4793539897497.911,104254243901420.16
4.0568079205167695,6677491916160709.0,7999410299610656.0,569487900993721.0,635175540938156.4,181158075483.50803,350332656025.2045,5130949231540.917,111592501555011.97
4.237944078927105,6823165960602443.0,8179403257253624.0,581911668310652.2,649032328974243.1,193577173538.03125,374349525272.6787,5482699195421.649,119242673472062.62
4.422702960505647,6968391000018184.0,8359203103203882.0,594297142364826.5,662846406797316.8,206516813335.22134,399373073073.9757,5849192764751.569,127213471372396.19
4.61115701971576,7113236962820711.0,8538901940249068.0,606650286983495.5,676624426143086.2,219991715992.76328,425431770874.31616,6230847113758.016,135513993701152.81
4.803380160110075,7257768684142187.0,8718586146596194.0,618976631611514.1,690372554250788.0,234017093473.498,452555038913.5699,6628093132382.173,144153611326926.4
4.9994477633122765,7402046412025023.0,8898337008287645.0,631281314485164.2,704096522027090.6,248608655912.45224,480773260977.167,7041375822769.923,153142002010703.44
5.199436718578522,7546126269310966.0,9078231270050112.0,643569122024218.5,717801667981850.8,263782620314.05252,510117801223.86914,7471154545740.998,162489155765815.34
5.403425452950093,7690060656721507.0,9258341617163966.0,655844523208534.9,731492976569869.6,279555719929.03046,540621022328.40027,7917903286515.121,172205380635294.75
5.611493962009095,7833898605930614.0,9438737098714154.0,668111699689772.0,745175111775837.8,295945214266.2248,572316304852.3105,8382110938426.931,182301308860381.0
5.823723841249277,7977686089917918.0,9619483500801854.0,680374572259745.1,758852446635710.8,312968899702.30585,605238067771.6277,8864281603583.875,192787903417419.1
6.040198318074262,8121466296667950.0,9800643676856946.0,692636824192801.6,772529089271493.9,330645120658.9207,639421790102.28,9364934909602.7,203676464904349.03
6.261002284435747,8265279871289701.0,9982277841024634.0,704901921894907.2,786208905922105.9,348992781322.06805,674904033574.6925,9884606341712.217,214978638761286.12
6.486222330124463,8409165130821135.0,1.0164443829646624e+16,717173133223185.4,799895541375989.4,368031357883.0241,711722466317.4556,10423847589636.193,226706422812440.1
6.715946776726952,8553158255319083.0,1.0347197335076468e+16,729453543782965.4,813592437147941.0,387780911283.7962,749915887517.3469,10983226908775.549,238872175118910.75
6.950265712261491,8697293458287181.0,1.0530592115423006e+16,741746071462675.8,827302847690530.9,408262100453.313,789524253028.8755,11563329495299.148,251488622133849.22
7.18927102650672,8841603139040430.0,1.0714680183281798e+16,754053479428205.4,841029854887306.5,429496196023.11444,830588701911.8374,12164757874825.58,264568867153083.7
7.433056447036854,8986118019227083.0,1.0899511976070778e+16,766378387766141.9,854776381039014.4,451505094513.63715,873151583879.5199,12788132304443.879,278126399055707.06
7.681717575977592,9130867265412448.0,1.108513651021353e+16,778723283938284.2,868545200523996.4,474311332984.01324,917256487644.0399,13434091187874.023,292175101330300.6
7.935351927497144,9275878599364372.0,1.1271601521101814e+16,791090532187319.8,882338950288756.8,497938104140.01624,962948270148.3536,14103291503614.672,306729261383453.0
8.194058966047088,9421178397455804.0,1.1458953590506062e+16,803482382014323.8,896160139303308.4,522409271896.08997,1010273086677.1991,14796409245964.07,321803580128111.6
8.45794014536803,9566791780411300.0,1.1647238262880216e+16,815900975832781.0,910011157098050.5,547749387388.6602,1059278421841.5504,15514139878835.79,337413181850019.0
8.72709894827539,9712742694463490.0,1.1836500151817292e+16,828348355889983.8,923894281483501.0,573983705438.8927,1110013121433.0786,16257198802317.186,353573624351128.75
9.0016409272409,9859053984848646.0,1.2026783037753032e+16,840826470535076.2,937811685541341.2,601138201463.9716,1162527425146.8909,17026321831945.486,370300909369423.0
9.281673745785717,1.000574746245336e+16,1.2218129957875056e+16,853337179903002.1,951765443963977.5,629239588836.7285,1216873000172.1895,17822265690696.695,387611493275027.75
9.567307220701432,1.015284396432433e+16,1.2410583289078704e+16,865882261075060.4,965757538810342.6,658315336694.0304,1273102975651.814,18645808513701.125,405522298042906.25
9.85865336511546,1.0300363408666938e+16,1.2604184824708532e+16,878463412769437.1,979789864737450.8,688393688195.0042,1331271978012.663,19497750365714.625,424050722502774.7
10.155826432417769,1.0448324844883144e+16,1.2798975845736888e+16,891082259608691.5,993864233760124.4,719503679230.5271,1391436167169.898,20378913771388.598,443214653867141.56
10.458942961066125,1.059674649913626e+16,1.2994997186955398e+16,903740356005712.4,1007982379585177.5,751675157585.8911,1453653273608.6255,21290144258392.78,463032479538648.25
10.768121820287448,1.0745645815872982e+16,1.319228929868942e+16,916439189704916.1,1022145961561063.2,784938802558.8799,1517982636347.4192,22232310913454.58,483523099198090.4
11.083484256693197,1.0895039495684758e+16,1.3390892304488268e+16,929180185011262.6,1036356568279350.9,819326145035.7092,1584485241788.5952,23206306951387.18,504705937174662.1
11.405153941827061,1.1044943529849348e+16,1.3590846055194596e+16,941964705736087.8,1050615720860347.8,854869588027.657,1653223763460.573,24213050297184.13,526600955100123.6
11.733257020663602,1.1195373231854676e+16,1.379219017975236e+16,954794057885635.5,1064924875951725.2,891602427671.2377,1724262602658.0935,25253484181266.098,549228664848712.94
12.067922161076874,1.1346343266176264e+16,1.399496413307481e+16,967669492115319.1,1079285428465886.5,929558874695.0624,1797667929986.2883,26328577747966.145,572610141764710.5
12.409280604298411,1.1497867674550066e+16,1.4199207241260666e+16,980592205970394.0,1093698714079075.4,968774076356.5793,1873507727814.9128,27439326677347.348,596767038179631.9
12.75746621638438,1.1649959899958246e+16,1.4404958744416806e+16,993563345931574.4,1108166011512951.1,1009284138851.9456,1951851833649.108,28586753820445.402,621721597221089.8
13.112615540712067,1.1802632808522774e+16,1.461225783732022e+16,1006584009282230.8,1122688544617157.5,1051126150202.4434,2032771984423.3137,29771909848032.84,647496666915389.6
13.474867851526309,1.1955898709482958e+16,1.4821143708129002e+16,1019655245812158.1,1137267484269611.8,1094338203620.7289,2116341861724.8093,30995873913001.855,674115714585944.1
13.844365208556836,1.2109769373415122e+16,1.5031655575331566e+16,1032778059371444.4,1151903950109601.5,1138959421360.3584,2202637137953.5933,32259754326460.613,701602841549615.8
14.221252512727972,1.226425604883808e+16,1.5243832723105148e+16,1045953409286649.8,1166599012117322.2,1185029979051.889,2291735523425.068,33564689247641.39,729982798112998.2
14.605677562982532,1.2419369477333818e+16,1.5457714535239852e+16,1059182211650394.9,1181353692052199.8,1232591130528.885,2383716814422.075,34911847387714.33,759280998870758.9
14.997791114242183,1.257511990730187e+16,1.567334052776839e+16,1072465340494369.4,1196168964761206.0,1281685233147.0403,2478662942202.5425,36302428727599.27,789523538307993.1
15.397746936527026,1.2731517106453592e+16,1.5890750380430874e+16,1085803628854914.6,1211045759367367.2,1332355773599.616,2576658022969.0396,37737665249868.0,820737206708568.2
15.805701875257567,1.2888570373144544e+16,1.6109983967090898e+16,1099197869739510.1,1225984960347696.8,1384647394232.1682,2677788408806.109,39218821684822.586,852949506371315.2
16.221815912762718,1.3046288546633876e+16,1.633108138521092e+16,1112648817001738.4,1240987408509104.0,1438605919859.5554,2782142739591.2007,40747196270836.13,886188668135937.0
16.64625223101797,1.3204680016352088e+16,1.6554082984484012e+16,1126157186131667.2,1256053901869954.5,1494278385087.9631,2889811995884.688,42324121529034.95,920483668220282.8
17.079177275638333,1.3363752730251844e+16,1.677902939471234e+16,1139723654968074.5,1271185196454408.0,1551713062144.5813,3000889552804.088,43950965052398.55,955864245370683.6
17.5207608211511,1.3523514202310302e+16,1.7005961553014906e+16,1153348864338253.0,1286382007006077.5,1610959489217.4036,3115471234887.4106,45629130309349.03,992360918326830.0
17.97117603757412,1.3683971519246324e+16,1.7234920730439924e+16,1167033418630909.2,1301645007626947.0,1672068499307.3716,3233655371950.067,47360057461895.52,1030005003602608.6
18.430599558325603,1.3845131346510428e+16,1.746594855805275e+16,1180777886307003.8,1316974832347180.5,1735092249594.9578,3355542855939.5146,49145224198392.07,1068828633584187.6
18.899211549492115,1.4006999933601408e+16,1.769908705256297e+16,1194582800353170.0,1332372075630833.0,1800084251322.9958,3481237198791.204,50986146580967.58,1108864774946479.6
19.37719578048196,1.4169583118759414e+16,1.793437864155178e+16,1208448658681982.0,1347837292822256.0,1867099400197.3867,3610844591289.1694,52884379907669.914,1150147247388985.2
19.864739696091597,1.433288633308175e+16,1.817186618835385e+16,1222375924482958.0,1363371000537630.2,1936194007307.0256,3744473962933.9634,54841519589367.83,1192710742691888.2
20.36203449001343,1.4496914604104588e+16,1.8411593016646116e+16,1236365026528019.5,1378973677005628.2,2007425830564.0474,3882237042820.275,56859202041444.43,1236590844093049.2
20.869275179813698,1.466167255889037e+16,1.8653602934791244e+16,1250416359434803.8,1394645762361118.8,2080854106665.243,4024248421525.9316,58939105590306.5,1281824045986474.2
21.38666068340997,1.482716442665882e+16,1.889794025998021e+16,1264530283891060.0,1410387658895430.0,2156539583575.1353,4170625614013.424,61082951394726.695,1328447773942540.5
21.91439389707817,1.499339404099682e+16,1.9144649842215744e+16,1278707126843098.5,1426199731266541.8,2234544553531.0234,4321489123544.7637,63292504382032.01,1376500405050211.0
22.452681775019734,1.5160364841679664e+16,1.9393777088176616e+16,1292947181651138.0,1442082306672354.8,2314932886569.865,4476962506609.544,65569574199133.93,1426021288581098.8
23.00173541052013,1.5328079876135732e+16,1.9645367984997036e+16,1307250708214194.2,1458035674989973.5,2397770064576.667,4637172438865.723,67916016178394.86,1477050766975321.5
23.561770118730532,1.5496541800583004e+16,1.9899469123998656e+16,1321617933067040.2,1474060088883861.0,2483123215853.651,4802248782091.816,70333732318315.14,1529630197148501.2
24.133005521105144,1.566575288086619e+16,2.015612772440394e+16,1336049049451557.0,1490155763885427.5,2571061150209.0054,4972324652148.819,72824672279006.92,1583801972119411.5
24.715665631527248,1.5835714993020048e+16,2.0415391657063764e+16,1350544217364822.0,1506322878446631.5,2661654394564.025,5147536487949.045,75390834392424.47,1639609542957340.5
25.309978944157795,1.6006429623584416e+16,2.0677309468226188e+16,1365103563585936.2,1522561573969944.2,2754975229076.5767,5328024121428.676,78034266687297.23,1697097441048060.8
25.91617852304095,1.6177897869694472e+16,2.094193040337314e+16,1379727181683757.5,1538871954816949.0,2851097723778.8994,5513930848520.109,80757067928710.33,1756311300677019.2
26.53450209350177,1.6350120438969064e+16,2.1209304431151412e+16,1394415132007348.5,1555254088297684.5,2950097775726.9565,5705403501119.012,83561388672259.2,1817297881928213.5
27.165192135371807,1.6523097649218466e+16,2.1479482267418724e+16,1409167441661071.2,1571708004642883.8,3052053146658.424,5902592520040.789,86449432332698.19,1880105093896846.0
27.808495978079243,1.6696829427992226e+16,2.1752515399429852e+16,1423984104466012.2,1588233696960936.8,3157043501155.769,6105652028959.569,89423456266984.33,1944782018213547.0
28.464665897640828,1.6871315311986324e+16,2.2028456110181324e+16,1438865080909430.5,1604831121181515.5,3265150445310.477,6314739909322.575,92485772871613.12,2011378932877859.0
29.133959215593645,1.7046554446328414e+16,2.2307357502934076e+16,1453810298083795.5,1621500195987572.2,3376457565883.902,6530017876231.426,95638750694116.4,2079947336398056.8
29.816638399905518,1.7222545583758348e+16,2.258927352593084e+16,1468819649616908.5,1638240802737402.2,3491050469959.7925,6751651555280.743,98884815558592.03,2150539972234356.8
30.51297116790363,1.7399287083720576e+16,2.2874258997325764e+16,1483892995594474.0,1655052785378295.0,3609016825082.7935,6979810560343.797,102226451705102.89,2223210853541934.8
31.223230591261704,1.757677691138329e+16,2.3162369630337916e+16,1499030162476478.0,1671935950353242.8,3730446399876.8037,7214668572293.107,105666202942777.53,2298015288209966.0
31.947695203086937,1.775501263659953e+16,2.34536620586428e+16,1514230943008561.5,1688890066502129.2,3855431105136.06,7456403418643.158,109206673816420.47,2375009904192423.5
32.686649107148675,1.7933991432821688e+16,2.3748193862011304e+16,1529495096129462.8,1705914864958444.0,3984065035381.493,7705197154100.394,112850530786415.48,2454252675125807.0
33.44038208929165,1.811371007598264e+16,2.404602359220426e+16,1544822346875576.0,1723010039042888.0,4116444510873.5444,7961236142004.464,116600503421686.67,2535802946228615.0
34.20918973107749,1.829416505247692e+16,2.4347210795886884e+16,1560212395588233.5,1740175254527117.2,4252668145206.044,8224711182431.651,120459385388378.75,2619721328578621.0
34.993373525699035,1.847535212145144e+16,2.4651816050993944e+16,1575664880591299.2,1757410108028450.5,4392836788228.4175,8495817413228.501,124430036531484.81,2706070250189838.0
35.793240996213015,1.865726696871405e+16,2.4959900983201856e+16,1591179433948320.0,1774714189165227.0,4537053718538.384,8774754665776.297,128515382818619.55,2794913200171332.0
36.60910581613728,1.8839904768551524e+16,2.5271528296424096e+16,1606755644099759.0,1792087038906536.0,4685424588258.487,9061727369506.158,132718418433705.48,2886315274474846.5
37.44128793246003,1.902326029193489e+16,2.5586761800006524e+16,1622393065089454.2,1809528159857335.0,4838057491795.008,9356944682355.217,137042206819609.48,2980343074131096.5
38.29011369110923,1.9207327905352236e+16,2.5905666436184956e+16,1638091216465019.5,1827037016147384.2,4995063010350.261,9660620577098.229,141489881942763.16,3077064732690038.5
39.15591596493141,1.9392101569644176e+16,2.6228308307784176e+16,1653849583178527.2,1844613033320483.5,5156554256799.142,9972973928394.314,146064649568263.6,3176549943887523.5
40.03903428423004,1.9577574838839304e+16,2.6554754706141196e+16,1669667615487249.8,1862255598223736.5,5322646920909.979,10294228600511.395,150769788544901.44,3278869989524611.5
40.93981496991464,1.9763740858984788e+16,2.6885074139231028e+16,1685544728853839.8,1879964058896248.8,5493459314888.208,10624613535685.81,155608652099505.9,3384097767546081.0
41.85861126931294,1.9950592366963436e+16,2.7219336359971196e+16,1701480303845508.0,1897737724456650.8,5669112419218.073,10964362843071.389,160584669139924.22,3492307820303387.0
42.7957834946992,2.0138121689288892e+16,2.7557612394676916e+16,1717473686031262.0,1915575864988487.5,5849729928776.205,11313715888226.553,165701345565890.06,3603576362985367.5
43.751699164593184,2.0326320740866124e+16,2.7899974571632508e+16,1733524185876156.8,1933477711422292.2,6035438299187.126,11672917383082.355,170962265586945.2,3717981312198769.5
44.72673314788505,2.051518102370325e+16,2.824649654974249e+16,1749631078631480.5,1951442455413075.0,6226366793388.176,12042217476329.623,176371093046506.97,3835602314678486.0
