t(s),Total solute volume 1,Total retention volume 1,Total 1 volume 1,Total 2 volume 1,Total 3 volume 1,Total 4 volume 1,Total 5 volume 1,Total 6 volume 1
0.1,1063829490026819.8,1368988609462191.8,135960145783138.03,169198973652234.8,0.0,0.0,0.0,0.0
0.202,1602142862027113.5,2061863635540927.2,204757980620399.9,254816148220115.3,126879643.70811796,290404035.1253706,5475666247.461016,140751723373.99637
0.30604000000000003,2012231582755272.2,2589811605890483.0,257168374542463.78,320039563473040.75,321894121.4370926,736756511.5162514,13891997422.285604,357134471655.5943
0.41216080000000005,2359089834045769.5,3036454865204176.0,301497751694239.6,375206356709910.0,571740862.0660803,1308610111.3581946,24674795735.209328,634367607546.9955
0.5204040160000001,2667097322436397.0,3433159598033411.0,340861901352293.56,424194049352475.9,870512082.1241566,1992442978.8643246,37569082088.611984,965892855098.8158
0.6308120963200001,2948404923033946.0,3795558487444867.0,376813736634452.7,468935202693098.3,1215037185.9991465,2780998196.989514,52438016415.43601,1348191031571.9277
0.7434283382464002,3210075807703405.5,4132738675917572.0,410255949084868.06,510553193630820.8,1603501979.9507277,3670123409.437689,69203300191.0938,1779248572896.8032
0.8582969050113283,3456635010611763.5,4450522016674941.0,441766849716233.7,549767715657516.56,2034881291.9703753,4657472188.610122,87820688227.92111,2257927647715.2534
0.9754628431115548,3691183406501559.5,4752898272947561.0,471742738301121.7,587071953859119.4,2508659406.9110603,5741864161.82803,108267922821.22026,2783655839369.2183
1.094972099973786,3915953798067033.5,5042740539787019.0,500468972770107.4,622821028992835.5,3024675238.9489756,6922930639.027937,130538051542.81535,3356254299626.553
1.2168715419732616,4132616227369203.0,5322198026375576.0,528158988796480.44,657280556377951.8,3583029294.170952,8200901666.9593,154635411857.46252,3975834489125.709
1.3412089728127268,4342458058349042.0,5592927726508878.0,554977314804920.2,690655287494626.9,4184024309.940601,9576470163.461958,180573069197.63077,4642732296618.591
1.4680331522689813,4546496319208730.0,5856238940522677.0,581053929616961.2,723106977712116.2,4828125620.154894,11050701200.746479,208371106385.40985,5357464051663.552
1.597393815314361,4745551019083785.0,6113187591135928.0,606493632510382.6,754766047091691.2,5515933746.470725,12624969271.710209,238055440711.76144,6120696106348.7295
1.729341691620648,4940294804704995.0,6364640101589039.0,631382389468405.1,785739478133934.5,6248164921.1229,14300913710.231352,269656983332.37442,6933223219735.323
1.863928525453061,5131287654290121.0,6611318025125092.0,655791767148327.9,816116333741032.8,7025636953.625288,16080406342.64486,303211029297.77136,7795952873009.804
2.001207095962122,5319001766590245.0,6853830061407612.0,679782113765712.6,845971715747016.4,7849258814.827897,17965527647.573425,338756808018.8837,8709893710152.767
2.1412312378813647,5503839827072426.0,7092695553381604.0,703404893559530.6,875369670100845.0,8720022879.022345,19958548999.550755,376337148449.8539,9676146928476.021
2.284055862638992,5686148681724168.0,7328362076685500.0,726704434339572.0,904365361645124.0,9638999113.007185,22061919368.884094,415998228298.5203,10695899829852.79
2.4297369798917723,5866229752706637.0,7561218837996815.0,749719258633715.2,933006730695365.6,10607330722.160711,24278255356.344093,457789386118.9737,11770420988890.207
2.578331719489608,6044347095362545.0,7791607039441293.0,772483113394288.6,961335774483609.2,11626230908.185234,26610333772.270725,501762981382.03235,12901056654794.094
2.7298983538794,6220733716908113.0,8019828007049052.0,795025777543150.8,989389552127926.2,12696980490.228594,29061086191.795177,547974291807.6315,14089228111371.996
2.884496320956988,6395596593323828.0,8246149644776297.0,817373703143240.2,1017200982554281.4,13820926207.702087,31633595070.34238,596481440118.1064,15336429793549.902
3.0421862473761276,6569120697212463.0,8470811616422882.0,839550530169206.6,1044799485115598.1,14999479569.778175,34331091110.387123,647345344385.2388,16644228010565.05
3.2030299723236504,6741472264405028.0,8694029548447284.0,861577503988046.5,1072211499135895.6,16234116149.837847,37156951646.62082,700629687580.6136,18014260162938.246
3.3670905717701234,6912801467665722.0,8915998470231708.0,883473817065483.6,1099460909155282.5,17526375247.2769,40114699871.939705,756400902980.5624,19448234367118.23
3.5344323832055258,7083244623604412.0,9136895654011248.0,905256891015051.2,1126569395932921.0,18877859856.846107,43208004767.32268,814728172843.7566,20947929421407.15
3.7051210308696363,7252926028428419.0,9356882977476720.0,926942611211916.6,1153556728418036.0,20290236898.956734,46440681629.016754,875683438351.6759,22515195061488.3
3.879223451487029,7421959495875550.0,9576108903388852.0,948545523344662.6,1180441008353628.5,21765237674.398155,49816693109.36248,939341419234.3135,24151952464989.562
4.0568079205167695,7590449654161679.0,9794710149306514.0,970078999168526.9,1207238876552242.5,23304658514.568382,53340150705.1153,1005779641833.9451,25860194973012.85
4.237944078927105,7758493046408115.0,1.0012813104622678e+16,991555377142860.8,1233965687915720.5,24910361604.23035,57015316640.6524,1075078474614.8357,27641989003120.797
4.422702960505647,7926179069647948.0,1.023053504005368e+16,1012986082438550.9,1260635660781406.0,26584275958.421936,60846606104.01105,1147321170326.0237,29499475133389.348
4.61115701971576,8093590780346589.0,1.0447985145513754e+16,1034381729885613.1,1287262005037857.8,28328398538.77961,64838589802.0232,1222593914180.9685,31434869341172.492
4.803380160110075,8260805588842321.0,1.0665265425193666e+16,1055752212724487.6,1313857032573582.8,30144795497.424,68995996807.4209,1300985877542.6611,33450464383423.832
4.9994477633122765,8427895860807043.0,1.0882471473124836e+16,1077106779474273.8,1340432252937604.0,32035603538.868267,73323717676.07794,1382589276702.3955,35548631307990.76
5.199436718578522,8594929440448065.0,1.109969314816354e+16,1098454100799260.8,1366998456553216.0,34003031392.27956,77826807816.83318,1467499436421.3113,37731821087369.77
5.403425452950093,8761970107499308.0,1.1317015163892492e+16,1119802327913570.2,1393565787401044.5,36049361387.94455,82510491099.82399,1555814857969.2322,40002566368098.39
5.611493962009095,8929077977921205.0,1.1534517606198736e+16,1141159143791651.2,1420143806749260.2,38176951133.03744,87380163692.10832,1647637291449.313,42363483330345.34
5.823723841249277,9096309856522568.0,1.1752276389092904e+16,1162531808234257.8,1446741549237015.2,40388235282.82002,92441398111.71764,1743071812241.4636,44817273653402.58
6.040198318074262,9263719548340048.0,1.1970363657562072e+16,1183927197663537.0,1473367572398432.8,42685727404.258644,97699947493.24435,1842226901434.4087,47366726583736.08
6.261002284435747,9431358134492776.0,1.2188848144812464e+16,1205351840377963.5,1500030000536531.0,45072021929.76447,103161750059.70575,1945214530147.4077,50014721103046.15
6.486222330124463,9599274217318520.0,1.24077954900834e+16,1226811947881379.5,1526736563711365.8,47549796199.36811,108832933796.82623,2052150247668.7095,52764228194465.95
6.715946776726952,9767514138847600.0,1.2627268522252654e+16,1248313442804520.5,1553494632487680.8,50121812590.15176,114719821327.04228,2163153273360.0933,55618313205592.25
6.950265712261491,9936122176054376.0,1.2847327513657692e+16,1269861983858657.0,1580311248989108.8,52790920732.21061,120828934981.56235,2278346592295.814,58580138307537.664
7.18927102650672,1.0105140715814186e+16,1.306803040790043e+16,1291462988195535.0,1607193154724543.5,55560059810.78497,127167002069.66428,2397857054620.8345,61652965049611.68
7.433056447036854,1.0274610412067258e+16,1.32894330248547e+16,1313121651493334.2,1634146815584585.2,58432260954.544624,133740960345.185,2521815478627.231,64840157009604.07
7.681717575977592,1.0444570327335166e+16,1.351158924563827e+16,1334842966042838.0,1661178444349374.5,61410649710.287895,140557963670.80487,2650356757560.2456,68145182539966.38
7.935351927497144,1.0615058060436964e+16,1.37345511799254e+16,1356631737069890.0,1688294021001409.2,64498448604.57652,147625387881.31958,2783619970176.5605,71571617610467.69
8.194058966047088,1.0786109861998948e+16,1.3958369317653698e+16,1378492597497804.0,1715499311097067.2,67698979793.04903,154950836847.60532,2921748495086.7095,75123148748151.84
8.45794014536803,1.0957760739139386e+16,1.4183092666903306e+16,1400430021326395.8,1742799882416410.2,71015667798.36464,162542148743.44238,3064890128922.7773,78803576075647.33
8.72709894827539,1.1130044550528754e+16,1.4408768879494184e+16,1422448335780886.2,1770201120082217.2,74452042337.90092,170407402517.78986,3213197208379.9565,82616816449083.28
9.0016409272409,1.1302994092871016e+16,1.4635444365649138e+16,1444551732364444.5,1797708240314610.8,78011741242.50612,178554924575.4601,3366826736187.8965,86566906697048.03
9.281673745785717,1.1476641179719962e+16,1.48631643989e+16,1466744276931109.0,1825326302966521.2,81698513467.74443,186993295669.52472,3525940511074.275,90658006962195.52
9.567307220701432,1.1651016713431362e+16,1.509197321226959e+16,1489029918881479.5,1853060222967502.8,85516222199.22762,195731358009.05646,3690705261788.9824,94894404147257.28
9.85865336511546,1.1826150750954454e+16,1.5321914086636396e+16,1511412499571017.2,1880914780787677.5,89468848053.7412,204778222586.1528,3861292785262.9517,99280515467365.89
10.155826432417769,1.2002072564082188e+16,1.5553029432081526e+16,1533895760010198.5,1908894632020340.5,93560492378.0057,214143276726.43326,4037880088980.884,103820892110724.5
10.458942961066125,1.217881069470705e+16,1.5785360862923596e+16,1556483347926326.8,1937004316170251.8,97795380647.0207,223836191867.47424,4220649537652.129,108520223009790.36
10.768121820287448,1.235639300556622e+16,1.6018949267066712e+16,1579178824248926.0,1965248264724495.2,102177865964.05054,233866931569.90378,4409789004268.394,113383338725252.48
11.083484256693197,1.2534846726904886e+16,1.6253834870215712e+16,1601985669073402.8,1993630808574147.2,106712432664.41531,244245759766.09085,4605492025641.777,118415215445208.89
11.405153941827061,1.2714198499438786e+16,1.6490057295451784e+16,1624907287151792.5,2022156184847359.0,111403700025.34413,254983249251.61533,4807957962520.579,123620979102044.2
11.733257020663602,1.2894474413955644e+16,1.6727655618607894e+16,1647947012953912.2,2050828543207822.8,116256426084.2517,266090290424.90405,5017392164384.718,129005909609630.8
12.067922161076874,1.307570004785755e+16,1.6966668419836286e+16,1671108115337572.2,2079651951666752.0,121275511567.88145,277578100280.64325,5234006139026.243,134575445223564.17
12.409280604298411,1.3257900446060926e+16,1.7207133833567012e+16,1694393795116048.0,2108630393587869.2,126466003464.81364,289458231179.2733,5458018023121.4,140335256544400.1
12.75746621638438,1.3441100363573196e+16,1.7449089587797572e+16,1717807216025964.5,2137767806097167.5,131833101050.38728,301742582282.95825,5689651584760.385,146290974833162.34
13.112615540712067,1.3625323977278428e+16,1.769257305204518e+16,1741351467943852.2,2167068034500511.8,137382157383.87169,314443406492.0949,5929138162507.471,152448608596022.6
13.474867851526309,1.3810595124187498e+16,1.7937621274822496e+16,1765029597301063.0,2196534870004961.0,143118685548.8178,327573322403.58527,6176715692837.168,158814275628179.22
13.844365208556836,1.3996937273300388e+16,1.818427102077192e+16,1788844603496171.8,2226172045286512.2,149048362718.78314,341145324194.6953,6432629194181.282,165394275807754.88
14.221252512727972,1.4184373548588506e+16,1.843255880562522e+16,1812799441832251.8,2255983238145396.5,155177034807.99063,355172792267.9808,6697130967654.891,172195096264335.56
14.605677562982532,1.4372926750324908e+16,1.8682520929179892e+16,1836897026242872.8,2285972074898550.5,161510721252.46973,369669504194.9029,6970480803410.074,179223416684723.22
14.997791114242183,1.4562619374885274e+16,1.8934193506462508e+16,1861140231822744.5,2316142133528914.5,168055619924.76117,384649645965.1682,7252946192754.739,186486114766907.66
15.397746936527026,1.4753473633137406e+16,1.9187612497233332e+16,1885531897177923.2,2346496946610258.5,174818112185.39783,400127823549.13336,7544802546174.761,193990271825834.12
15.805701875257567,1.4945511467524536e+16,1.94428137339727e+16,1910074826609135.8,2377040004024188.0,181804768074.45154,416119074780.8378,7846333417401.615,201743178554604.66
16.221815912762718,1.5138754567939008e+16,1.9699832948476028e+16,1934771792140444.0,2407774755484829.0,189022351646.51865,432638881569.3543,8157830733671.219,209752340944870.84
16.64625223101797,1.5333224386473286e+16,1.995870579717419e+16,1959625535404481.0,2438704612884940.5,196477826452.591,449703182446.3759,8479595032322.628,218025486370236.5
17.079177275638333,1.5528942151127708e+16,2.0219467885285184e+16,1984638769394299.0,2469832952476070.0,204178361172.36063,467328385458.12665,8811935703889.512,226570569836599.84
17.5207608211511,1.5725928878547088e+16,2.048215478989469e+16,2009814180091219.0,2501163116894305.0,212131335400.54712,485531381409.85724,9155171241840.053,235395780403441.94
17.97117603757412,1.5924205385852368e+16,2.0746802082053596e+16,2035154427976863.0,2532698417042025.5,220344345590.96594,504329557471.3826,9509629499124.812,244509547780159.06
18.430599558325603,1.6123792301626962e+16,2.101344534797515e+16,2060662149437280.8,2564442133835274.5,228825211162.09344,523740811152.32654,9875647951695.674,253920549101634.1
18.899211549492115,1.6324710076112864e+16,2.1282120209406216e+16,2086339958066032.2,2596397519825406.0,237581980767.99442,543783564655.8476,10253573969161.684,263637715887314.0
19.37719578048196,1.6526978990666574e+16,2.1552862343241624e+16,2112190445872677.5,2628567800703061.5,246622938738.54138,564476779619.9138,10643765092752.705,273670241188179.03
19.864739696091597,1.6730619166521078e+16,2.182570750044607e+16,2138216184402575.8,2660956176691656.0,255956611692.945,585839972255.2645,11046589320762.836,284027586926037.8
20.36203449001343,1.6935650572895086e+16,2.21006915243412e+16,2164419725773278.0,2693565823837217.5,265591775330.69128,607893228889.4867,11462425401651.928,294719491429720.75
20.869275179813698,1.714209303448897e+16,2.237785036831313e+16,2190803603632503.5,2726399895200531.0,275537461404.06305,630657221926.7358,11891663134984.316,305755977172782.25
21.38666068340997,1.7349966238401946e+16,2.265722011299043e+16,2217370334042206.2,2759461521957334.0,285802964876.49963,654153226232.856,12334703680389.303,317147358717459.44
21.91439389707817,1.7559289740503212e+16,2.2938836982939324e+16,2244122416292809.0,2792753814411613.5,296397851271.1433,678403135955.8362,12791959874730.254,328904250869688.44
22.452681775019734,1.7770082971287066e+16,2.3222737362919108e+16,2271062333651479.0,2826279862926835.0,307331964213.97626,703429481791.7275,13263856557673.465,341037577050082.4
23.00173541052013,1.7982365241238484e+16,2.350895781373932e+16,2298192554047901.5,2860042738779334.0,318615433176.06036,729255448706.2811,13750830905850.357,353558577885876.75
23.561770118730532,1.8196155745735144e+16,2.3797535087754164e+16,2325515530700751.0,2894045494937991.0,330258681419.44666,755904894122.8438,14253332775811.402,366478820028899.8
24.133005521105144,1.8411473569508696e+16,2.408850614403167e+16,2353033702687843.5,2928291166773695.0,342272434151.4232,783402366587.1279,14771825055972.186,379810205204760.2
24.715665631527248,1.8628337690686052e+16,2.4381908163229056e+16,2380749495462654.0,2962782772702248.0,354667726891.8255,811773124919.7249,15306784027756.389,393564979498488.5
25.309978944157795,1.884676698443131e+16,2.4677778562204584e+16,2408665321319736.0,2997523314763463.5,367455914058.2353,841043157867.3586,15858699736143.566,407755742881990.7
25.91617852304095,1.9066780226205136e+16,2.4976155008396684e+16,2436783579811274.5,3032515779139636.0,380648677773.9552,871239204264.1311,16428076369832.637,422395458988714.0
26.53450209350177,1.9288396094659228e+16,2.527707543399508e+16,2465106658117029.0,3067763136615847.0,394258036903.7199,902388773714.062,17015432651236.086,437497465141079.7
27.165192135371807,1.951163317418031e+16,2.5580578049931256e+16,2493636931369470.0,3103268342984638.0,408296356322.2145,934520167806.5502,17621302236522.02,453075482636237.0
27.808495978079243,1.9736509957098224e+16,2.5886701359711424e+16,2522376762935941.0,3139034339397197.0,422776356420.48254,967662501876.4236,18246234125925.727,469143627295834.75
28.464665897640828,1.9963044845571616e+16,2.619548417311476e+16,2551328504659677.5,3175064052663183.0,437711122855.45966,1001845727320.5004,18890793084554.53,485716420285568.0
29.133959215593645,2.0191256153161532e+16,2.6506965619778876e+16,2580494497060937.5,3211360395501133.0,453114116547.8614,1037100654482.6904,19555560073913.473,502808799210331.9
29.816638399905518,2.0421162106106264e+16,2.6821185162692596e+16,2609877069499859.0,3247926266741087.5,468999183933.79047,1073458976119.9103,20241132694382.168,520436129490901.1
30.51297116790363,2.065278084430536e+16,2.7138182611614784e+16,2639478540302293.5,3284764551481207.0,485380567475.4555,1110953291461.1204,20948125638876.035,538614216028116.1
31.223230591261704,2.0886130422023816e+16,2.74579981364392e+16,2669301216849802.5,3321878121199726.0,502272916436.4829,1149617130872.0796,21677171157928.79,557359315160642.56
31.947695203086937,2.11212288083246e+16,2.7780672280521188e+16,2699347395634871.5,3359269833823740.0,519691297927.35046,1189484981138.4607,22428919536434.367,576688146922424.0
32.686649107148675,2.135809388723722e+16,2.8106245973983628e+16,2729619362282488.0,3396942533755987.0,537651208226.57214,1230592311380.1973,23204039582290.613,596617907606051.4
33.44038208929165,2.1596743457669556e+16,2.8434760547018744e+16,2760119391538902.5,3434899051860918.5,556168584383.2544,1272975599609.9658,24003219127189.68,617166282638250.1
34.20918973107749,2.1837195233070284e+16,2.876625774319935e+16,2790849747228453.5,3473142205410901.0,575259816106.7886,1316672359948.969,24827165539800.562,638351459773883.5
34.993373525699035,2.2079466840847892e+16,2.9100779732815876e+16,2821812682179303.5,3511674797993878.0,594941757949.4302,1361721170513.1912,25676606251594.406,660192142614764.2
35.793240996213015,2.232357582155084e+16,2.9438369126251616e+16,2853010438118706.5,3550499619382953.0,615231741787.5798,1408161701983.499,26552289295562.508,682707564459756.9
36.60910581613728,2.2569539627815292e+16,2.977906898740994e+16,2884445245538469.5,3589619445369026.0,636147589607.6667,1456034746872.987,27454983858081.992,705917502492605.6
37.44128793246003,2.281737562308398e+16,3.0122922847206612e+16,2916119323531279.0,3629037037557060.0,657707626602.5166,1505382249505.1382,28385480844181.92,729842292313995.8
38.29011369110923,2.3067101080100548e+16,3.046997471713751e+16,2948034879598203.5,3668755143126567.0,679930694584.1566,1556247336716.3975,29344593456467.72,754502842824401.1
39.15591596493141,2.3318733179182124e+16,3.0820269102934252e+16,2980194109428026.0,3708776494556888.0,702836165719.0264,1608674349296.7812,30333157787961.383,779920651464242.4
40.03903428423004,2.357228900627366e+16,3.117385101831772e+16,3012599196648433.5,3749103809317761.5,726443956591.5896,1662708874182.35,31352033429114.668,806117819817973.8
40.93981496991464,2.3827785550785228e+16,3.1530765998858224e+16,3045252312549793.0,3789739789525298.5,750774542602.3411,1718397777413.1409,32402104089254.957,833117069588602.8
41.85861126931294,2.408523970321386e+16,3.18910601159514e+16,3078155615781104.5,3830687121563811.0,775848972706.1965,1775789237870.395,33484278232721.72,860941758949272.9
42.7957834946992,2.434466825255063e+16,3.225477999091717e+16,3111311252018582.0,3871948475673291.0,801688884497.2465,1834932781806.7068,34599489729951.137,889615899278387.9
43.751699164593184,2.4606087883471136e+16,3.262197280922699e+16,3144721353606734.0,3913526505502756.0,828316519645.8323,1895879318182.752,35748698523765.8,919164172284781.2
