t(s),Total solute volume 1,Total retention volume 1,Total 1 volume 1,Total 2 volume 1,Total 3 volume 1,Total 4 volume 1,Total 5 volume 1,Total 6 volume 1
0.1,1373795654025336.8,3540173632894849.0,759959875137435.1,1406418103732074.5,0.0,0.0,0.0,-1.66771727949885e-108
0.202,2056608881716173.0,5307723375456804.0,1137680366299355.5,2105446485641699.8,1249992975.0738454,5265395635.969587,239864832915.54272,7741261578052.797
0.30604000000000003,2577852097414317.0,6663646429217535.0,1426023083698272.2,2639067603552093.0,3164924015.3908234,13332216833.192116,608736162889.4774,20078411249113.49
0.41216080000000005,3017893046845898.0,7814003566697606.0,1669446110556904.8,3089558115289803.5,5613494826.188233,23647146155.660767,1080712114672.6713,35996321249340.44
0.5204040160000001,3407650766782898.0,8838029155935498.0,1885053325294154.8,3488571320564211.5,8536309678.719677,35959942419.97365,1644253805158.911,55064993236974.18
0.6308120963200001,3762626062575396.5,9775434475545574.0,2081419505518698.0,3851976127346396.5,11900824675.677977,50133499921.79363,2293056943711.7676,77057688836775.58
0.7434283382464002,4091850822851883.5,1.0649358282430698e+16,2263540935717474.5,4189018905230989.0,15687798944.644913,66086759136.67757,3023398012934.305,101842446059334.02
0.8582969050113283,4401117696753674.0,1.1474647003309564e+16,2434622009086666.0,4505629861145198.0,19885708289.17762,83771170333.48726,3833047798547.5923,129340731646859.61
0.9754628431115548,4694397627956648.0,1.2261487487611748e+16,2596859382879854.0,4805874236314797.0,24487985854.29126,103159068412.42409,4720736171055.159,159507857235124.34
1.094972099973786,4974549324708042.0,1.3017224312825782e+16,2751834444967464.5,5092678624284745.0,29491490116.464607,124237218630.80174,5685855331744.045,192322334825038.7
1.2168715419732616,5243709472854770.0,1.374735881388695e+16,2900729172932889.0,5368230450386068.0,34895581505.731415,147002926510.16516,6728281097620.3,227779538107578.22
1.3412089728127268,5503523198604451.0,1.4456138823287846e+16,3044453622082506.5,5634213907302563.0,40701530972.092064,171461546209.89066,7848258494136.967,265887673726994.7
1.4680331522689813,5755287989358536.0,1.514692677684682e+16,3183725539958505.5,5891957293586484.0,46912123053.31032,197624808317.57944,9046325001970.684,306665092009947.3
1.597393815314361,6000047699473839.0,1.5822440040074172e+16,3319122368697864.0,6142529251766641.0,53531379492.12354,225509655499.44714,10323257129642.543,350138421971199.3
1.729341691620648,6238656265740151.0,1.6484913725891054e+16,3451116491330824.0,6386803996869743.0,60564361025.75634,255137407479.27646,11680032106628.78,396341238075196.2
1.863928525453061,6471822251890319.0,1.713621447709017e+16,3580099873032071.5,6625506918722243.0,68017021792.86905,286533147686.05597,13117799751165.064,445313083524890.56
2.001207095962122,6700140822097055.0,1.7777922108290808e+16,3706401748305149.5,6859247314716401.0,75896100282.73715,319725263847.58356,14637861402721.71,497098740405354.3
2.1412312378813647,6924117218004169.0,1.8411389533924076e+16,3830301608069269.5,7088542424346103.0,84209036348.55124,354745098387.316,16241653892554.111,551747675477267.7
2.284055862638992,7144184340995786.0,1.903778763756541e+16,3952038925865958.5,7313835428998780.0,92963907244.37556,391626678964.1652,17930737190928.44,609313613927740.0
2.4297369798917723,7360716150245040.0,1.9658139456781524e+16,4071820569427360.0,7535509168164677.0,102169377829.25558,430406508695.61743,19706784792106.215,669854208265797.8
2.578331719489608,7574038030342232.0,2.0273346632964796e+16,4189826535868460.5,7753896753262849.0,111834661510.70941,471123401623.63855,21571576174499.223,733430779253612.6
2.7298983538794,7784434924574400.0,2.0884210160472624e+16,4306214450876344.5,7969289894059797.0,121969489458.84119,513818353022.9564,23526990858846.82,800108112260763.5
2.884496320956988,7992157794281876.0,2.149144686672817e+16,4421123141914304.5,8181945511414908.0,132584086280.76617,558534436925.2611,25575003714571.336,869954296879302.1
3.0421862473761276,8197428806007322.0,2.209570264915659e+16,4534675507662741.0,8392091047607411.0,143689150806.36673,605316725176.3263,27717681253646.58,943040600749488.4
3.2030299723236504,8400445539107497.0,2.269756321611219e+16,4646980845597099.0,8599928773865366.0,155295840965.4937,654212223729.5253,29957178714925.098,1019441370762582.1
3.3670905717701234,8601384430217794.0,2.329756288403345e+16,4758136757405897.0,8805639316624969.0,167415761975.36646,705269822884.4906,32295737787989.555,1099233956411948.8
3.5344323832055258,8800403616719576.0,2.3896191844507076e+16,4868230721947597.0,9009384568520974.0,180060957232.5308,758540258919.532,34735684859530.844,1182498651243246.8
3.7051210308696363,8997645302215335.0,2.4493902214950308e+16,4977341403790406.0,9211310110034208.0,193243901434.71378,814076085118.1228,37279429690562.55,1269318649233255.8
3.879223451487029,9193237738377464.0,2.5091113113504804e+16,5085539749536740.0,9411547238402898.0,206977495556.80292,871931650606.4722,39929464451891.445,1359780013589632.5
4.0568079205167695,9387296896319838.0,2.5688214944578996e+16,5192889912396924.0,9610214678683608.0,221275063380.70416,932163085737.2721,42688363059852.945,1453971655969664.2
4.237944078927105,9579927884740516.0,2.628557304090609e+16,5299450036681213.0,9807420035570548.0,236150349337.10028,994828293000.2549,45558780765577.734,1551985324505885.0
4.422702960505647,9771226160039898.0,2.688353077725558e+16,5405272927216133.0,1.000326103224973e+16,251617517462.52304,1059986942631.3813,48543453959827.28,1653915599329902.8
4.61115701971576,9961278564403858.0,2.7482412247441508e+16,5510406623594089.0,1.0197826573133486e+16,267691151310.84128,1127700472242.845,51645200162325.73,1759859894524198.2
4.803380160110075,1.0150164220727212e+16,2.808252457812699e+16,5614894895229543.0,1.039119766003526e+16,284386254686.55646,1198032089915.227,54866918169981.61,1869918465620392.5
4.9994477633122765,1.0337955307711722e+16,2.8684159938804492e+16,5718777670129722.0,1.058344818567367e+16,301718253089.8662,1271046780288.2559,58211588342754.59,1984194421913245.5
5.199436718578522,1.0524717734122962e+16,2.9287597296245012e+16,5822091407881875.0,1.0774645623940866e+16,319702995781.6591,1346811313263.3054,61682273009433.71,2102793742980815.2
5.403425452950093,1.0710511727749408e+16,2.989310395294311e+16,5924869425455263.0,1.0964851632847318e+16,338356758391.3277,1425394254992.7268,65282116978439.234,2225825298899309.0
5.611493962009095,1.089539235186586e+16,3.0500936902104212e+16,6027142182899664.0,1.1154122583249634e+16,357696246002.2837,1506865980881.7173,69014348141077.67,2353400873721096.0
5.823723841249277,1.1079409959804588e+16,3.1111344026120904e+16,6128937534806375.0,1.1342510024216316e+16,377738596659.9258,1591298690370.0417,72882278156584.25,2485635191850019.5
6.040198318074262,1.1262610596463774e+16,3.172456516097052e+16,6230280952415626.0,1.1530061094070644e+16,398501385254.9557,1678766423295.0369,76889303209858.36,2622645947002025.5
6.261002284435747,1.1445036354142242e+16,3.2340833045299444e+16,6331195720458199.0,1.1716818884675272e+16,420002627741.67035,1769345077665.9727,81038904834098.6,2764553833484235.5
6.486222330124463,1.1626725688913082e+16,3.2960374169968484e+16,6431703112167912.0,1.1902822765318818e+16,442260785656.5171,1863112428703.411,85334650791638.94,2911482579562700.5
6.715946776726952,1.1807713702784826e+16,3.3583409541378116e+16,6531822545368128.0,1.208810867157727e+16,465294770906.929,1960148149017.3289,89780196007194.58,3063558982720741.0
6.950265712261491,1.1988032396100926e+16,3.421015536986827e+16,6631571722094990.0,1.2272709363707276e+16,489123950804.4394,2060533829814.462,94379283548499.9,3220912946635960.0
7.18927102650672,1.2167710893970066e+16,3.484082369281072e+16,6730966753854511.0,1.2456654658453248e+16,513768153319.4889,2164353003039.6743,99135745649979.7,3383677519726596.0
7.433056447036854,1.2346775649968732e+16,3.5475622940613116e+16,6830022274307482.0,1.263997163758744e+16,539247672538.2101,2271691164368.3647,104053504775643.6,3551988935136890.0
7.681717575977592,1.2525250629899398e+16,3.611475845268859e+16,6928751540921195.0,1.2822684836031516e+16,565583274303.9686,2382635796977.333,109136574717883.2,3725986652047401.0
7.935351927497144,1.2703157478000328e+16,3.675843294946541e+16,7027166526913893.0,1.3004816412013426e+16,592796202028.5842,2497276396030.59,114389061729256.5,3905813398210459.0
8.194058966047088,1.2880515667678454e+16,3.7406846965679896e+16,7125278004637603.0,1.3186386301379696e+16,620908182660.0016,2615704493824.354,119815165684705.03,4091615213622903.5
8.45794014536803,1.3057342638561266e+16,3.806019924950514e+16,7223095621392757.0,1.3367412357901786e+16,649941432794.8201,2738013685542.5063,125419181271966.69,4283541495258999.5
8.72709894827539,1.3233653921429282e+16,3.87186871314677e+16,7320627968538755.0,1.354791048117524e+16,679918664925.51,2864299655579.528,131205499208216.19,4481745042795691.0
9.0016409272409,1.3409463252391362e+16,3.938250686660148e+16,7417882644653792.0,1.3727894733506496e+16,710863093813.4081,2994660204393.4683,137178607481208.56,4686382105270412.0
9.281673745785717,1.3584782677495122e+16,4.0051853952857096e+16,7514866313403430.0,1.3907377447007154e+16,742798442979.7229,3129195275856.21,143343092613428.25,4897612428619149.0
9.567307220701432,1.3759622648817208e+16,4.072692342841263e+16,7611584756696127.0,1.4086369321966246e+16,775748951307.7664,3268006985072.4224,149703640947924.8,5115599304048745.0
9.85865336511546,1.393399211295307e+16,4.140791015021332e+16,7708042923634298.0,1.42648795174414e+16,809739379750.5771,3411199646642.6665,156265039954708.72,5340509617203444.0
10.155826432417769,1.4107898592716868e+16,4.209500905579353e+16,7804244975709110.0,1.4442915734898538e+16,844795018138.9163,3558879803349.486,163032179556729.6,5572513898090793.0
10.458942961066125,1.4281348262767164e+16,4.278841541019564e+16,7900194328635555.0,1.4620484295633796e+16,880941692085.3745,3711156255248.548,170010053474611.5,5811786371737172.0
10.768121820287448,1.4454346019793754e+16,4.348832503959491e+16,7995893691178360.0,1.4797590212626858e+16,918205769981.085,3868140089150.025,177203760589462.25,6058505009547308.0
11.083484256693197,1.4626895547827748e+16,4.419493455305847e+16,8091345101280499.0,1.4974237257401864e+16,956614170082.1466,4029944708478.086,184618506323187.25,6312851581346642.0
11.405153941827061,1.4798999379176348e+16,4.49084415537131e+16,8186549959771253.0,1.5150428022409322e+16,996194367683.5393,4196685863499.109,192259604035881.0,6575011708089138.0
11.733257020663602,1.4970658951428528e+16,4.56290448404558e+16,8281509061900764.0,1.5326163979385376e+16,1036974402378.8839,4368481681911.667,200132476439954.94,6845174915216881.0
12.067922161076874,1.5141874660929762e+16,4.635694460122454e+16,8376222626921226.0,1.5501445534096366e+16,1078982885404.9672,4545452699793.791,208242657030805.94,7123534686661202.0
12.409280604298411,1.5312645913082346e+16,4.709234259874093e+16,8470690325912352.0,1.5676272077833728e+16,1122249007070.533,4727721892905.367,216595791533895.44,7410288519478676.0
12.75746621638438,1.54829711697902e+16,4.783544234954169e+16,8564911308026816.0,1.5850642035985354e+16,1166802544269.3318,4915414708345.647,225197639368250.38,7705637979118494.0
13.112615540712067,1.5652847994334524e+16,4.858644929703769e+16,8658884225314792.0,1.6024552913976676e+16,1212673868077.997,5108659096568.248,234054075126466.06,8009788755320563.0
13.474867851526309,1.5822273093936772e+16,4.934557097926486e+16,8752607256269009.0,1.6198001340844888e+16,1259893951439.753,5307585543757.927,243171090071410.6,8322950718647566.0
13.844365208556836,1.5991242360240454e+16,5.011301719192822e+16,8846078128218584.0,1.6370983110681418e+16,1308494376935.5515,5512327104575.795,252554793649912.06,8645337977656426.0
14.221252512727972,1.615975090791906e+16,5.08890001472844e+16,8939294138686339.0,1.6543493222157108e+16,1358507344644.6719,5723019435281.5625,262211415023815.62,8977168936718144.0
14.605677562982532,1.6327793111597672e+16,5.167373462935538e+16,9032252175813078.0,1.6715525916320474e+16,1409965680097.3164,5939800827243.629,272147304618892.75,9318666354497928.0
14.997791114242183,1.6495362641256612e+16,5.246743814592629e+16,9124948737942272.0,1.6887074712841748e+16,1462902842322.268,6162812240849.535,282368935692165.2,9670057403110342.0
15.397746936527026,1.6662452496268652e+16,5.327033107773409e+16,9217379952448954.0,1.705813244485891e+16,1517352931993.1187,6392197339832.066,292882905918321.8,1.0031573727967424e+16
15.805701875257567,1.682905503820756e+16,5.408263682522329e+16,9309541593888842.0,1.7228691292564796e+16,1573350699677.1023,6628102526027.739,303695938995985.44,1.0403451508340388e+16
16.221815912762718,1.6995162022550616e+16,5.490458195321129e+16,9401429101535380.0,1.7398742815662766e+16,1630931554191.0593,6870676974586.572,314814886274677.7,1.0785931518658984e+16
16.64625223101797,1.7160764629386334e+16,5.573639633377609e+16,9493037596367086.0,1.7568277984803378e+16,1690131571069.5042,7120072669654.514,326246728403456.56,1.1179259190575108e+16
17.079177275638333,1.7325853493227738e+16,5.657831328765754e+16,9584361897559372.0,1.773728721210582e+16,1750987501150.323,7376444440551.377,337998577002235.75,1.1583684675820682e+16
17.5207608211511,1.7490418732020706e+16,5.743056972443467e+16,9675396538531770.0,1.7905760380854966e+16,1813536779284.073,7639949998469.829,350077676356956.2,1.199946290989252e+16
17.97117603757412,1.7654449975428238e+16,5.829340628172662e+16,9766135782594112.0,1.8073686874457264e+16,1877817533173.3818,7910749973722.442,362491405139827.8,1.2426853676600242e+16
18.430599558325603,1.7817936392462882e+16,5.916706746364276e+16,9856573638232288.0,1.8241055604729628e+16,1943868592349.3984,8189007953566.385,375247278155971.75,1.28661216735162e+16
18.899211549492115,1.7980866718531854e+16,6.00518017786924e+16,9946703874069304.0,1.8407855039586104e+16,2011729497292.7944,8474890520637.203,388352948117900.25,1.3317536578369342e+16
19.37719578048196,1.81432292819524e+16,6.0947861877347784e+16,1.0036520033532876e+16,1.857407323018374e+16,2081440508707.2478,8768567292025.039,401816207449321.4,1.3781373116428762e+16
19.864739696091597,1.8305012029988188e+16,6.185550468944334e+16,1.0126015449258632e+16,1.873969783757648e+16,2153042616953.838,9070210959029.139,415644990119923.0,1.4257911128924132e+16
20.36203449001343,1.846620255445205e+16,6.277499156157885e+16,1.0215183257252786e+16,1.8904716158926436e+16,2226577551655.3643,9379997327628.05,429847373512797.6,1.474743564255556e+16
20.869275179813698,1.8626788116914204e+16,6.370658839468571e+16,1.0304016410837076e+16,1.9069115153310308e+16,2302087791479.888,9698105359705.271,444431580326346.25,1.525023694014658e+16
21.38666068340997,1.8786755673550376e+16,6.465056578190218e+16,1.03925076943942e+16,1.92328814671578e+16,2379616574113.492,10024717215072.092,459405980512522.3,1.5766610632498018e+16
21.91439389707817,1.894609189965965e+16,6.5607199146899656e+16,1.048064973693079e+16,1.939600145935149e+16,2459207906432.541,10360018294330.994,474779093253417.1,1.6296857731503616e+16
22.452681775019734,1.9104783213876508e+16,6.6576768882787864e+16,1.0568435025471012e+16,1.9558461226014056e+16,2540906574886.3413,10704197282625.805,490559588978247.3,1.684128472459062e+16
23.00173541052013,1.9262815802099516e+16,6.755956049172382e+16,1.065585591829349e+16,1.972024662500481e+16,2624758156101.4194,11057446194325.326,506756291422909.8,1.7400203650552634e+16
23.561770118730532,1.942017564115244e+16,6.85558647253406e+16,1.0742904658020284e+16,1.9881343300143212e+16,2710809027719.1826,11419960418690.727,523378179734348.75,1.7973932176843962e+16
24.133005521105144,1.957684852219264e+16,6.9565977726107624e+16,1.0829573384565902e+16,2.0041736705172492e+16,2799106379479.1235,11791938766577.16,540434390622070.1,1.856279367840846e+16
24.715665631527248,1.9732820073876948e+16,7.059020116972564e+16,1.0915854147952408e+16,2.020141212747616e+16,2889698224560.1836,12173583518223.303,557934220559203.5,1.9167117318118176e+16
25.309978944157795,1.9888075785292296e+16,7.162884240865909e+16,1.1001738920994108e+16,2.0360354711552796e+16,2982633411193.1562,12565100472183.092,575887128035625.1,1.9787238128900896e+16
25.91617852304095,2.0042601028656164e+16,7.268221461689958e+16,1.1087219611855074e+16,2.051854948225588e+16,3077961634557.697,12966698995456.295,594302735865693.2,2.042349709763685e+16
26.53450209350177,2.0196381081788292e+16,7.375063693605384e+16,1.1172288076480272e+16,2.0675981367798732e+16,3175733448977.59,13378592074876.023,613190833553245.1,2.107624125090929e+16
27.165192135371807,2.0349401150354052e+16,7.483443462284266e+16,1.1256936130899962e+16,2.0832635222526356e+16,3276000280428.429,13800996369812.496,632561379716575.4,2.1745823742695452e+16
27.808495978079243,2.050164638987566e+16,7.59339391980994e+16,1.1341155563405978e+16,2.0988495849449348e+16,3378814439372.1626,14234132266254.148,652424504576166.5,2.2432603944086564e+16
28.464665897640828,2.065310192750758e+16,7.704948859734488e+16,1.1424938146597692e+16,2.1143548022536204e+16,3484229133933.3877,14678223932328.523,672790512508023.5,2.3136947535129148e+16
29.133959215593645,2.0803752883568764e+16,7.818142732302384e+16,1.1508275649292952e+16,2.129777650875695e+16,3592298483432.365,15133499375326.135,693669884665507.4,2.3859226598880924e+16
29.816638399905518,2.0953584392823276e+16,7.933010659847677e+16,1.1591159848300596e+16,2.1451166089869336e+16,3703077532290.198,15600190500292.91,715073281672634.1,2.4599819717778332e+16
30.51297116790363,2.110258162549992e+16,8.049588452372386e+16,1.1673582540047616e+16,2.160370158393715e+16,3816622264321.805,16078533170255.863,737011546391841.6,2.5359112072412772e+16
31.223230591261704,2.1250729808038436e+16,8.167912623313518e+16,1.1755535552055978e+16,2.1755367866569468e+16,3932989617432.5015,16568767268149.926,759495706769273.0,2.613749554281646e+16
31.947695203086937,2.1398014243549984e+16,8.288020405505861e+16,1.1837010754260978e+16,2.190614989186673e+16,4052237498734.227,17071136760512.744,782536978760675.1,2.693536881236086e+16
32.686649107148675,2.154442033197815e+16,8.409949767347603e+16,1.191800007016372e+16,2.205603271306079e+16,4174424800097.7495,17585889763016.498,806146769341053.4,2.7753137474369268e+16
33.44038208929165,2.168993358994509e+16,8.533739429176134e+16,1.199849548780983e+16,2.2205001502831948e+16,4299611414157.1216,18113278607905.133,830336679601203.8,2.859121414155121e+16
34.20918973107749,2.1834539670266656e+16,8.659428879860245e+16,1.2078489070585024e+16,2.2353041573287908e+16,4427858250782.949,18653559913407.137,855118507934362.0,2.945001855836422e+16
34.993373525699035,2.197822438112096e+16,8.787058393616283e+16,1.2157972967818564e+16,2.250013839558735e+16,4559227254040.996,19206994655193.363,880504253316117.8,3.0329977716410636e+16
35.793240996213015,2.2120973704852136e+16,8.916669047054718e+16,1.2236939425185176e+16,2.2646277619189948e+16,4693781419652.957,19773848239950.21,906506118680866.9,3.1231525972979496e+16
36.60910581613728,2.2262773816391184e+16,9.048302736463709e+16,1.2315380794895456e+16,2.2791445090715332e+16,4831584812975.727,20354390581138.535,933136514397959.6,3.215510517284311e+16
37.44128793246003,2.2403611101277652e+16,9.182002195336774e+16,1.2393289545664718e+16,2.2935626872391824e+16,4972702587516.43,20948896177009.11,960408061850853.8,3.3101164773418164e+16
38.29011369110923,2.254347217326102e+16,9.317811012150901e+16,1.2470658272450212e+16,2.3078809260076852e+16,5117201003999.296,21557644190943.19,988333597122437.0,3.4070161973403664e+16
39.15591596493141,2.26823438914662e+16,9.455773648402298e+16,1.2547479705946428e+16,2.3220978800828948e+16,5265147450001.298,22180918534191.19,1016926174789754.2,3.50625618450074e+16
40.03903428423004,2.28202133771018e+16,9.595935456905789e+16,1.262374672182801e+16,2.3362122310013784e+16,5416610460173.208,22819007951076.17,1046199071831367.5,3.607883746987167e+16
