t(s),Total solute volume 1,Total retention volume 1,Total 1 volume 1,Total 2 volume 1,Total 3 volume 1,Total 4 volume 1,Total 5 volume 1,Total 6 volume 1
0.1,964857416365797.9,1154672529873703.2,88762465329957.31,101052648177948.16,0.0,0.0,0.0,0.0
0.202,1446836372632999.0,1745281563561714.0,133102323223353.48,151531869745808.16,19143588852.915775,38207738667.65673,586701581179.9259,13166945050852.764
0.30604000000000003,1808867900884940.5,2199603463406835.5,166407566627903.3,189448607050333.3,48344897541.56339,96489668462.66232,1481661391653.4683,33252892886000.08
0.41216080000000005,2110806108669690.8,2587726334159274.5,194184499612151.84,221071575749042.66,85468720362.13583,170584494591.1039,2619441538016.69,58788655375421.94
0.5204040160000001,2375149768078447.0,2935854881310610.0,218502906233422.34,248757145340060.94,129516874636.68057,258500218404.36713,3969453303076.5317,89087591262555.89
0.6308120963200001,2613143616825001.0,3257029518985096.0,240397250891091.2,273683013720567.12,179912092567.85278,359084911362.96173,5514008106232.687,123752632438270.61
0.7434283382464002,2831340645187992.5,3558825896053757.5,260470378695031.4,296535496838962.2,236284967290.63907,471601500061.2173,7241787836185.229,162529701028228.0
0.8582969050113283,3033948034107646.5,3846098898817363.5,279109331033433.3,317755226413936.4,298386022413.73724,595552274799.7043,9145150014099.744,205247218951037.12
0.9754628431115548,3223853773790773.5,4122179817758083.0,296579789785476.25,337644671035370.3,366042170674.41534,730591990384.7905,11218793381750.496,251786155603644.8
1.094972099973786,3403139985872625.0,4389473154966560.5,313073300610585.0,356421898061252.75,439132460067.1393,876479460950.5425,13459014600832.107,302063343900242.06
1.2168715419732616,3573365225704708.0,4649783874206088.0,328733243466702.9,374250140052926.06,517573397624.4201,1033048269855.3802,15863258480742.732,356021384833532.75
1.3412089728127268,3735731271886366.5,4904510188473445.0,343670176483729.06,391255263184240.25,601309504983.3773,1200187921155.3958,18429828545419.117,413622150947559.94
1.4680331522689813,3891187349546258.5,5154763688268419.0,357971424028332.25,407536682884194.56,690306944565.2853,1377831119386.9456,21157691705289.297,474842402040406.3
1.597393815314361,4040498261242998.5,5401447652527899.0,371707344434944.1,423174499407342.56,784549052073.1908,1565944853964.5903,24046341352092.68,539670712184488.3
1.729341691620648,4184290607492067.0,5645310032204286.0,384935582082655.25,438234338659630.7,884033107234.7224,1764523954861.0127,27095698402153.85,608105248505685.5
1.863928525453061,4323085132860065.5,5886980432250300.0,397704043087824.56,452770739909854.2,988767939367.3368,1973586314423.5432,30306037924467.176,680152124214293.9
2.001207095962122,4457319968526429.5,6126996618129418.0,410053033513358.25,466829590058589.0,1098772113644.6492,2193169268156.9324,33677933565596.688,755824151083654.5
2.1412312378813647,4587367717713776.0,6365823953219136.0,422016831150097.94,480449913050790.06,1214072532196.4192,2423326803438.3687,37212214688110.2,835139877280725.1
2.284055862638992,4713548266167970.0,6603869939046365.0,433624864022340.8,493665211558935.9,1334703338442.834,2664127373438.1514,40909932802413.36,918122833782820.4
2.4297369798917723,4836138555788487.0,6841495284410965.0,444902609517098.7,506504490607081.25,1460705047581.3398,2915652162409.476,44772334929709.11,1004800936358588.2
2.578331719489608,4955380156998827.0,7079022464068504.0,455872291007506.6,518993050649777.5,1592123848753.1548,3177993693633.001,48800842226692.625,1095206005643325.8
2.7298983538794,5071485216716675.0,7316742428977150.0,466553425038857.1,531153110522304.44,1729011039609.999,3451254701624.373,52997032668222.25,1189373378289854.5
2.884496320956988,5184641188277797.0,7554919933599209.0,476963256459939.4,543004302820950.9,1871422564446.1836,3735547211058.575,57362626904300.02,1287341589360714.5
3.0421862473761276,5295014634774846.0,7793797813539708.0,487117108312805.9,554564072239029.44,2019418634387.5713,4030991779486.202,61899476632223.016,1389152111166936.0
3.2030299723236504,5402754318295338.0,8033600456064674.0,497028666028523.94,565847999112805.9,2173063413361.5818,4337716871360.232,66609554985129.164,1494849137358155.5
3.3670905717701234,5507993732265860.0,8274536642631370.0,506710210391246.75,576870064642123.1,2332424757371.194,4655858338473.485,71494948554587.62,1604479403681710.0
3.5344323832055258,5610853194784163.0,8516801897520469.0,516172810115187.56,587642870131869.4,2497573997394.7246,4985558987492.51,76557850750645.8,1718092038753700.8
3.7051210308696363,5711441592423174.0,8760580444182935.0,525426482266601.8,598177819626223.0,2668585758322.8237,5326968219444.579,81800556266801.6,1835738439622373.8
3.879223451487029,5809857843203372.0,9006046847178218.0,534480326850557.0,608485273130514.4,2845537807924.063,5680241729167.243,87225456465778.94,1957472167990899.8
4.0568079205167695,5906192132021219.0,9253367400010100.0,543342640464684.06,618574676001646.5,3028510931038.075,6045541255140.21,92835035538994.33,2083348863797355.8
4.237944078927105,6000526960266007.0,9502701306012540.0,552021012859126.25,628454668877870.2,3217588825127.922,6423034371980.87,98631867321195.05,2213426173491217.2
4.422702960505647,6092938042600529.0,9754201689482110.0,560522409436258.56,638133181601547.4,3412858014051.0044,6812894319337.262,104618612664039.47,2347763690846363.5
4.61115701971576,6183495077176963.0,1.0008016466643816e+16,568853242107017.6,647617513886347.0,3614407777480.2456,7215299862053.665,110798017289941.56,2486422908544009.5
4.803380160110075,6272262410379835.0,1.0264289100166178e+16,577019430444218.2,656914404937947.0,3822330093861.124,7630435177391.692,117172910061405.1,2629467179071523.0
4.9994477633122765,6359299613152694.0,1.0523159256375144e+16,585026454701959.0,666030093814580.9,4036719595153.244,8058489765812.656,123746201612210.06,2776961683732754.0
5.199436718578522,6444661982793941.0,1.0784763380730796e+16,592879401978559.6,674970371981768.0,4257673531897.6064,8499658382411.52,130520883295764.98,2928973408766433.5
5.403425452950093,6528400981599027.0,1.10492352043008e+16,600583006569606.9,683740629252702.4,4485291747387.17,8954140986565.36,137500026413201.94,3085571127732298.0
5.611493962009095,6610564621724464.0,1.131670619170934e+16,608141685373714.4,692345894096342.2,4719676659912.059,9422142707744.57,144686781689716.72,3246825389457421.5
5.823723841249277,6691197804045910.0,1.158730593923375e+16,615559569065890.6,700790869127095.6,4960933252208.85,9903873825751.68,152084378972509.7,3412808510944373.0
6.040198318074262,6770342617484802.0,1.1861162530265136e+16,622840529634228.4,709079962454282.0,5209169067374.581,10399549763914.713,159696127127702.94,3583594574732846.5
6.261002284435747,6848038604226480.0,1.2138402854166924e+16,629988204778762.9,717217315459279.4,5464494210614.509,10909391093976.99,167525414116931.06,3759259430280893.5
6.486222330124463,6924322995392118.0,1.2419152893601842e+16,637006019592200.1,725206827478215.0,5727021356282.856,11433623551607.57,175575707237072.78,3939880698994349.5
6.715946776726952,6999230921020890.0,1.2703537984607596e+16,643897205877318.9,733052177794075.1,5996865759752.118,11972478061606.604,183850553508925.0,4125537782585029.5
6.950265712261491,7072795597635662.0,1.299168305304941e+16,650664819402164.0,740756845281083.1,6274145273709.574,12526190772008.346,192353580202564.75,4316311874482211.0
7.18927102650672,7145048496182725.0,1.3283712830538546e+16,657311755349716.2,748324125993548.1,6558980368534.169,13095003096390.535,201088495488802.06,4512285974058845.0
7.433056447036854,7216019492732579.0,1.357975205245688e+16,663840762181696.6,755757148949269.9,6851494156452.002,13679161763792.477,210059089207536.1,4713544903465544.0
7.681717575977592,7285737003992826.0,1.3879925640352462e+16,670254454105109.4,763058890322228.0,7151812419208.367,14278918875719.219,219269233745001.25,4920175326892353.0
7.935351927497144,7354228109400098.0,1.4184358870656154e+16,676555322304157.8,770232186229683.2,7460063639026.592,14894531969778.418,228722885012937.88,5132265772100467.0
8.194058966047088,7421518661320418.0,1.4493177531405152e+16,682745745078161.1,777279744273800.5,7776379032653.582,15526264089551.809,238424083523582.78,5349906654086980.0
8.45794014536803,7487633384684178.0,1.4806508068433644e+16,688827997007521.0,784204153976753.2,8100892588315.718,16174383860353.424,248376955555134.06,5573190300761395.0
8.72709894827539,7552595967210652.0,1.5124477722302202e+16,694804257253973.4,791007896230227.8,8433741105430.583,16839165570568.303,258585714403007.34,5802210980528310.0
9.0016409272409,7616429141230674.0,1.544721465707425e+16,700676617087880.2,797693351864982.8,8775064236938.251,17520889258304.385,269054661712754.4,6037064931682727.0
9.281673745785717,7679154757990394.0,1.5774848081911324e+16,706447086723855.0,804262809432911.2,9125004534131.848,18219840803119.797,279788188891028.53,6277850393535878.0
9.567307220701432,7740793855211641.0,1.6107508366337608e+16,712117601535992.6,810718472282872.6,9483707493881.55,18936312022618.02,290790778591387.1,6524667639199189.0
9.85865336511546,7801366718592125.0,1.6445327149925446e+16,717690027715609.6,817062465001788.5,9851321608157.951,19670600773727.93,302067006272141.25,6777619009961880.0
10.155826432417769,7860892937848111.0,1.678843744706356e+16,723166167426921.4,823296839284197.6,10227998415771.97,20423011058505.613,313621541823745.56,7036808951206299.0
10.458942961066125,7919391457833921.0,1.7136973747394258e+16,728547763509796.8,829423579286149.4,10613892556257.719,21193853134316.477,325459151263568.75,7302344049810255.0
10.768121820287448,7976880625211563.0,1.7491072112440832e+16,733836503773141.8,835444606513066.4,11009161825833.77,21983443628272.41,337584698496105.75,7574333072992857.0
11.083484256693197,8033378231091980.0,1.7850870268888142e+16,739034024917716.2,841361784285711.6,11413967235384.932,22792105655812.555,350003147136946.7,7852887008564580.0
11.405153941827061,8088901550023717.0,1.8216507698930136e+16,744141916122898.1,847176921823588.9,11828473070414.002,23620168943331.945,362719562399032.0,8138119106547145.0
11.733257020663602,8143467375664643.0,1.8588125728054948e+16,749161722328330.4,852891777980966.0,12252846952919.012,24467969954773.113,375739113039882.6,8430144922133454.0
12.067922161076874,8197092053437358.0,1.8965867610599016e+16,754094947238064.6,858508064666971.5,12687259905156.232,25335852022107.086,389067073368699.0,8729082359960685.0
12.409280604298411,8249791510438234.0,1.9349878613369576e+16,758943056072043.0,864027449978063.1,13131886415254.916,26224165479639.88,402708825312335.25,9035051719673960.0
12.75746621638438,8301581282842289.0,1.9740306097604124e+16,763707478087245.5,869451561068264.0,13586904504653.246,27133267802090.418,416669860539341.8,9348175742760214.0
13.112615540712067,8352476541023272.0,2.0137299599512124e+16,768389608888602.4,874781986780011.8,14052495797330.193,28063523746392.07,430955782641332.56,9668579660635186.0
13.474867851526309,8402492112585314.0,2.0541010909617548e+16,772990812547810.2,880020280056388.2,14528845590809.893,29015305497180.457,445572309371117.06,9996391243968952.0
13.844365208556836,8451642503485453.0,2.0951594151104796e+16,777512423546508.6,885167960153332.9,15016142928920.578,29988992815933.78,460525274937089.8,1.0331740853237516e+16
14.221252512727972,8499941917408205.0,2.1369205857349644e+16,781955748558645.5,890226514668792.5,15514580676291.082,30984973193741.332,475820632353495.56,1.0674761490490506e+16
14.605677562982532,8547404273539194.0,2.1794005048803344e+16,786322068085573.0,895197401404231.2,16024355594572.648,32003642007678.844,491464455846265.0,1.1025588852325836e+16
14.997791114242183,8594043222871043.0,2.222615330938153e+16,790612637956118.6,900082050072386.9,16545668420374.814,33045402680777.62,507462943314217.1,1.138436138406661e+16
15.397746936527026,8639872163163061.0,2.2665814862499684e+16,794828690702800.8,904881863864052.2,17078723944907.717,34110666845577.062,523822418845486.3,1.1751220335133826e+16
15.805701875257567,8684904252665510.0,2.311315664688383e+16,798971436824403.4,909598220885459.8,17623731095324.766,35199854511257.12,540549335289108.0,1.2126309815612766e+16
16.221815912762718,8729152422709459.0,2.356834839227584e+16,803042065944181.1,914232475476857.8,18180903017762.266,36313394234349.3,557650276881784.5,1.2509776854011482e+16
16.64625223101797,8772629389254686.0,2.403156269514428e+16,807041747872224.0,918785959421969.4,18750457162073.637,37451723293032.18,575131961929893.2,1.2901771456210408e+16
17.079177275638333,8815347663480534.0,2.4502975094503044e+16,810971633579749.0,923259983057186.8,19332615368259.543,38615287865018.6,593001245546873.0,1.3302446665605404e+16
17.5207608211511,8857319561496875.0,2.4982764147933184e+16,814832856092481.9,927655836288650.5,19927603954594.35,39804543209045.75,611265122446197.5,1.3711958624445366e+16
17.97117603757412,8898557213246886.0,2.5471111507897708e+16,818626531309666.4,931974789524663.8,20535653807453.887,41019953849987.914,629930729790171.1,1.4130466636368904e+16
18.430599558325603,8939072570666903.0,2.596820199843171e+16,822353758754721.1,936218094530285.1,21157000472848.867,42261993767605.51,649005350094859.6,1.4558133230144478e+16
18.899211549492115,8978877415163286.0,2.6474223692286396e+16,826015622263101.6,940386985210425.8,21791884249670.977,43531146588957.78,668496414191531.5,1.499512422461944e+16
19.37719578048196,9017983364462246.0,2.6989367988601616e+16,829613190612428.1,944482678327239.2,22440550284659.836,44827905784502.35,688411504244967.9,1.5441608794885608e+16
19.864739696091597,9056401878883278.0,2.7513829691174404e+16,833147518099630.1,948506374157167.8,23103248669099.652,46152774867912.34,708758356829172.8,1.5897759539668164e+16
20.36203449001343,9094144267083454.0,2.804780708739074e+16,836619645069391.1,952459257092556.6,23780234537257.76,47506267599641.67,729544866060905.8,1.636375254994749e+16
20.869275179813698,9131221691316148.0,2.859150202788231e+16,840030598397912.8,956342496192408.9,24471768166575.23,48888908194273.9,750779086791653.8,1.6839767478823278e+16
21.38666068340997,9167645172244030.0,2.9145120006967216e+16,843381391935713.2,960157245686487.9,25178115079624.594,50301231531692.71,772469237858569.2,1.7325987612631044e+16
21.91439389707817,9203425593343792.0,2.970887024393162e+16,846673026912819.1,963904645436607.8,25899546147847.914,51743783372113.93,794623705395083.6,1.782259994332333e+16
22.452681775019734,9238573704936598.0,3.0282965765205776e+16,849906492309566.2,967585821358786.5,26636337697090.797,53217120575022.664,817251046201778.0,1.832979524212688e+16
23.00173541052013,9273100127876198.0,3.086762348748641e+16,853082765195876.6,971201885809502.2,27388771614949.527,54721811322060.24,840359991178314.5,1.8847768134489508e+16
23.561770118730532,9307015356923918.0,3.146306430185516e+16,856202811041748.1,974753937939154.2,28157135459947.96,56258435343910.02,863959448817118.9,1.9376717176329372e+16
24.133005521105144,9340329763837772.0,3.206951315894085e+16,859267584001436.1,978243064015615.1,28941722572563.95,57827584151231.93,888058508759633.9,1.99168449316026e+16
24.715665631527248,9373053600200844.0,3.2687199155171588e+16,862278027173650.2,981670337720436.4,29742832188122.285,59429861269699.81,912666445415969.6,2.046835805120286e+16
25.309978944157795,9405197000011964.0,3.3316355620161536e+16,865235072839898.1,985036820420205.5,30560769551578.09,61065882479194.375,937792721648797.6,2.1031467353209852e+16
25.91617852304095,9436769982060892.0,3.3957220205275404e+16,868139642682967.0,988343561415279.1,31395846034208.164,62736276057211.87,963446992522406.1,2.160638790450245e+16
26.53450209350177,9467782452107218.0,3.4610034973413132e+16,870992647987388.5,991591598167999.0,32248379252234.594,64441683026547.09,989639109117846.9,2.2193339103753852e+16
27.165192135371807,9498244204881772.0,3.5275046490054656e+16,873794989823566.6,994781956512316.8,33118693187402.387,66182757407311.22,1016379122415127.4,2.2792544765827172e+16
27.808495978079243,9528164925928104.0,3.595250591560601e+16,876547559217165.1,997915650846630.0,34007118309534.473,67960166473351.28,1043677287243459.0,2.3404233207587736e+16
28.464665897640828,9557554193298900.0,3.664266909908417e+16,879251237305185.6,1000993684311481.5,34913991701089.043,69774591013132.77,1071544066300600.1,2.402863733515374e+16
29.133959215593645,9586421479122888.0,3.734579667317959e+16,881906895480110.9,1004017048953647.9,35839657183742.65,71626725595159.12,1099990134242318.8,2.4665994732601736e+16
29.816638399905518,9614776151055330.0,3.806215415073438e+16,884515395523336.5,1006986725878065.9,36784465447025.68,73517278837991.58,1129026381843121.0,2.5316547752149508e+16
30.51297116790363,9642627473624574.0,3.87920120226702e+16,887077589729066.4,1009903685388855.9,37748774179035.695,75446973684946.1,1158663920229320.5,2.5980543605834444e+16
31.223230591261704,9669984609486716.0,3.953564585740486e+16,889594321019708.0,1012768887120723.5,38732948199254.31,77416547683537.23,1188914085185645.2,2.665823445870927e+16
31.947695203086937,9696856620598190.0,4.029333640179123e+16,892066423053780.9,1015583280161778.5,39737359593496.86,79426753269748.02,1219788441536500.8,2.734987752357765e+16
32.686649107148675,9723252469317214.0,4.106536968361238e+16,894494720327201.9,1018347803168880.2,40762387851018.58,81478358057197.75,1251298787603158.8,2.8055735157287644e+16
33.44038208929165,9749181019442062.0,4.185203711567046e+16,896880028268842.0,1021063384476388.5,41808420003809.805,83572145131291.9,1283457159738061.0,2.8776074958610056e+16
34.20918973107749,9774651037195356.0,4.265363560149923e+16,899223153331054.0,1023730942199254.5,42875850768103.88,85708913348430.14,1316275836937513.5,2.9511169867719484e+16
34.993373525699035,9799671192161726.0,4.347046764273587e+16,901524893075933.2,1026351384331211.0,43965082688129.9,87889477640357.1,1349767345534069.0,3.0261298267304384e+16
35.793240996213015,9824250058185796.0,4.430284144818518e+16,903786036257938.8,1028925608838832.0,45076526282136.375,90114669323737.64,1383944463969902.8,3.102674408532689e+16
36.60910581613728,9848396114237060.0,4.515107104460803e+16,906007362903454.6,1031454503752118.2,46210600190717.79,92385336415041.69,1418820227652449.8,3.180779689945724e+16
37.44128793246003,9872117745247810.0,4.6015476389265464e+16,908189644387858.1,1033938947252237.2,47367731327469.664,94702343950827.2,1454407933893781.5,3.2604752043205476e+16
38.29011369110923,9895423242928912.0,4.689638348425243e+16,910333643510601.9,1036379807756988.5,48548355032006.27,97066574313505.2,1490721146935003.0,3.3417910713775464e+16
39.15591596493141,9918320806569256.0,4.779412449265204e+16,912440114568722.6,1038777944004504.8,49752915225365.766,99478927562678.77,1527773703057113.8,3.4247580081664416e+16
40.03903428423004,9940818543822344.0,4.870903785653895e+16,914509803429235.0,1041134205135660.8,50981864567836.05,101940321772146.83,1565579715779710.5,3.5094073402032052e+16
40.93981496991464,9962924471485044.0,4.964146841686798e+16,916543447600751.8,1043449430775613.4,52235664619229.52,104451693372659.33,1604153581149063.8,3.5957710127865584e+16
41.85861126931294,9984646516271700.0,5.0591767535273416e+16,918541776304706.1,1045724451114889.4,53514786001636.29,107013997500525.6,1643509983116914.2,3.683881602496306e+16
42.7957834946992,1.0005992515586964e+16,5.1560293217813304e+16,920505510546450.2,1047960086990310.4,54819708564685.945,109628208352157.55,1683663899011559.5,3.7737723288761064e+16
43.751699164593184,1.0026970218300428e+16,5.254741024068532e+16,922435363186511.8,1050157149966149.0,56150921553347.04,112295319544657.27,1724630605102669.5,3.8654770663031656e+16
44.72673314788505,1.0047587285525896e+16,5.3553490277948376e+16,924332039012296.8,1052316442415726.0,57508923778295.08,115016344482529.47,1766425682261388.0,3.9590303560472264e+16
