t(s),Total solute volume 1,Total retention volume 1,Total 1 volume 1,Total 2 volume 1,Total 3 volume 1,Total 4 volume 1,Total 5 volume 1,Total 6 volume 1
0.1,803801399340899.0,888695292650996.4,42833262785020.44,42060630525076.21,0.0,0.0,0.0,0.0
0.202,1210732050007314.0,1339560751831452.8,64517932105900.26,63354148942554.164,2896279728.1528955,4604277222.026542,50262539380.15656,898857679354.1072
0.30604000000000003,1520218001943331.5,1683202864368998.0,81009932663517.16,79548664585388.06,7345760016.326632,11677735022.42293,127479968462.34436,2279761713261.567
0.41216080000000005,1781654805082061.2,1974133133477773.8,94941472609964.58,93228905542320.62,13042715487.252457,20734369262.200474,226346794052.3808,4047826364625.5635
0.5204040160000001,2013524869466088.2,2232740940603828.0,107297449371306.2,105362003532859.9,19850728499.492004,31557326254.522045,344495735999.49585,6160714442821.41
0.6308120963200001,2225035746723636.5,2469181914090353.0,118568518325544.19,116429763428606.38,27695973326.096886,44029255510.816315,480645744339.66345,8595514639392.943
0.7434283382464002,2421538477796314.5,2689358098340453.0,129039827698881.12,126712189914121.45,36535608505.69861,58082062870.747635,634053476991.4865,11338931782767.736
0.8582969050113283,2606460415922372.0,2897050621990026.5,138894015543773.7,136388626592267.38,46344785916.77943,73676258805.03596,804287855030.6454,14383255031861.092
0.9754628431115548,2782149490514306.0,3094851013792461.0,148256199181177.84,145581933901004.38,57110246389.41531,90790777383.5796,991118921335.6055,17724370250866.016
1.094972099973786,2950295612837253.5,3284625942809382.5,157216431220427.16,154380540068618.34,68826769970.05392,109417333301.45706,1194456239040.5588,21360658340766.46
1.2168715419732616,3112162037667342.5,3467772310076646.5,165842028443877.9,162850547608304.3,81495040337.5528,129557026987.6363,1414311831217.6836,25292332458587.89
1.3412089728127268,3268721830590967.0,3645367678169294.0,174184843926248.88,171042874262054.1,95120279961.0318,151218174965.17685,1650776496031.6052,29521014439068.84
1.4680331522689813,3420743005086024.0,3818264098383073.5,182285803850533.3,178997707980867.12,109711336675.72284,174414857832.76935,1904003955814.026,34049451315318.363
1.597393815314361,3568844087437232.5,3987149334863048.5,190177868471521.3,186747414478026.62,125280049983.51567,199165912926.47745,2174199860493.8262,38881318652863.26
1.729341691620648,3713531752430566.0,4152588325822261.5,197888037660444.7,194318506597454.88,141840798750.17102,225494215349.64554,2461613939000.8745,44021080180698.2
1.863928525453061,3855227119945857.5,4315052148413621.5,205438752207420.2,201733020339276.0,159410171035.45218,253426153159.51486,2766534270183.823,49473885326689.9
2.001207095962122,3994284620814756.5,4474938796099399.0,212848899152180.94,209009502056262.03,178006718795.1715,282991237476.92633,3089283026617.8823,55245493093308.086
2.1412312378813647,4131005837893931.0,4632588426722601.0,220134549353564.62,216163732721760.3,197650772967.59512,314221808895.36096,3430213323706.659,61342220847765.01
2.284055862638992,4265649892729663.5,4788294775152600.0,227309510972554.25,223209271417463.62,218364303909.79147,347152814467.1701,3789706569282.113,67770876345259.13
2.4297369798917723,4398441309043068.0,4942313848755076.0,234385748512688.7,230157866832606.25,240170812784.00568,381821636928.0204,4168170922976.0757,74538760994031.97
2.578331719489608,4529576142233467.0,5094870652506748.0,241373709445763.06,237019777986078.2,263095250168.63052,418267964170.99225,4566039655796.482,81653619971288.33
2.7298983538794,4659226763619898.0,5246164463938094.0,248282579157641.16,243804024576514.03,287163953042.3918,456533689447.27234,4983770114605.131,89123628826945.78
2.884496320956988,4787545663215240.0,5396373021835231.0,255120483591878.6,250518585970604.25,312404597217.67645,496662835826.75726,5421842897550.916,96957378726917.08
3.0421862473761276,4914668502549834.0,5545655889790385.0,261894651929701.0,257170560948628.44,338846161901.348,538701499941.328,5880761240004.602,105163865460383.05
3.2030299723236504,5040716590211666.0,5694157184728784.0,268611548507494.12,263766297242401.75,366518904032.73846,582697811274.7495,6361050570211.752,113752481481715.25
3.3670905717701234,5165798907728236.0,5842007810922173.0,275276980772736.75,270311497543884.66,395454340600.95514,628701904141.3105,6863258203465.136,122733010429084.3
3.5344323832055258,5290013781397744.0,5989327304734491.0,281896188373153.8,276811306987329.47,425685237549.9877,676765900141.3567,7387953150651.363,132115623687914.69
3.7051210308696363,5413450272576278.0,6136225369905426.0,288473917242850.6,283270385899043.6,457245604183.186,726943899363.6349,7935726022285.817,141910878661404.22
3.879223451487029,5536189342031660.0,6282803164570789.0,295014481648821.0,289692970724692.2,490170692207.40894,779291978968.0365,8507189013118.92,152129718481315.5
4.0568079205167695,5658304831459966.0,6429154387442261.0,301521816494362.25,296082925389257.4,524496998731.7875,833868198059.9379,9102975955428.67,162783472946450.0
4.237944078927105,5779864295885027.0,6575366200245540.0,307999521676278.5,302443784854120.56,560262272670.7603,890732607981.473,9723742431450.998,173883860518016.5
4.422702960505647,5900929713559534.0,6721520015700382.0,314450899914363.25,308778792264171.3,597505524105.8839,949947267311.84,10370165937220.4,185442991233664.5
4.61115701971576,6021558094556409.0,6867692174348545.0,320878989182221.44,315090930793640.2,636267036243.4106,1011576260999.7648,11042946091523.586,197473370427517.2
4.803380160110075,6141802005044871.0,7013954528921381.0,327286590645099.2,321382951079975.6,676588379669.7637,1075685723154.947,11742804884801.27,209987903163813.7
4.9994477633122765,6261710020982613.0,7160374951346672.0,333676292836386.06,327657394964256.56,718512428659.2719,1142343863108.211,12470486963736.902,222999899307919.25
5.199436718578522,6381327122391617.0,7307017774675285.0,340050492667942.06,333916616122524.5,762083379330.268,1211620994416.5742,13226759947999.453,236523079171450.47
5.403425452950093,6500695037359741.0,7453944179978507.0,346411413761366.75,340162798066393.94,807346769479.5531,1283589566543.265,14012414776191.729,250571579678796.62
5.611493962009095,6619852543294782.0,7601212536491255.0,352761122501343.4,346397969906824.3,854349499952.8054,1358324198986.6194,14828266078537.957,265159961010831.97
5.823723841249277,6738835731664509.0,7748878701852901.0,359101542143204.0,352624020207211.4,903139857430.9943,1435901717667.5415,15675152574232.113,280303213688644.16
6.040198318074262,6857678241411051.0,7896996288149009.0,365434465251193.3,358842709197284.1,953767538531.4637,1516401193414.7231,16553937491693.082,296016766065841.56
6.261002284435747,6976411465380271.0,8045616898524576.0,371761564698761.4,365055679574978.1,1006283675137.6462,1599903982411.2673,17465509010237.47,312316492202769.3
6.486222330124463,7095064733415590.0,8194790338379278.0,378084403425325.4,371264466087201.5,1060740860884.0577,1686493768486.48,18410780721901.516,329218720099883.7
6.715946776726952,7213665475196829.0,8344564804530355.0,384404443113694.56,377470504050732.5,1117193178733.8748,1776256607153.546,19390692112329.13,346740240270886.44
6.950265712261491,7332239365437288.0,8494987055214214.0,390723051927376.9,383675136949963.3,1175696229595.2275,1869280971307.8208,20406209059795.18,364898314638890.4
7.18927102650672,7450810453663607.0,8646102563371117.0,397041511426341.44,389879623227912.94,1236307161929.7344,1965657798512.372,21458324351563.695,383710685741256.75
7.433056447036854,7569401280480206.0,8797955655302440.0,403361022762558.06,396085142370012.8,1299084702313.1196,2065480539807.3335,22548058216887.81,403195586230659.3
7.681717575977592,7688032981949803.0,8950589636492617.0,409682712242264.75,402292800366037.2,1364089186913.0063,2168845209988.0012,23676458876052.46,423371748661567.06
7.935351927497144,7806725383494891.0,9104046906139228.0,416007636329825.56,408503634623707.44,1431382593853.283,2275850439303.627,24844603104934.14,444258415552717.06
8.194058966047088,7925497084534027.0,9258369061724250.0,422336786157854.2,414718618397454.6,1501028576438.5298,2386597526535.079,26053596814621.91,465875349717325.56
8.45794014536803,8044365534904682.0,9413596994781864.0,428671091599671.44,420938664787420.7,1573092497214.7083,2501190493414.2754,27304575645695.777,488242844853769.1
8.72709894827539,8163347103987609.0,9569770978867248.0,435011424952825.5,427164630356535.6,1647641462845.4412,2619736140352.9263,28598705576807.047,511381736390282.2
9.0016409272409,8282457143330572.0,9726930750602654.0,441358604276205.7,433397318407435.1,1724744359785.1997,2742344103451.487,29937183547245.395,535313412577963.8
9.281673745785717,8401710043469079.0,9885115584566396.0,447713396417930.0,439637481955726.2,1804471890732.7363,2869126912762.447,31321238093208.47,560059825826950.75
9.567307220701432,8521119285556287.0,1.0044364362696828e+16,454076519766617.44,445885826431643.25,1886896611849.6975,3000200051784.656,32752129997521.89,585643504281123.8
9.85865336511546,8640697488340661.0,1.0204715638802254e+16,460448646754750.9,452143012138239.5,1972092970730.729,3135682018167.4424,34231152952577.65,612087563627142.4
10.155826432417769,8760456450965895.0,1.0366207698697262e+16,466830406139414.1,458409656491000.2,2060137345112.4526,3275694385605.334,35759634236281.055,639415719133963.5
10.458942961066125,8880407192013198.0,1.0528878616426074e+16,473222385082790.3,464686336060797.94,2151108082309.7385,3420361866905.41,37338935400812.445,667652297919246.6
10.768121820287448,9000559985157827.0,1.0692766306980772e+16,479625131052244.3,470973588439708.4,2245085539368.2974,3569812378210.8525,38970452974022.805,696822251439378.0
11.083484256693197,9120924391770654.0,1.0857908575876704e+16,486039153557604.9,477271913946955.56,2342152123923.4585,3724177104365.116,40655619173295.59,726951168199924.9
11.405153941827061,9241509290759370.0,1.1024343165907602e+16,492464925741352.25,483581777190416.44,2442392335755.3457,3883590565401.9956,42395902631712.74,758065286683618.2
11.733257020663602,9362322905912126.0,1.1192107801367778e+16,498902885835714.7,489903608497427.06,2545892809030.996,4048190684147.5415,44192809136374.1,790191508492954.6
12.067922161076874,9483372830978906.0,1.1361240229998948e+16,505353438499220.4,496237805227233.56,2652742355224.6436,4218118854920.3247,46047882378722.4,823357411704722.1
12.409280604298411,9604666052701816.0,1.1531778262892356e+16,511816956043937.94,502584732976092.44,2763032006706.939,4393520013316.8286,47962704716729.7,857591264433740.8
12.75746621638438,9726208971983904.0,1.170375981255245e+16,518293779563529.25,508944726684973.2,2876855060994.7275,4574542707069.028,49938897948806.06,892922038603173.5
13.112615540712067,9848007423367370.0,1.1877222929309164e+16,524784219971213.94,515318091658805.06,2994307125652.6445,4761339167961.478,51978124099292.195,929379423918849.0
13.474867851526309,9970066692975694.0,1.2052205836245876e+16,531288558955872.0,521705104505326.25,3115486163837.933,4954065384795.303,54082086215397.71,966993842044937.1
13.844365208556836,1.0092391535058724e+16,1.222874696279501e+16,537807049863709.6,528106014000851.06,3240492540479.8354,5152881177386.154,56252529175448.164,1005796460978424.9
14.221252512727972,1.0214986187267992e+16,1.2406884977138536e+16,544339918512252.75,534521041889584.4,3369429069084.972,5357950271583.754,58491240508302.29,1045819209619752.0
14.605677562982532,1.0337854384776824e+16,1.2586658817537286e+16,550887363942783.56,540950383622475.2,3502401059159.8535,5569440375300.039,60800051223800.14,1087094792536969.1
14.997791114242183,1.0460999373349824e+16,1.276810772270233e+16,557449559116794.75,547394209041114.6,3639516364241.6733,5787523255532.612,63180836654102.125,1129656704920728.8
15.397746936527026,1.0584423921457548e+16,1.295127126131084e+16,564026651561555.8,553852663011660.44,3780885430528.176,6012374816371.02,65635517305773.12,1173539247727374.5
15.805701875257567,1.070813033152318e+16,1.3136189360759846e+16,570618763969436.1,560325866013340.3,3926621346097.5767,6244175177971.348,68166059722468.27,1218777543007362.8
16.221815912762718,1.0832120450381258e+16,1.3322902335243608e+16,577225994755235.5,566813914685737.0,4076839890708.7026,6483108756486.396,70774477358067.38,1265407549416100.2
16.64625223101797,1.0956395679021828e+16,1.3511450913231474e+16,583848418575419.5,573316882338655.8,4231659586171.9688,6729364344936.388,73462831460108.5,1313466077904370.0
17.079177275638333,1.1080956981686406e+16,1.3701876264418256e+16,590486086812847.9,579834819428105.0,4391201747280.9375,6983135195006.35,76233231963361.25,1362990807585235.0
17.5207608211511,1.1205804894378518e+16,1.389422002621119e+16,597139028030266.8,586367754001618.2,4555590533294.165,7244619099754.931,79087838393375.61,1414020301774368.8
17.97117603757412,1.1330939532844388e+16,1.4088524329813488e+16,603807248395612.4,592915692115868.9,4724952999956.851,7514018477219.185,82028860779843.92,1466594024200604.2
18.430599558325603,1.1456360600076944e+16,1.4284831825958062e+16,610490732081859.9,599478618229328.2,4899419152050.933,7791540454899.36,85058560579597.58,1520752355383374.2
18.899211549492115,1.1582067393390414e+16,1.4483185710341084e+16,617189441644029.1,606056495572456.0,5079121996462.353,8077396955106.923,88179251609058.1,1576536609173552.2
19.37719578048196,1.1708058811109632e+16,1.4683629748800014e+16,623903318375659.0,612649266497744.1,5264197595753.362,8371804781158.791,91393300985958.05,1633989049454127.8
19.864739696091597,1.1834333358914918e+16,1.4886208302277152e+16,630632282646890.1,619256852811711.2,5454785122227.319,8674985704398.803,94703130080127.39,1693152906996907.0
20.36203449001343,1.1960889155878774e+16,1.5090966351604638e+16,637376234226176.5,625879156090796.8,5651026912472.744,8987166552027.844,98111215473140.39,1754072396471236.2
20.869275179813698,1.208772394022878e+16,1.5297949522144292e+16,644135052587358.2,632516057982914.2,5853068522372.379,9308579295721.762,101620089926601.52,1816792733600552.8
21.38666068340997,1.2214835074866536e+16,1.5507204108311198e+16,650908597203777.0,639167420496238.6,6061058782562.678,9639461141015.447,105232343358830.75,1881360152462220.8
21.91439389707817,1.2342219552670842e+16,1.5718777098005786e+16,657696707830850.6,645833086276704.9,6275149854327.447,9980054617429.873,108950623829698.1,1947821922925890.8
22.452681775019734,1.2469874001609112e+16,1.5932716196976782e+16,664499204778478.1,652512878875485.1,6495497285908.617,10330607669316.365,112777638533332.62,2016226368225162.5
23.00173541052013,1.259779468967906e+16,1.6149069853132974e+16,671315889174358.6,659206603007560.0,6722260069215.602,10691373747391.672,116716154798409.94,2086622882656968.0
23.561770118730532,1.2725977529699766e+16,1.6367887280817618e+16,678146543219296.0,665914044802422.9,6955600696913.159,11062611900933.205,120769001095694.7,2159061949402599.0
24.133005521105144,1.2854418083967502e+16,1.6589218485057176e+16,684990930435314.6,672634972047717.4,7195685219865.702,11444586870602.803,124939068052487.66,2233595158463717.5
24.715665631527248,1.2983111568790654e+16,1.6813114285790982e+16,691848795907299.6,679369134426522.8,7442683304914.396,11837569181862.822,129229309473587.61,2310275224706168.5
25.309978944157795,1.3112052858913828e+16,1.7039626342085202e+16,698719866518771.1,686116263748862.9,7696768292960.536,12241835238945.467,133642743368343.95,2389156006003514.0
25.91617852304095,1.324123649183964e+16,1.7268807176331306e+16,705603851182169.1,692876074177850.0,7958117257326.696,12657667419332.592,138182452983329.73,2470292521471670.0
26.53450209350177,1.3370656672053774e+16,1.750071019842465e+16,712500441064003.4,699648262450770.2,8226911062363.743,13085354168697.877,142851587840118.62,2553740969784936.0
27.165192135371807,1.3500307275156208e+16,1.77353897299155e+16,719409309805007.2,706432508095262.0,8503334422269.275,13525190096259.2,147653364777595.88,2639558747562874.5
27.808495978079243,1.3630181851900274e+16,1.7972901028121414e+16,726330113735358.6,713228473640658.9,8787575960078.998,13977476070483.354,152591068998171.8,2727804467816389.5
28.464665897640828,1.3760273632136994e+16,1.821330031018559e+16,733262492084881.5,720035804824404.4,9079828266789.553,14442519315079.758,157668055117211.1,2818537978440249.5
29.133959215593645,1.3890575528663172e+16,1.8456644777063356e+16,740206067188098.1,726854130793383.0,9380287960566.756,14920633505212.854,162887748214910.9,2911820380738034.5
29.816638399905518,1.402108014096648e+16,1.8702992637414124e+16,747160444683798.9,733683064299922.0,9689155745989.154,15412138863857.557,168253644889810.38,3007714047964264.0
30.51297116790363,1.4151779758862608e+16,1.8952403131375028e+16,754125213708855.4,740522201892085.9,10006636473272.914,15917362258214.008,173769314313006.72,3106282643866997.0
31.223230591261704,1.428266636601559e+16,1.9204936554187828e+16,761099947085824.6,747371124097908.1,10332939197418.324,16436637296091.4,179438399282109.88,3207591141212862.5
31.947695203086937,1.4413731663238932e+16,1.946065427905029e+16,768084202564272.6,754229396643573.1,10668277251778.385,16970304443990.982,185264617274245.8,3311705817633459.5
32.686649107148675,1.4544966992062074e+16,1.971961878219873e+16,775077518749129.8,761096566458181.6,11012868248878.736,17518711036230.621,191251761494317.0,3418694364149895.0
33.44038208929165,1.4676363457536884e+16,1.998189366400701e+16,782079421642803.2,767972168093421.0,11366934225502.258,18082211500384.715,197403701925149.3,3528625769082838.5
34.20918973107749,1.4807911851289276e+16,2.024754367236838e+16,789089420546080.6,774855719701358.5,11730701643359.66,18661167366330.082,203724386365512.53,3641570425456480.5
34.993373525699035,1.4939602674345358e+16,2.051663472509744e+16,796107009274159.9,781746724227807.9,12104401461112.01,19255947382320.4,210217841466287.56,3757600126940426.5
35.793240996213015,1.5071426139770944e+16,2.0789233931984148e+16,803131666297304.6,788644669550440.0,12488269191543.479,19866927608866.645,216888173757572.56,3876788085807496.0
36.60910581613728,1.5203372175139274e+16,2.1065409616462924e+16,810162854872348.4,795549028607910.5,12882544958111.568,20494491511748.06,223739570666391.16,3999208950707140.5
37.44128793246003,1.5335430424824052e+16,2.134523133686208e+16,817200023164882.5,802459259519857.5,13287473550780.43,21139030054006.523,230776301523392.8,4124938824225091.0
38.29011369110923,1.5467590252117336e+16,2.162876990720122e+16,824242604362113.9,809374805697713.1,13703304481038.809,21800941786773.805,238002718556909.0,4254055280199360.5
39.15591596493141,1.5599840741174432e+16,2.1916097417506468e+16,831290016776510.0,816295095946481.0,14130292036002.17,22480632938774.934,245423257872672.25,4386637380761586.0
40.03903428423004,1.5732170698792798e+16,2.2207287253616972e+16,838341663940591.0,823219544557817.5,14568695331497.373,23178517504352.94,253042440417473.0,4522765693072452.0
40.93981496991464,1.58645686560339e+16,2.250241411646068e+16,845396934693359.9,830147551394906.6,15018778364026.37,23895017329851.965,260864872925036.1,4662522305719622.0
41.85861126931294,1.5997022869702902e+16,2.2801554040780404e+16,852455203259140.9,837078501969875.8,15480810061505.64,24630562198203.59,268895248842365.8,4805990844746392.0
42.7957834946992,1.6129521323704566e+16,2.3104784413297984e+16,859515829319845.2,844011767514751.9,15955064332679.629,25385589911555.28,277138349234859.5,4953256489279758.0
43.751699164593184,1.6262051730297848e+16,2.3412183990309376e+16,866578158081830.1,850946705047127.0,16441820115107.373,26160546371789.754,285599043668496.75,5104405986727165.0
44.72673314788505,1.6394601531278662e+16,2.3723832914709656e+16,873641520338909.2,857882657432012.4,16941361421625.127,26955885658783.277,294282291067492.0,5259527667512171.0
