t(s),Total solute volume 1,Total retention volume 1,Total 1 volume 1,Total 2 volume 1,Total 3 volume 1,Total 4 volume 1,Total 5 volume 1,Total 6 volume 1
0.1,1012905215437994.5,1251976985692815.0,109237715628389.53,129834054626431.92,0.0,0.0,0.0,0.0
0.202,1525726909979607.5,1885873751341438.8,164543454163629.0,195567473215824.7,39634280.63676837,84520052.90226479,1433347502.6871905,34356480541.492233
0.30604000000000003,1916373643672261.2,2368778407887020.5,206673118786966.2,245640520108637.28,100558318.81885202,214440559.0637224,3636655897.900839,87173664378.27042
0.41216080000000005,2246808562972052.2,2777275236914268.0,242309183596678.44,287995624438134.6,178617009.1632533,380900726.65127254,6459642951.670959,154846746720.51822
0.5204040160000001,2540256514191326.5,3140069076269882.0,273956354021480.8,325609744047045.44,271966085.1009756,579967653.451885,9835608983.887026,235776467306.43704
0.6308120963200001,2808290891348885.5,3471464043169349.0,302862773635158.44,359966355077099.56,379616431.0055793,809532049.5013791,13728782019.27699,329105177700.7505
0.7434283382464002,3057638745973546.5,3779774434524149.5,329753927641610.3,391927730112666.3,501002705.25618774,1068388323.7493873,18118716193.515408,434342689105.739
0.8582969050113283,3292609666802344.5,4070326724288374.0,355094587694086.9,422046271671836.25,635806101.9827309,1355856623.0097036,22993881738.077026,551212575636.7083
0.9754628431115548,3516156888378299.5,4346771041924706.0,379203248151096.06,450700524969505.6,783867027.6362246,1671596614.5848727,28348506862.815334,679576455299.1819
1.094972099973786,3730406945762076.5,4611735795469757.0,402309247187407.94,478163068989410.2,945136744.0657879,2015504365.0596762,34180828900.006123,819392060843.5527
1.2168715419732616,3936950458337523.0,4867187061488755.0,424584126647266.3,504637789114298.25,1119648313.5404258,2387650380.527561,40492043517.37669,970688047460.6277
1.3412089728127268,4137013636849689.5,5114640555402080.0,446160128382334.3,530281860875589.44,1307498063.5276494,2788240080.214546,47285634384.37108,1133547921940.6763
1.4680331522689813,4331565272844554.0,5355293861979592.0,467141732628506.0,555219463845693.5,1508833213.317419,3217587410.2464523,54566925684.632225,1308099314531.1917
1.597393815314361,4521386560212123.0,5590112728817109.0,487613187975933.4,579550731354222.5,1723843319.7663274,3676096601.6945205,62342772748.626205,1494506562158.62
1.729341691620648,4707118383687952.0,5819889510637474.0,507643611241976.25,603357811921889.8,1952754200.7763076,4164249212.392585,70621342294.49586,1692965439944.1472
1.863928525453061,4889294357630832.0,6045284002078290.0,527290550569269.7,626709104166677.8,2195823528.2374697,4682594728.888285,79411953045.66852,1903699340199.0193
2.001207095962122,5068364527399430.0,6266852730263586.0,546602541522994.1,649662294843167.0,2453337582.4050584,5231743645.15369,88724958352.10071,2126956458414.3691
2.1412312378813647,5244712763728564.0,6485070452513107.0,565620983003753.5,672266588451400.4,2725608836.858534,5812362312.513265,98571658849.7792,2363007699384.126
2.284055862638992,5418669783827426.0,6700346249118388.0,584381541520161.0,694564376279523.2,3012974151.9601736,6425169087.19754,108964237126.76921,2612145110908.0146
2.4297369798917723,5590523069821654.0,6913035781568736.0,602915220852564.4,716592507748390.0,3315793423.8033,7070931449.229196,119915708862.17499,2874680712410.9546
2.578331719489608,5760524541151943.0,7123450774924597.0,621249189490087.1,738383273858596.2,3634448580.8126903,7750463862.67779,131439886538.02263,3150945624980.98
2.7298983538794,5928896571668803.0,7331866454437182.0,639407429549886.2,759965178460893.5,3969342850.4704485,8464626211.957401,143551352920.30164,3441289435608.512
2.884496320956988,6095836767111719.0,7538527450165073.0,657411252008866.2,781363550632838.8,4320900239.448457,9214322693.214388,156265442257.90356,3746079746450.7163
3.0421862473761276,6261521800814901.0,7743652537689461.0,675279710368998.5,802601036339044.4,4689565185.0043,10000501070.93463,169598227675.3445,4065701872582.0073
3.2030299723236504,6426110524547634.0,7947438483003635.0,693029936148808.5,823697997178286.5,5075802345.895609,10824152232.074623,183566513611.20612,4400558660707.616
3.3670905717701234,6589746514802750.0,8150063189706230.0,710677413490270.8,844672836766435.5,5480096508.608479,11686309986.09947,198187832426.93143,4751070407854.459
3.5344323832055258,6752560174619865.0,8351688296911655.0,728236205831890.0,865542270147856.9,5902952590.245522,12588051071.14888,213480444511.3496,5117674863866.004
3.7051210308696363,6914670482007738.0,8552461340422228.0,745719144468974.9,886321547907979.4,6344895723.561516,13530495335.382627,229463341356.0782,5500827305118.86
3.879223451487029,7076186454804264.0,8752517563474189.0,763137986532831.8,907024643938844.8,6806471412.76362,14514806069.231915,246156251190.14847,5901000669592.02
4.0568079205167695,7237208386092342.0,8951981443940829.0,780503548225356.4,927664413794560.1,7288245751.085292,15542190469.38396,263579646848.6929,6318685745493.497
4.237944078927105,7397828892512327.0,9150967990320210.0,797825817875274.6,948252729063829.0,7790805692.991561,16613900219.26813,281754755617.39453,6754391407252.314
4.422702960505647,7558133808892671.0,9349583847813030.0,815114052420428.1,968800592043616.5,8314759375.316256,17731232173.889828,300703570846.5626,7208644893933.707
4.61115701971576,7718202955799426.0,9547928247364734.0,832376860184870.5,989318234123516.9,8860736482.767769,18895529139.280952,320448865169.8314,7681992126121.811
4.803380160110075,7878110801339213.0,9746093824039136.0,849622272251629.4,1009815200615591.5,9429388654.144196,20108180738.763622,341014205195.10046,8174998058096.804
4.9994477633122765,8037927034450877.0,9944167326024208.0,866857804289884.1,1030300424238805.1,10021389926.323095,21370624359.76866,362423967561.6339,8688247062762.298
5.199436718578522,8197717063703164.0,1.0142230231593254e+16,884090510348281.1,1050782289054846.8,10637437213.676771,22684346176.199814,384703356278.32404,9222343347286.365
5.403425452950093,8357542453070627.0,1.034035928820019e+16,901327029851584.0,1071268686325830.1,11278250821.041718,24050882242.352104,407878421275.4465,9777911397833.28
5.611493962009095,8517461304133436.0,1.0538626985382296e+16,918573628819377.8,1091767063504621.5,11944574988.761698,25471819655.22892,431976078116.3967,10355596452103.172
5.823723841249277,8677528592521542.0,1.0737101971135702e+16,935836236150203.4,1112284467360199.1,12637178468.650127,26948797782.7943,457024128827.61053,10956064998677.84
6.040198318074262,8837796465112195.0,1.0935849419808576e+16,953120475673100.9,1132827582072387.5,13356855129.985615,28483509556.271812,483051283814.67236,11580005302405.281
6.261002284435747,8998314503425565.0,1.1134931358240756e+16,970431694553773.5,1153402762993889.0,14104424594.883543,30077702825.088825,510087184840.8019,12228127955252.584
6.486222330124463,9159129957794986.0,1.1334406955805962e+16,987774988548873.8,1174016066666176.0,14880732902.577295,31733181773.47065,538162429050.88696,12901166452223.062
6.715946776726952,9320287956174498.0,1.1534332783131714e+16,1005155224525074.2,1194673277584438.2,15686653202.30726,33451808398.042812,567308594030.1368,13599877792076.25
6.950265712261491,9481831686340246.0,1.1734763043727774e+16,1022577060114539.2,1215379931578795.2,16523086471.341919,35235504107.07122,597558293430.3453,14325048810179.152
7.18927102650672,9643802581418620.0,1.1935749781035618e+16,1040044963700076.1,1236141339488216.2,17390962277.86313,37086251076.70056,628945086599.4387,15077474128796.469
7.433056447036854,9806240443174658.0,1.2137343065751518e+16,1057563227746375.8,1256962603124707.5,18291239539.625454,39006094272.49425,661503681970.3087,15857990689964.48
7.681717575977592,9969183595838250.0,1.2339591163996182e+16,1075135985366070.2,1277848634882987.0,19224907343.764168,40997142930.052025,695269850054.0906,16667456008536.17
7.935351927497144,1.0132669004058568e+16,1.2542540689509542e+16,1092767223046531.1,1298804172886890.5,20192985779.3083,43061572396.913734,730280482553.8835,17506754476828.506
8.194058966047088,1.029673238382689e+16,1.2746236741538194e+16,1110460792612445.1,1319833795207466.2,21196526802.114002,45201625977.050064,766573623645.7988,18376798114982.973
8.45794014536803,1.0461408303120056e+16,1.295072303004404e+16,1128220422079799.0,1340941932763403.0,22236615129.38209,47419616838.4442,804188502329.6401,19278527346495.24
8.72709894827539,1.0626730273407356e+16,1.3156041989647072e+16,1146049725524533.0,1362132881050408.2,23314369164.20781,49717929984.71784,843165565865.7214,20212911799780.51
9.0016409272409,1.079273083301756e+16,1.3362234883534808e+16,1163952212073331.8,1383410810827168.2,24430941950.664913,52099024291.87157,883546514315.9756,21180951136213.14
9.281673745785717,1.0959441623236614e+16,1.356934189841471e+16,1181931294110451.2,1404779777869517.2,25587522159.97972,54565434611.32847,925374336209.4722,22183675905120.035
9.567307220701432,1.1126893457899374e+16,1.377740223145367e+16,1199990294782897.2,1426243731890739.5,26785335108.39884,57119773940.56309,968693345354.1449,23222148426252.176
9.85865336511546,1.129511638714536e+16,1.3986454170033962e+16,1218132454876250.5,1447806524713740.0,28025643807.39977,59764735662.70496,1013549218818.2356,24297463700297.21
10.155826432417769,1.1464139755929602e+16,1.4196535165055406e+16,1236360939124794.2,1469471917770978.5,29309750046.93686,62503095856.59083,1059989036106.4974,25410750348033.008
10.458942961066125,1.1633992257809248e+16,1.4407681898429792e+16,1254678842012205.8,1491243588998822.5,30638995512.45737,65337715678.83267,1108061319557.7097,26563171578759.703
10.768121820287448,1.1804701984467912e+16,1.461993034533743e+16,1273089193112529.2,1513125139185553.5,32014762936.460278,68271543819.55059,1157816075991.4773,27755926188679.51
11.083484256693197,1.1976296471385936e+16,1.4833315831752804e+16,1291594962015554.2,1535120097825406.5,33438477285.41072,71307619033.50302,1209304839633.6975,28990249589929.855
11.405153941827061,1.2148802740021186e+16,1.5047873087689372e+16,1310199062875830.5,1557231928525272.8,34911606982.85973,74449072748.42564,1262580716351.416,30267414871005.668
11.733257020663602,1.2322247336823036e+16,1.5263636296564212e+16,1328904358620170.8,1579464034005531.5,36435665169.65489,77699131752.47098,1317698429229.1174,31588733889339.336
12.067922161076874,1.2496656369369672e+16,1.5480639141040974e+16,1347713664844906.5,1601819760732101.0,38012211002.16452,81061120962.71106,1374714365519.841,32955558396837.938
12.409280604298411,1.2672055539885726e+16,1.5698914845670576e+16,1366629753430645.5,1624302403212738.8,39642850989.473564,84538466276.75002,1433686625005.682,34369281199208.023
12.75746621638438,1.2848470176372656e+16,1.5918496216617136e+16,1385655355899538.8,1646915207987318.5,41329240370.54293,88134697509.56273,1494675069803.7048,35831337349929.1
13.112615540712067,1.30259252615587e+16,1.6139415678726142e+16,1404793166537402.5,1669661377338643.5,43073084532.36175,91853451417.75189,1557741375654.3267,37343205379766.6
13.474867851526309,1.3204445459855206e+16,1.6361705310166606e+16,1424045845300917.5,1692544072747708.2,44876140470.15514,95698474813.48871,1622949084730.733,38906408562747.586
13.844365208556836,1.338405514248762e+16,1.658539687485598e+16,1443416020527791.2,1715566418114957.8,46740218290.745056,99673627770.4849,1690363660008.9607,40522516219548.6
14.221252512727972,1.3564778410951792e+16,1.6810521852855526e+16,1462906291466543.5,1738731502766958.2,48667182760.19794,103782886924.40546,1760052541239.681,42193145059280.83
14.605677562982532,1.3746639118933348e+16,1.7037111468906648e+16,1482519230640341.5,1762042384265967.2,50658954896.929,108030348870.21968,1832085202563.9268,43919960560684.28
14.997791114242183,1.3929660892812814e+16,1.7265196719262438e+16,1502257386058427.8,1785502091038332.2,52717513611.46459,112420233659.05807,1906533211816.329,45704678393776.58
15.397746936527026,1.4113867150869636e+16,1.7494808396953188e+16,1522123283287175.5,1809113624836009.0,54844897394.10585,116956888397.2168,1983470291560.7341,47549065883028.36
15.805701875257567,1.429928112128556e+16,1.7725977115613668e+16,1542119427391716.8,1832879963044266.2,57043206051.76837,121644790950.0349,2062972381904.303,49454943513176.53
16.221815912762718,1.4485925859040828e+16,1.7958733331986522e+16,1562248304758071.2,1856804060847422.2,59314602495.31066,126488553753.44556,2145117705137.6938,51424186478810.46
16.64625223101797,1.4673824261785974e+16,1.8193107367207704e+16,1582512384804923.2,1880888853263306.2,61661314578.70438,131492927736.07729,2229986832250.0337,53458726278903.01
17.079177275638333,1.4862999084766872e+16,1.8429129426968596e+16,1602914121593171.5,1905137257056317.0,64085636991.43045,136662806354.86995,2317662751369.0405,55560552357489.99
17.5207608211511,1.5053472954871814e+16,1.866682962064358e+16,1623455955340868.2,1929552172538018.2,66589933205.53225,142003229747.2432,2408230938177.747,57731713791734.61
17.97117603757412,1.5245268383864422e+16,1.890623797946157e+16,1644140313850352.8,1954136485263286.5,69176637478.78516,147519389002.94632,2501779428360.8354,59974321028647.14
18.430599558325603,1.543840778086098e+16,1.9147384473795944e+16,1664969613853856.8,1978893067629698.5,71848256915.49347,153216630558.79446,2598398892135.1113,62290547671763.56
18.899211549492115,1.563291346410486e+16,1.939029902963929e+16,1685946262283327.8,2003824780386724.8,74607373586.45233,159100460719.58237,2698182710919.824,64682632319122.72
19.37719578048196,1.582880767208661e+16,1.9635011544324692e+16,1707072657469721.8,2028934474061160.5,77456646709.66678,165176550308.57053,2801227056204.2656,67152880453916.99
19.864739696091597,1.602611257405524e+16,1.988155190155049e+16,1728351190276540.8,2054224990304407.2,80398814893.4478,171450739450.98883,2907630970671.399,69703666389223.984
20.36203449001343,1.6224850279960456e+16,2.0129949985760316e+16,1749784245172130.2,2079699163166903.5,83436698443.55894,177929042494.13937,3017496451637.9956,72337435268269.8
20.869275179813698,1.64250428498644e+16,2.038023569592695e+16,1771374201244644.0,2105359820304497.5,86573201736.12318,184617653067.7325,3130928536872.9326,75056705121700.83
21.38666068340997,1.662671230285691e+16,2.0632438958782884e+16,1793123433163547.2,2131209784121221.2,89811315658.04129,191522949288.20456,3248035392857.401,77864068983393.77
21.91439389707817,1.6829880625506504e+16,2.088658974154119e+16,1815034312091011.5,2157251872852526.0,93154120116.72694,198651499110.85147,3368928405551.8286,80762197066353.58
22.452681775019734,1.7034569779876014e+16,2.1142718064141572e+16,1837109206546362.5,2183488901592708.5,96604786620.99612,206010065833.71298,3493722273736.364,83753839000304.08
23.00173541052013,1.7240801711129898e+16,2.140085401105877e+16,1859350483226520.5,2209923683270070.8,100166580935.00403,213605613757.23093,3622535104993.116,86841826132605.69
23.561770118730532,1.7448598354758618e+16,2.166102774270496e+16,1881760507785088.5,2236559029572873.5,103842865807.16269,221445314003.81403,3755488514400.308,90029073894178.11
24.133005521105144,1.765798164344221e+16,2.192326950645641e+16,1904341645572587.2,2263397751829151.5,107637103776.02385,229536550501.53986,3892707726009.8984,93318584232144.17
24.715665631527248,1.7868973513574886e+16,2.2187609647332296e+16,1927096262340091.8,2290442661843004.0,111552860055.15633,237886926136.3185,4034321677182.1514,96713448110958.2
25.309978944157795,1.808159591146976e+16,2.2454078618352356e+16,1950026724908389.8,2317696572689971.5,115593805499.09903,246504269076.9536,4180463125852.521,100216848083814.88
25.91617852304095,1.8295870799262364e+16,2.272270699059654e+16,1973135401804648.5,2345162299473662.5,119763719652.51427,255396639277.64902,4331268760807.459,103832060936186.48
26.53450209350177,1.8511820160528628e+16,2.2993525462990296e+16,1996424663868305.2,2372842660045941.5,124066493884.72589,264572335162.59167,4486879315048.34,107562460403370.7
27.165192135371807,1.872946600563385e+16,2.326656487183574e+16,2019896884827927.2,2400740475692538.0,128506134611.8653,274039900497.38242,4647439682323.83,111411519963982.28
27.808495978079243,1.8948830376826336e+16,2.354185620010908e+16,2043554441850507.0,2428858571785908.5,133086766608.91124,283808131452.1606,4813099036913.258,115382815711361.83
28.464665897640828,1.9169935353088264e+16,2.3819430586541984e+16,2067399716064662.2,2457199778407072.5,137812636413.95197,293886083861.4185,4984010956745.414,119480029304916.36
29.133959215593645,1.9392803054756904e+16,2.40993193345037e+16,2091435093058974.2,2485766930937943.0,142688115827.05646,304283080685.56775,5160333549938.898,123706951003461.16
29.816638399905518,1.961745564792612e+16,2.438155392070104e+16,2115662963356699.5,2514562870625489.5,147717705506.19492,315008719679.4752,5342229584852.157,128067482782663.58
30.51297116790363,1.984391534863923e+16,2.466616600370879e+16,2140085722867924.8,2543590445119203.5,152906038662.69116,326072881273.27484,5529866623733.404,132565641538749.23
31.223230591261704,2.007220442688107e+16,2.495318743234621e+16,2164705773320117.8,2572852508982786.5,158257884858.76138,337485736670.8745,5723417160062.199,137205562380660.95
31.947695203086937,2.0302345210378524e+16,2.5242650253910548e+16,2189525522667995.8,2602351924181308.5,163778153909.72797,349257756171.7071,5923058759676.669,141991502012920.88
32.686649107148675,2.0534360088215876e+16,2.553458672227879e+16,2214547385483424.8,2632091560544622.0,169471899893.5608,361399717721.36163,6128974205782.238,146927842211478.28
33.44038208929165,2.0768271514271364e+16,2.582902930588905e+16,2239773783326009.8,2662074296207852.0,175344325270.44473,373922715696.86194,6341351647939.171,152019093394878.12
34.20918973107749,2.1004102010479676e+16,2.6126010695607564e+16,2265207145094998.0,2692303018029584.5,181400785115.12634,386838169932.4717,6560384755128.74,157269898293117.53
34.993373525699035,2.1241874169924604e+16,2.642556381249168e+16,2290849907362748.0,2722780621988267.5,187646791464.83685,400157834991.9628,6786272872999.018,162685035716611.06
35.793240996213015,2.1481610659763336e+16,2.672772181545121e+16,2316704514690175.0,2753510013557100.0,194088017785.64102,413893809693.45355,7019221185393.057,168269424427718.06
36.60910581613728,2.1723334223984724e+16,2.7032518108814404e+16,2342773419924123.5,2784494108057514.5,200730303560.09207,428058546892.9437,7259440880263.967,174028127117309.78
37.44128793246003,2.1967067685999336e+16,2.7339986349798816e+16,2369059084476772.0,2815735830991191.0,207579658999.12473,442664863532.8123,7507149320082.642,179966354488910.53
38.29011369110923,2.22128339510588e+16,2.7650160455886172e+16,2395563978586535.0,2847238118350208.0,214642269881.14465,457725950961.56714,7762570216844.925,186089469452950.78
39.15591596493141,2.2460656008500656e+16,2.796307461209903e+16,2422290581560129.0,2879003916904717.0,221924502521.29205,473255385531.22095,8025933811786.144,192402991433699.84
40.03903428423004,2.271055693380896e+16,2.827876327817064e+16,2449241381994818.0,2911036184467133.0,229432908873.89227,489267139478.6916,8297477059911.364,198912600791465.84
40.93981496991464,2.2962559890481696e+16,2.8597261195598936e+16,2476418877979819.0,2943337890131458.5,237174231771.0866,505775592097.64954,8577443819450.2705,205624143362642.56
41.85861126931294,2.321668813169007e+16,2.8918603394569292e+16,2503825577275227.5,2975912014485977.5,245155410300.65842,522795541207.19806,8866085046344.844,212543635120181.56
42.7957834946992,2.3472965001711692e+16,2.9242825200726396e+16,2531463997466603.0,3008761549796949.5,253383585326.02884,540342214923.75903,9163658993877.803,219677266957056.25
43.751699164593184,2.3731413937114864e+16,2.9569962241769652e+16,2559336666092679.5,3041889500160456.5,261866105151.36417,558431283742.4457,9470431417547.77,227031409595240.22
