t(s),Total solute volume 1,Total retention volume 1,Total 1 volume 1,Total 2 volume 1,Total 3 volume 1,Total 4 volume 1,Total 5 volume 1,Total 6 volume 1
0.1,1373795654025336.8,3540173632894849.0,759959875137435.1,1406418103732074.5,0.0,0.0,0.0,-1.66771727949885e-108
0.202,2058463767712336.0,5304786916129379.0,1138706456877609.5,2107345416923605.0,42453289.88310184,178827686.05515182,8146461843.526079,262906873008.86182
0.30604000000000003,2582668037010208.5,6656056874460275.0,1428687177581359.2,2643997901424833.5,107593526.61581966,453236774.71656066,20694150582.98732,682503462987.5818
0.41216080000000005,3026528245167808.0,7800412049343624.0,1674222951912394.8,3098398364114708.0,191023361.24363196,804695858.1312076,36775314325.51532,1224717115167.31
0.5204040160000001,3420858355243305.5,8817243230681387.0,1892359533329798.8,3502092535798382.5,290778605.38523,1224929544.4610431,56008266632.859474,1875282335119.6526
0.6308120963200001,3781103430432887.0,9746343673929646.0,2091640863849160.2,3870892258599809.5,405804479.10934615,1709494074.3567498,78188603159.65924,2626817146074.819
0.7434283382464002,4116262498191217.0,1.0610898954218724e+16,2277045049726272.5,4214010260599873.0,535497653.7253652,2255847670.0179343,103199498549.33183,3475154857482.842
0.8582969050113283,4432108201914465.0,1.1425782351714962e+16,2451765417326363.5,4537356267914424.0,679517631.2196751,2862555839.2557817,130975021141.07951,4417947465112.148
0.9754628431115548,4732599597174241.0,1.2201194849921036e+16,2617992047610129.0,4844983351364525.0,837693712.8523493,3528899431.048002,161482087312.14774,5454005091689.326
1.094972099973786,5020589047448952.0,1.294448638786414e+16,2777302818632026.0,5139811609060447.0,1009973449.1706498,4254657458.086687,194710475639.93594,6582937616165.39
1.2168715419732616,5298210903175552.0,1.366115723971459e+16,2930878416067150.0,5424026075465145.0,1196391653.491535,5039976553.735025,230666829245.4764,7804941809281.325
1.3412089728127268,5567110988224988.0,1.435544924655443e+16,3079629281157081.0,5699311657492162.0,1397050628.1980128,5885287668.079487,269370830443.04202,9120666511466.246
1.4680331522689813,5828589867717403.0,1.503071491526712e+16,3224274863984462.5,5966999804496366.0,1612106961.0584695,6791250442.905084,310852647320.6227,10531123064158.102
1.597393815314361,6083696399638726.0,1.5689658430939966e+16,3365395374606923.5,6228164281452963.0,1841762394.6470244,7758714746.153649,355151168461.8157,12037623595747.18
1.729341691620648,6333291124425012.0,1.6334498962336096e+16,3503466849077034.5,6483686063846631.0,2086257338.7435532,8788693340.874304,402312748892.42834,13641737287848.654
1.863928525453061,6578090569524266.0,1.6967084799028508e+16,3638885657958298.5,6734298694327366.0,2345866163.765246,9882342057.37024,452390300429.17725,15345258709932.61
2.001207095962122,6818699042407556.0,1.7588975255765148e+16,3771986093667989.5,6980620830704837.0,2620893733.355326,11040945185.695564,505442621592.6775,17150184524264.572
2.1412312378813647,7055631969379065.0,1.8201500797100544e+16,3903053281102464.0,7223180138980927.0,2911672823.178399,12265904601.573458,561533898817.6134,19058696161833.066
2.284055862638992,7289333370366467.0,1.8805808055355704e+16,4032332844388283.5,7462431183110449.0,3218562188.972575,13558731627.503916,620733333139.995,21073146863539.094
2.4297369798917723,7520189172302131.0,1.940289412827856e+16,4160038271614036.5,7698769054532516.0,3541945120.584777,14921040941.21833,683114860794.379,23196051983028.066
2.578331719489608,7748537509307611.0,1.9993633114467412e+16,4286356612713819.0,7932539916951197.0,3882228366.903948,16354546046.647118,748756945474.0247,25430081774917.434
2.7298983538794,7974676801733242.0,2.0578796927046404e+16,4411452948651946.0,8164049277226352.0,4239841348.945189,17861055958.80368,817742426260.4084,27778056111293.84
2.884496320956988,8198872171533885.0,2.1159071821762644e+16,4535473940297572.0,8393568553093739.0,4615235600.53918,19442472847.517784,890158409520.9012,30242940719455.066
3.0421862473761276,8421360593502178.0,2.173507166873304e+16,4658550677997679.0,8621340346723422.0,5008884391.634311,21100790450.473877,966096196080.1248,32827844638825.625
3.2030299723236504,8642355073371549.0,2.2307348717524444e+16,4780800992831196.0,8847582722039217.0,5421282500.314949,22838093112.75519,1045651237115.2656,35536018669731.73
3.3670905717701234,8862048067907996.0,2.28764024097351e+16,4902331348544509.0,9072492706026504.0,5852946107.68601,24656555343.994034,1128923113780.8433,38370854640854.2
3.5344323832055258,9080614308154598.0,2.3442686654248964e+16,5023238403321426.0,9296249179019648.0,6304412795.697498,26558441809.182636,1216015536713.1672,41335885361980.305
3.7051210308696363,9298213148060140.0,2.400661588003689e+16,5143610309003706.0,9519015279102966.0,6776241632.402534,28546107687.819706,1307036362418.7964,44434785158337.16
3.879223451487029,9514990532243616.0,2.456857010801318e+16,5263527799624377.0,9740940416603168.0,7269013332.482229,30621999350.136913,1402097624196.6736,47671370905184.92
4.0568079205167695,9731080655552084.0,2.5128899229114744e+16,5383065109446351.0,9962161973056342.0,7783330483.423397,32788655309.904045,1501315575736.8,51049603498445.77
4.237944078927105,9946607371262882.0,2.5687926635050148e+16,5502290751955411.0,1.018280674285034e+16,8319817829.7078085,35048707421.62129,1604810745919.3887,54573589710349.63
4.422702960505647,1.0161685392809472e+16,2.6245952317329428e+16,5621268184634227.0,1.0402992163487804e+16,8879122608.910524,37404882296.391624,1712708003635.852,58247584389369.945
4.61115701971576,1.0376421324754278e+16,2.680325552659527e+16,5740056379278515.0,1.0622827371041116e+16,9461914934.81793,39860002915.873505,1825136631687.153,62075992971830.75
4.803380160110075,1.0590914551661778e+16,2.736009706606827e+16,5858710313706382.0,1.0842414110133454e+16,10068888223.639704,42416990427.77806,1942230409001.3083,66063374279001.914
4.9994477633122765,1.0805258008021592e+16,2.791672127873781e+16,5977281397666304.0,1.1061847522144902e+16,10700759660.161842,45078866109.62584,2064127700561.0894,70214443578661.06
5.199436718578522,1.1019538848049572e+16,2.8473357776801308e+16,6095817843359518.0,1.1281216830919196e+16,11358270701.311974,47848753490.11218,2190971554553.5168,74534075894263.61
5.403425452950093,1.123383903077816e+16,2.903022295305117e+16,6214364989101917.0,1.1500605941748222e+16,12042187615.117273,50729880619.57133,2322909806351.0664,79027309548257.27
5.611493962009095,1.1448235833125174e+16,2.9587521306896404e+16,6332965583144691.0,1.1720093966624154e+16,12753302053.452238,53725582482.78838,2460095189015.038,83699349928858.45
5.823723841249277,1.1662802301446942e+16,3.014544661208582e+16,6451660033465826.0,1.1939755686515864e+16,13492431657.319267,56839303548.862366,2602685450078.2627,88555573471907.89
6.040198318074262,1.1877607650321336e+16,3.070418294865963e+16,6570486628369852.0,1.2159661959621516e+16,14260420693.691843,60074600454.03447,2750843474419.9116,93601531851338.78
6.261002284435747,1.2092717615875792e+16,3.1263905617977772e+16,6689481731942869.0,1.2379880083087118e+16,15058140723.192366,63435144814.412834,2904737413091.5205,98842956373397.42
6.486222330124463,1.2308194769809034e+16,3.18247819566645e+16,6808679957763823.0,1.260047411448505e+16,15886491298.079372,66924726166.38386,3064540817993.1104,104285762571111.6
6.715946776726952,1.2524098799297092e+16,3.2386972062842828e+16,6928114323743806.0,1.28215051583672e+16,16746400690.193712,70547255033.23064,3230432782331.4463,109936054996660.47
6.950265712261491,1.2740486757185042e+16,3.2950629446000136e+16,7047816390527574.0,1.3043031622397672e+16,17638826648.66145,74306766117.10945,3402598086821.489,115800132210287.92
7.18927102650672,1.2957413286210058e+16,3.351590161013654e+16,7167816385530142.0,1.3265109446900658e+16,18564757187.28032,78207421616.07333,3581227351616.8525,121884491965261.44
7.433056447036854,1.3174930820458308e+16,3.4082930578447336e+16,7288143314378904.0,1.3487792311100998e+16,19525211401.628883,82253514666.3102,3766517193976.745,128195836589119.28
7.681717575977592,1.3393089766800134e+16,3.4651853366615972e+16,7408825061280752.0,1.371113181886807e+16,20521240316.035366,86449472910.17075,3958670391695.9956,134741078562110.33
7.935351927497144,1.3611938668667974e+16,3.522280241080831e+16,7529888479620947.0,1.3935177666382828e+16,21553927760.631283,90799862190.93578,4157896052341.385,141527346294301.34
8.194058966047088,1.383152435421653e+16,3.579590595562914e+16,7651359473922912.0,1.4159977793816348e+16,22624391278.792004,95309390375.59406,4364409788352.753,148561990103355.66
8.45794014536803,1.4051892070634136e+16,3.637128840659935e+16,7773263074146869.0,1.4385578522830478e+16,23733783065.33614,99982911307.19957,4578433898080.644,155852588395436.62
8.72709894827539,1.4273085606140254e+16,3.694907065111431e+16,7895623503176715.0,1.4612024681472572e+16,24883290935.920143,104825428888.64339,4800197552844.68,163406954052129.53
9.0016409272409,1.4495147401008504e+16,3.752937035133689e+16,8018464238236152.0,1.4839359717834918e+16,26074139328.12061,109842101299.92218,5029936990107.9,171233141026637.8
9.281673745785717,1.4718118648784964e+16,3.81123022120436e+16,8141808066880750.0,1.506762580367646e+16,27307590334.752728,115038245351.20021,5267895712872.656,179339451152887.94
9.567307220701432,1.494203938872624e+16,3.8697978226068344e+16,8265677138133219.0,1.529686392905626e+16,28584944770.02008,120419340974.18903,5514324695413.299,187734441171496.62
9.85865336511546,1.5166948590358442e+16,3.928650789967008e+16,8390093009259873.0,1.5527113988900286e+16,29907543269.139595,125991035854.54364,5769482595469.878,196426929976854.47
10.155826432417769,1.5392884230949522e+16,3.987799845987058e+16,8515076688627046.0,1.5758414862313446e+16,31276767422.1291,131759150208.17722,6033635973035.228,205426006089891.22
10.458942961066125,1.561988336659528e+16,4.047255504557353e+16,8640648675024583.0,1.5990804485353778e+16,32694040942.484367,137729681704.5571,6307059515876.525,214741035361351.38
10.768121820287448,1.5847982197538098e+16,4.107028088406334e+16,8766828993799069.0,1.6224319917902168e+16,34160830871.51575,143908810540.22256,6590036271939.182,224381668910673.22
11.083484256693197,1.6077216128267628e+16,4.167127745430666e+16,8893637230100521.0,1.6458997405190446e+16,35678648819.14988,150302904665.92163,6882857888789.228,234357851305829.53
11.405153941827061,1.630761982289154e+16,4.227564463831802e+16,9021092559512390.0,1.6694872434486634e+16,37249052242.0402,156918525170.91898,7185824860256.79,244679828989727.97
11.733257020663602,1.653922725621012e+16,4.288348086171527e+16,9149213776305322.0,1.6931979787382728e+16,38873645759.86687,163762431828.18405,7499246780450.826,255358158959008.56
12.067922161076874,1.6772071760882806e+16,4.349488322447079e+16,9278019319528788.0,1.7170353588081212e+16,40554082510.739426,170841588804.31232,7823442605321.42,266403717701317.03
12.409280604298411,1.700618607103271e+16,4.410994762275533e+16,9407527297132242.0,1.7410027348034992e+16,42292065546.654076,178163170538.1804,8158740921953.381,277827710397362.12
12.75746621638438,1.7241602362599038e+16,4.472876886268182e+16,9537755508287604.0,1.765103400725807e+16,44089349269.9871,185734567792.4801,8505480225781.015,289641680394288.5
13.112615540712067,1.7478352290715964e+16,4.535144076667228e+16,9668721464066430.0,1.7893405972592034e+16,45947740912.04422,193563393882.41663,8864009205920.44,301857518957129.94
13.474867851526309,1.7716467024366986e+16,4.597805627309783e+16,9800442406610122.0,1.813717515318335e+16,47869102054.715065,201657491086.00754,9234687038822.695,314487475305336.75
13.844365208556836,1.7955977278540324e+16,4.660870752978004e+16,9932935326917846.0,1.8382372993402416e+16,49855350196.31946,210024937240.53687,9617883690456.922,327544166941567.94
14.221252512727972,1.8196913344087412e+16,4.724348598188251e+16,1.0066216981363602e+16,1.862903050341102e+16,51908460362.762634,218674052529.89334,10013980227239.662,341040590280207.7
14.605677562982532,1.8439305115467624e+16,4.788248245467012e+16,1.0200303907044166e+16,1.8877178287565904e+16,54030466765.150024,227613406467.6278,10423369135932.854,354990131583251.25
14.997791114242183,1.8683182116543936e+16,4.852578723157363e+16,1.0335212436048896e+16,1.9126846570827036e+16,56223464505.05001,236851825080.73438,10846454652738.785,369406578211447.94
15.397746936527026,1.8928573524579824e+16,4.917349012794862e+16,1.0470958708734228e+16,1.9378065223324292e+16,58489611328.618454,246398398299.28122,11283653101828.283,384304130198806.06
15.805701875257567,1.917550819257215e+16,4.982568056089032e+16,1.0607558686077994e+16,1.9630863783220804e+16,60831129430.842354,256262487557.17545,11735393243543.17,399697412158808.4
16.221815912762718,1.9424014670043348e+16,5.048244761542774e+16,1.0745028161181216e+16,1.9885271477998776e+16,63250307311.1868,266453733609.47238,12202116632522.367,415601485530892.6
16.64625223101797,1.9674121222404576e+16,5.114388010739484e+16,1.0883382769979494e+16,2.0141317244282452e+16,65749501681.96568,276982064571.80585,12684277986005.857,432031861176009.4
17.079177275638333,1.9925855848991224e+16,5.18100666432496e+16,1.1022638001219924e+16,2.039902974630196e+16,68331139430.794266,287857704187.6465,13182345562579.271,449004512330266.06
17.5207608211511,2.017924629986323e+16,5.2481095677088136e+16,1.1162809205754776e+16,2.0658437393092676e+16,70997719638.51172,299091180329.23505,13696801551627.037,466535887925953.9
17.97117603757412,2.0434320091454824e+16,5.315705556508238e+16,1.1303911605198606e+16,2.0919568354516356e+16,73751815654.0023,310693333738.2231,14228142473769.984,484642926289434.75
18.430599558325603,2.069110452114999e+16,5.383803461754654e+16,1.1445960299991212e+16,2.1182450576182828e+16,76596077227.37227,322675327012.1533,14776879592569.357,503343069225652.4
18.899211549492115,2.0949626680854256e+16,5.452412114882728e+16,1.1588970276905204e+16,2.1447111793344216e+16,79533232702.98718,335048653843.10297,15343539337787.107,522654276499254.06
19.37719578048196,2.1209913469626396e+16,5.521540352518951e+16,1.1732956416033832e+16,2.171357954382649e+16,82566091273.89705,347825148514.9512,15928663740498.135,542595040722554.06
19.864739696091597,2.147199160542986e+16,5.591197021086321e+16,1.187793349729145e+16,2.198188118005975e+16,85697545299.22484,361016995665.89453,16532810880358.748,563184402660832.8
20.36203449001343,2.173588763605578e+16,5.661390981239701e+16,1.2023916206456108e+16,2.2252043880261028e+16,88930572686.12492,374636740322.96735,17156555345341.568,584441966965710.9
20.869275179813698,2.200162794926854e+16,5.732131112146024e+16,1.2170919140781834e+16,2.2524094658820504e+16,92268239337.95839,388697298215.5353,17800488704255.215,606387918347585.1
21.38666068340997,2.226923878221743e+16,5.803426315621802e+16,1.2318956814204972e+16,2.2798060375936776e+16,95713701670.37029,403211966374.8265,18465219992374.062,629043038198403.0
21.91439389707817,2.2538746230157116e+16,5.8752855201399544e+16,1.2468043662168204e+16,2.3073967746544264e+16,99270209196.99039,418194434026.7765,19151376210511.29,652428721676258.5
22.452681775019734,2.2810176254513252e+16,5.9477176847168904e+16,1.2618194046082524e+16,2.335184334857058e+16,102941107186.52048,433658793785.6099,19859602837875.02,676566995263640.2
23.00173541052013,2.3083554690329556e+16,6.0207318026899064e+16,1.2769422257446312e+16,2.3631713630560236e+16,106729839393.01149,449619553155.7453,20590564359056.645,701480534811327.1
23.561770118730532,2.3358907253126852e+16,6.094336905394685e+16,1.2921742521640258e+16,2.391360491869668e+16,110639950861.16837,466091646349.7802,21344944805506.543,727192684080313.0
24.133005521105144,2.363625954520456e+16,6.168542065751421e+16,1.3075169001412772e+16,2.4197543423253464e+16,114675090808.5684,483090446430.491,22123448311860.98,753727473794331.9
24.715665631527248,2.3915637061410824e+16,6.2433564017680984e+16,1.3229715800072128e+16,2.448355524450127e+16,118839015586.71379,500631777784.9435,22926799687491.8,781109641215846.1
25.309978944157795,2.419706519440611e+16,6.318789079968395e+16,1.3385396964398236e+16,2.477166637809665e+16,123135591722.8836,518731928938.98303,23755745003658.56,809364650258687.1
25.91617852304095,2.448056923944334e+16,6.394849318751806e+16,1.354222648728675e+16,2.5061902719975612e+16,127568799044.7868,537407665720.57336,24611052196650.367,838518712150805.4
26.53450209350177,2.476617439868531e+16,6.471546391692317e+16,1.3700218310137546e+16,2.5354290070773492e+16,132142733890.07191,556676244780.5717,25493511687313.85,868598806660794.5
27.165192135371807,2.5053905785078016e+16,6.548889630782498e+16,1.3859386324997246e+16,2.5648854139790148e+16,136861612402.77269,576555427479.7959,26403937017369.844,899632703902307.6
27.808495978079243,2.5343788425798184e+16,6.626888429628636e+16,1.4019744376466514e+16,2.5945620548520064e+16,141729773918.83148,597063494151.3031,27343165502932.484,931648986730588.4
28.464665897640828,2.563584726529108e+16,6.705552246602731e+16,1.4181306263380336e+16,2.624461483376113e+16,146751684442.8677,618219258747.1163,28312058905650.19,964677073745803.0
29.133959215593645,2.5930107167912988e+16,6.784890607956798e+16,1.4344085740269934e+16,2.654586245032103e+16,151931940218.41675,640042083878.6711,29311504121897.32,998747242918040.8
29.816638399905518,2.622659292019226e+16,6.864913110904407e+16,1.4508096518613406e+16,2.6849388773331204e+16,157275271393.89606,662551896260.5764,30342413890454.664,1033890655849198.5
30.51297116790363,2.6525329232721468e+16,6.945629426674298e+16,1.4673352267882548e+16,2.715521910018424e+16,162786545786.60684,685769202567.3551,31405727519123.348,1070139382687294.0
31.223230591261704,2.6826340741691864e+16,7.02704930354064e+16,1.483986661639165e+16,2.746337865210475e+16,168470772747.12128,709715105713.0889,32502411630727.43,1107526427708967.9
31.947695203086937,2.712965201008055e+16,7.109182569834367e+16,1.5007653151954254e+16,2.7773892575364836e+16,174333107126.4446,734411321564.05,33633460928967.305,1146085755586354.2
32.686649107148675,2.7435287528500476e+16,7.19203913693964e+16,1.5176725422353172e+16,2.8086785942153996e+16,180378853348.39856,759880196094.5793,34799898984595.746,1185852318354733.5
33.44038208929165,2.774327171572054e+16,7.275629002279357e+16,1.5347096935628552e+16,2.8402083751111932e+16,186613469589.69833,786144722996.6747,36002779042396.266,1226862083097688.0
34.20918973107749,2.8053628918865948e+16,7.359962252293765e+16,1.5518781160188288e+16,2.8719810927533212e+16,193042572070.25922,813228561753.947,37243184849452.58,1269152060366854.8
34.993373525699035,2.8366383413303336e+16,7.445049065415306e+16,1.5691791524744898e+16,2.903999232325031e+16,199671939456.29523,841156056190.7319,38522231505206.9,1312760333353573.8
35.793240996213015,2.8681559402219964e+16,7.530899715043928e+16,1.586614141808234e+16,2.9362652716201908e+16,206507517378.83514,869952253507.4529,39841066333810.54,1357726087830212.8
36.60910581613728,2.8999181015900176e+16,7.61752457252548e+16,1.6041844188656066e+16,2.968781680969338e+16,213555423070.30096,899642923813.3524,41200869779285.81,1404089642879036.5
37.44128793246003,2.931927231070679e+16,7.704934110137048e+16,1.6218913144029494e+16,3.001550923135285e+16,220821950121.87347,930254580168.0493,42602856324017.02,1451892482426983.5
38.29011369110923,2.964185726777107e+16,7.793138904081947e+16,1.6397361550149116e+16,3.034575453179068e+16,228313573364.36966,961814499143.4655,44048275431105.32,1501177287604971.2
39.15591596493141,2.9966959791395212e+16,7.882149637497768e+16,1.6577202630461042e+16,3.0678577182963864e+16,236036953875.4447,994350741917.8861,45538412511127.86,1551987969950634.8
40.03903428423004,3.029460370717241e+16,7.971977103480237e+16,1.6758449564870848e+16,3.101400157625153e+16,243998944115.93286,1027892175914.1174,47074589913845.49,1604369705473674.2
