t(s),Total solute volume 1,Total retention volume 1,Total 1 volume 1,Total 2 volume 1,Total 3 volume 1,Total 4 volume 1,Total 5 volume 1,Total 6 volume 1
0.1,803801399340899.0,888695292650996.4,42833262785020.44,42060630525076.21,0.0,0.0,0.0,0.0
0.202,1210351185141786.0,1339863777939220.8,64497636439775.336,63334219372538.805,5088618673.823637,8089509579.957274,88309057180.69514,1579249799686.8289
0.30604000000000003,1519252988791255.2,1683971125293614.0,80958508690014.94,79498168204757.8,12901969742.525988,20510672922.985096,223904787883.99896,4004142177036.438
0.41216080000000005,1779943377573879.2,1975496949244406.5,94850273435462.34,93139351431316.84,22900485616.21416,36405768753.14799,397423839138.5998,7107216710240.326
0.5204040160000001,2010923332658390.2,2234816367123123.5,107158817727140.52,105225872545694.1,34842393808.2001,55390483025.61792,604670863699.6039,10813440451366.572
0.6308120963200001,2221410702324915.2,2472077277643568.5,118375345634802.25,116240075213862.61,48595994267.51355,77255485095.6941,843360726641.2476,15081942263987.709
0.7434283382464002,2416762739720676.5,2693177231906000.0,128785336422932.62,126462289187353.16,64084041241.81306,101878011619.5145,1112153307177.9995,19888751215000.992
0.8582969050113283,2600410649401505.0,2901894744827555.5,138571633374408.31,136072059597472.5,81260875386.28438,129185513655.16325,1410256651585.2644,25219699413537.504
0.9754628431115548,2774704702232860.5,3100819941888677.5,147859478582385.53,145192369403723.03,100101144808.26944,159137726704.89505,1737231240723.1787,31066921557474.824
1.094972099973786,2941336113830569.0,3291818928338320.5,156738994162914.66,153911715087335.06,120593549608.64343,191716726601.2584,2092881435170.2385,37426913546119.125
1.2168715419732616,3101568691541849.0,3476288657614266.5,165277526343961.66,162296228075970.6,142737075295.13028,226920941943.85022,2477190112086.7607,44299363523166.016
1.3412089728127268,3256375484888000.0,3655307218197568.5,173526927344162.62,170396825270979.34,166538582794.87524,264761323115.78674,2890276844396.9155,51686403944126.29
1.4680331522689813,3406524045942649.5,3829727565257991.5,181528098759031.75,178253670479394.22,192011193037.18643,305258774425.2943,3332369868882.99,59592110240581.336
1.597393815314361,3552632080469978.0,4000238678480743.5,189313957119161.5,185899086479004.0,219173163870.64926,348442368910.68726,3803786598228.5356,68022152281592.12
1.729341691620648,3695205145816524.5,4167406975941983.0,196911442749261.28,193359527641316.72,248047086198.42728,394348070607.9087,4304919672779.945,76983544905296.44
1.863928525453061,3834662993544618.5,4331705244402701.0,204342923524044.9,200656958366312.28,278659294974.71985,443017798385.828,4836226741035.903,86484465133330.95
2.001207095962122,3971358470125542.0,4493533390970432.5,211627202055271.4,207809842101711.3,311039429437.74304,494498727027.1051,5398222830032.037,96534115701413.23
2.1412312378813647,4105591390110659.5,4653233671422890.0,218780254970364.4,214833867286380.47,345220099816.28217,548842757575.3876,5991474563525.881,107142621634578.73
2.284055862638992,4237618922639274.5,4811102089303021.0,225815786392439.66,221742490846619.44,381236631784.2972,606106111284.7809,6616595729491.038,118320950952112.64
2.4297369798917723,4367663503895576.5,4967397078802177.0,232745649582199.88,228547352232419.53,419126868853.99646,666349015681.1141,7274243853155.157,130080853354296.98
2.578331719489608,4495918949288113.0,5122346222262430.0,239580172647050.66,235258593253667.53,458931017878.5039,729635459688.3367,7965117617565.723,142434822978457.72
2.7298983538794,4622555290571859.0,5276151516649201.0,246328416299145.62,241885111179509.75,500691532689.32886,796033006758.7656,8689954450080.889,155396019609165.8
2.884496320956988,4747722532567183.0,5428993559163994.0,252998374051312.53,248434755337117.4,544453015800.67926,865612641982.0421,9449529413288.172,168978302137304.97
3.0421862473761276,4871553750768090.0,5581034906292037.0,259597137279125.5,254914489186877.56,590262149566.4718,938448660781.1927,10244653617391.48,183196164630213.16
3.2030299723236504,4994167563781793.0,5732422799572248.0,266131026974291.0,261330519701596.25,638167639997.2277,1014618580363.6157,11076173346842.957,198064729547356.84
3.3670905717701234,5115670164614595.0,5883291397681730.0,272605701988553.38,267688403657888.8,688220175106.0173,1094203073756.2201,11944969340430.293,213599734831406.47
3.5344323832055258,5236156997141759.0,6033763619938458.0,279026248370030.5,273993135361052.2,740472394477.579,1177285921693.411,12851956266263.283,229817524483175.94
3.7051210308696363,5355714150417064.0,6183952680913021.0,285397253663694.0,280249219605304.88,794978868129.9565,1263953979289.3552,13798082358162.07,246735042021384.75
3.879223451487029,5474419526550852.0,6333963377260397.0,291722869145680.1,286460732785505.0,851796083141.1069,1354297155066.8076,14784329186945.04,264369826353200.62
4.0568079205167695,5592343825347877.0,6483893174121035.0,298006862293032.6,292631374420440.1,910982436820.5496,1448408400403.72,15811711545453.164,282740009677007.44
4.237944078927105,5709551379502038.0,6633833128134135.0,304252661289863.94,298764510856176.75,972598235443.5144,1546383707836.4648,16881277430267.809,301864317112513.8
4.422702960505647,5826100867029935.0,6783868676299042.0,310463392991774.8,304863212545674.2,1036705697749.9021,1648322116952.0874,17994108106284.895,321762067810669.6
4.61115701971576,5942045922183616.0,6934080313953276.0,316641915480397.56,310930286016104.06,1103368962555.5176,1754325726833.0344,19151318242831.24,342453177340949.56
4.803380160110075,6057435661880781.0,7084544180527603.0,322790846116000.25,316968301415440.9,1172654099938.1416,1864499714200.612,20354056112003.133,363958161189230.4
4.9994477633122765,6172315141419940.0,7235332568152097.0,328912585821801.44,322979616358725.3,1244629125552.786,1978952356549.5132,21603503841501.945,386298139228025.94
5.199436718578522,6286725750679093.0,7386514365372496.0,335009340196752.7,328966396660020.8,1319364017704.265,2097795059682.9312,22900877715522.965,409494841043721.44
5.403425452950093,6400705559966275.0,7538155446009702.0,341083137945347.7,334930634429778.0,1396930736865.0046,2221142389152.976,24247428518289.156,433570612023995.25
5.611493962009095,6514289623071601.0,7690319011423022.0,347135847026769.94,340874163932683.3,1477403247374.5977,2349112105188.243,25644441915667.68,458548420123725.94
5.823723841249277,6627510243773513.0,7843065893016115.0,353169188856575.8,346798675533167.4,1560857541097.3845,2481825200753.851,27093238870996.504,484451863240010.5
6.040198318074262,6740397211004897.0,7996454820678457.0,359184750838312.9,352705728000981.8,1647371662847.2952,2619405942441.384,28595176091819.977,511305177137144.8
6.261002284435747,6852978007035131.0,8150542661923934.0,365183997457197.56,358596759404762.06,1737025737416.1965,2761981913929.4175,30151646504701.707,539133243870810.5
6.486222330124463,6965277992329976.0,8305384635729480.0,371168280131005.94,364473096785230.6,1829901998064.5994,2909684061791.1885,31764079755677.426,567961600667738.8
6.715946776726952,7077320570182714.0,8461034504452576.0,377138845982983.1,370335964769858.8,1926084816352.4722,3062646743455.9175,33433942734236.965,597816449222976.1
6.950265712261491,7189127333739505.0,8617544746693581.0,383096845676599.94,376186493266294.56,2025660733203.8147,3221007777155.822,35162740119000.035,628724665381812.0
7.18927102650672,7300718197653585.0,8774966713542022.0,389043340431175.94,382025724351442.94,2128718491111.788,3384908493711.7476,36952014943483.266,660713809177525.6
7.433056447036854,7412111516278337.0,8933350770292418.0,394979308320208.94,387854618456182.44,2235349067402.7964,3554493790028.4624,38803349180551.95,693812135199705.5
7.681717575977592,7523324190039100.0,9092746425418096.0,400905649939741.6,393674059931485.06,2345645708487.208,3729912184186.2495,40718364344317.16,728048603270760.9
7.935351927497144,7634371761395101.0,9253202448343334.0,406823193522024.44,399484862069837.6,2459703965032.848,3911315872028.0396,42698722108382.2,763452889410938.5
8.194058966047088,7745268501612307.0,9414766977344412.0,412732699559497.3,405287771645816.94,2577621728004.322,4098860785152.8916,44746124939463.07,800055397074174.4
8.45794014536803,7856027489404871.0,9577487618731914.0,418634864995463.25,411083473031171.94,2699499265517.1353,4292706650236.0576,46862316745516.08,837887268639134.6
8.72709894827539,7966660682365651.0,9741411538317708.0,424530327030500.56,416872591932572.4,2825439260461.0776,4493017049604.359,49049083537591.93,876980397141322.6
9.0016409272409,8077178981988367.0,9906585546039964.0,430419666587394.94,422655698794042.56,2955546848851.5796,4699959483002.779,51308254104721.16,917367438233587.2
9.281673745785717,8187592292984241.0,1.0073056174511226e+16,436303411472019.8,428433311900823.8,3089929658871.8823,4913705430494.351,53641700701197.04,959081822363574.4
9.567307220701432,8297909577509154.0,1.0240869752159542e+16,442182039263014.2,434205900216931.5,3228697850572.139,5134430416441.288,56051339745690.82,1002157767157733.4
9.85865336511546,8408138904843735.0,1.0410072471552516e+16,448055979959155.9,439973885984765.94,3371964156194.883,5362314074519.877,58539132531679.42,1046630290002469.0
10.155826432417769,8518287497004777.0,1.0580710453423918e+16,453925618409916.5,445737647111837.6,3519843921098.5806,5597540213726.131,61107085948721.625,1092535220813830.1
10.458942961066125,8628361770710942.0,1.0752829806862022e+16,459791296551747.94,451497519366702.75,3672455145253.8496,5840296885333.023,63757253214152.03,1139909214987887.2
10.768121820287448,8738367376077818.0,1.092647668606715e+16,465653315470075.44,457253798403769.5,3829918525288.649,6090776450763.748,66491734614808.195,1188789766524650.2
11.083484256693197,8848309232375396.0,1.11016973440393e+16,471511937304758.44,463006741634384.75,3992357497061.0415,6349175650348.397,69312678258435.34,1239215221318935.2
11.405153941827061,8958191561145052.0,1.1278538183517942e+16,477367387014834.9,468756569959749.25,4159898278739.6143,6615695672934.392,72222280834448.4,1291224790612199.8
11.733257020663602,9068017916940466.0,1.1457045805460916e+16,483219854016667.1,474503469379506.25,4332669914373.5527,6890542226323.855,75222788383755.31,1344858564599821.8
12.067922161076874,9177791215929878.0,1.1637267055319102e+16,489069493708092.3,480247592488411.0,4510804317935.561,7173925608513.377,78316497077381.9,1400157526188861.5
12.409280604298411,9287513762571732.0,1.1819249067336648e+16,494916428889935.06,485989059872188.56,4694436317822.627,7466060779713.934,81505754003650.47,1457163564901603.5
12.75746621638438,9397187274554168.0,1.2003039307083284e+16,500760751094989.2,491727961412556.8,4883703701800.527,7767167435131.12,84792957963700.95,1515919490920924.8
13.112615540712067,9506812906170482.0,1.2188685612404028e+16,506602521833661.5,497464357510389.94,5078747262379.693,8077470078487.872,88180560275162.02,1576469049273482.2
13.474867851526309,9616391270284676.0,1.237623623295459e+16,512441773764472.3,503198280235113.4,5279710842610.883,8397198096273.778,91671065583796.84,1638856934147645.5
13.844365208556836,9725922459026886.0,1.2565739868472272e+16,518278511796885.56,508929734407633.7,5486741382290.639,8726585832707.34,95267032682980.22,1703128803342888.8
14.221252512727972,9835406063344576.0,1.2757245705920282e+16,524112714133162.06,514658698623403.7,5699988964567.502,9065872665399.15,98971075340876.83,1769331292848301.8
14.605677562982532,9944841191524188.0,1.2950803455628766e+16,529944333255346.9,520385126221605.75,5919606862941.028,9415303081706.23,102785863135212.3,1837512031547753.8
14.997791114242183,1.0054226486786672e+16,1.3146463386545384e+16,535773296862899.06,526108946205867.7,6145751588647.166,9775126755769.508,106714122295556.17,1907719656049975.0
15.397746936527026,1.0163560144050624e+16,1.3344276360697646e+16,541599508765984.56,531830064121441.94,6378582938424.172,10145598626228.078,110758636553049.7,1980003825641909.5
15.805701875257567,1.027283992594903e+16,1.3544293866960414e+16,547422849738970.3,537548362893306.06,6618264042654.874,10526978974606.643,114922247997534.83,2054415237364292.5
16.221815912762718,1.0382063195136514e+16,1.3746568053637758e+16,553243179241716.9,543263704515725.0,6864961424954.03,10919533520863.242,119207857922654.3,2131005621875343.5
16.64625223101797,1.0491226861010674e+16,1.3951151762865462e+16,559060332581711.3,548975927268298.9,7118845006928.651,11323533437398.73,123618427774799.05,2209827835785633.2
17.079177275638333,1.0600327496285498e+16,1.4158098560935802e+16,564874127124162.8,554684851809941.9,7380088223399.557,11739255527706.297,128156979917995.83,2290935762047106.0
17.5207608211511,1.0709361282256524e+16,1.4367462770711292e+16,570684359376556.1,560390278318763.1,7648868028183.465,12166982242141.303,132826598595857.16,2374384401893251.5
17.97117603757412,1.0818324039307222e+16,1.4579299503053648e+16,576490806613953.2,566091988087373.0,7925364955024.384,12607001775965.375,137630430807364.25,2460229871506715.0
18.430599558325603,1.0927211239853394e+16,1.4793664687974506e+16,582293227568792.0,571789744200222.8,8209763167965.141,13059608151791.387,142571687208682.88,2548529417823652.0
18.899211549492115,1.1036018020958744e+16,1.5010615105555722e+16,588091363103152.6,577483292193757.9,8502250512096.983,13525101302727.24,147653643022684.1,2639341434462547.5
19.37719578048196,1.114473919666206e+16,1.5230208416685412e+16,593884936865630.0,583172360701439.8,8803018564692.004,14003787156229.803,152879638956292.38,2732725477779081.0
19.864739696091597,1.125336927005077e+16,1.5452503193651458e+16,599673655934743.5,588856662085547.4,9112262686724.1,14495977718681.906,158253082125805.28,2828742283049185.0
20.36203449001343,1.13619024451153e+16,1.5677558950632038e+16,605457211450613.9,594535893057453.4,9430182074785.686,15001991160707.9,163777446990368.25,2927453780782825.5
20.869275179813698,1.1470332638411976e+16,1.5905436174117976e+16,611235279236473.1,600209735287936.0,9756979813408.162,15522151903244.973,169456276293770.34,3028923113171176.5
21.38666068340997,1.1578653490562266e+16,1.6136196353299946e+16,617007520411427.6,605877856008877.4,10092862927794.893,16056790704388.262,175293182014795.72,3133214650670409.0
21.91439389707817,1.1686858377610278e+16,1.6369902010449408e+16,622773581995699.8,611539908607603.0,10438042436977.316,16606244747031.56,181291846326334.1,3240394008725511.5
22.452681775019734,1.1794940422260956e+16,1.6606616731321338e+16,628533097509471.1,617195533214902.8,10792733407404.27,17170857727323.668,187456022563509.88,3350528064637763.0
23.00173541052013,1.1902892505015226e+16,1.6846405195601088e+16,634285687566274.1,622844357287732.0,11157155006976.543,17750979943965.293,193789536201073.97,3463684974579834.0
23.561770118730532,1.2010707275218796e+16,1.7089333207418864e+16,640030960461755.0,628485996187348.0,11531530559538.527,18346968388369.89,200296285840341.62,3579934190762711.5
24.133005521105144,1.2118377162037468e+16,1.7335467725949684e+16,645768512758531.4,634120053753629.2,11916087599840.086,18959186835714.293,206980244205942.22,3699346478758586.0
24.715665631527248,1.222589438536962e+16,1.7584876896116346e+16,651497929867704.6,639746122876085.8,12311057928980.832,19588005936904.883,213845459152687.06,3821993934984363.5
25.309978944157795,1.233325096670505e+16,1.78376300794094e+16,657218786627503.8,645363786062065.2,12716677670351.184,20233803311486.906,220896054682838.5,3947950004350112.5
25.91617852304095,1.2440438739936274e+16,1.809379788483705e+16,662930647879406.0,650972616002494.6,13133187326082.498,20896963641522.465,228136231974087.47,4077289498077169.0
26.53450209350177,1.25474493621277e+16,1.8353452200014416e+16,668633069042008.5,656572176135384.8,13560831834020.188,21577878766466.215,235570270418535.9,4210088611690308.0
27.165192135371807,1.2654274324244804e+16,1.861666622240071e+16,674325596682765.6,662162021207264.9,13999860625232.537,22276947779063.695,243202528672987.53,4346424943188599.0
27.808495978079243,1.2760904961845042e+16,1.8883514490689684e+16,680007769087699.6,667741697832608.0,14450527682067.646,22994577122300.62,251037445720831.75,4486377511399116.0
28.464665897640828,1.2867332465729896e+16,1.9154072916358132e+16,685679116829008.6,673310745051217.5,14913091596770.844,23731180687427.082,259079541945819.2,4630026774517986.0
29.133959215593645,1.2973547892555648e+16,1.942841881537379e+16,691339163330525.0,678868694883459.0,15387815630673.33,24487179913083.023,267333420217992.47,4777454648842410.0
29.816638399905518,1.30795421754003e+16,1.9706630940063588e+16,696987425430793.8,684415072883205.8,15874967773962.498,25263003885547.562,275803766992047.84,4928744527697700.0
30.51297116790363,1.3185306134281604e+16,1.9988789511140452e+16,702623413943556.4,689949398688201.0,16374820806043.639,26059089440134.918,284495353418366.0,5083981300562561.0
31.223230591261704,1.3290830486620646e+16,2.0274976249886548e+16,708246634215357.8,695471186567609.1,16887652356500.498,26875881263757.77,293413036466949.6,5243251372395747.0
31.947695203086937,1.3396105857645018e+16,2.056527441048812e+16,713856586679892.1,700979945966363.2,17413744966662.172,27713831998676.6,302561760064488.2,5406642683167024.0
32.686649107148675,1.3501122790723844e+16,2.0859768812516896e+16,719452767408750.5,706475182045973.0,17953386151782.008,28573402347453.277,311946556244732.0,5574244727594378.0
33.44038208929165,1.3605871757627288e+16,2.115854587355223e+16,725034668658140.4,711956396221386.2,18506868463832.484,29455061179123.55,321572546312367.1,5746148575090098.0
34.20918973107749,1.3710343168702432e+16,2.1461693641935852e+16,730601779411118.0,717423086693453.0,19074489554920.215,30359285636603.39,331444942020545.5,5922446889916741.0
34.993373525699035,1.3814527382957364e+16,2.176930182965251e+16,736153585914988.6,722874748976599.0,19656552241321.598,31286561245340.81,341569046762204.5,6103233951554678.0
35.793240996213015,1.391841471804529e+16,2.208146184532861e+16,741689572213303.0,728310876421264.5,20253364568141.73,32237382023224.32,351950256775322.6,6288605675282046.0
36.60910581613728,1.402199546014064e+16,2.2398266827339796e+16,747209220672172.5,733730960730697.6,20865239874595.223,33212250591758.402,362594062362202.5,6478659632967779.0
37.44128793246003,1.4125259873699602e+16,2.2719811677021296e+16,752712012500374.0,739134492471692.0,21492496859908.258,34211678288513.594,373506049122905.8,6673495074078327.0
38.29011369110923,1.4228198211098322e+16,2.304619309197208e+16,758197428262959.1,744520961578927.1,22135459649841.6,35236185280861.38,384691899202926.94,6873212946898231.0
39.15591596493141,1.4330800722142044e+16,2.3377509599447664e+16,763664948387978.0,749889857852551.5,22794457863831.66,36286300681000.67,396157392555213.9,7077915919965054.0
40.03903428423004,1.4433057663440056e+16,2.3713861589835544e+16,769114053666064.2,755240671448751.8,23469826682749.184,37362562662285.98,407908408216648.8,7287708403718931.0
40.93981496991464,1.4534959307642188e+16,2.405535135020846e+16,774544225742614.5,760572893363066.4,24161906917273.62,38465518576867.1,419950925599087.4,7502696572367356.0
41.85861126931294,1.4636495952532976e+16,2.4402083097954e+16,779954947602421.0,765886015906263.2,24871045076884.203,39595725074652.06,432291025795116.06,7722988385965714.0
42.7957834946992,1.4737657929982026e+16,2.4754163014478508e+16,785345704046609.2,771179533172682.1,25597593439467.17,40753748223606.33,444934892898683.6,7948693612715459.0
43.751699164593184,1.4838435614749374e+16,2.5111699278986856e+16,790715982161870.2,776452941501002.8,26341910121543.895,41940163631409.07,457888815340801.94,8179923851480872.0
44.72673314788505,1.4938819433146464e+16,2.5474802102341596e+16,796065271781979.4,781705739927431.1,27104359149122.652,43155556568482.61,471159187240565.8,8416792554527550.0
