t(s),Total solute volume 1,Total retention volume 1,Total 1 volume 1,Total 2 volume 1,Total 3 volume 1,Total 4 volume 1,Total 5 volume 1,Total 6 volume 1
0.1,1117071271046687.6,1512117690109863.2,171218609237430.47,223827809825744.56,0.0,0.0,0.0,0.0
0.202,1640830455188525.8,2317904571459810.5,251497570297034.4,328773559596813.2,64587666771.816284,159459734935.2121,3367710318498.3896,93211228657232.14
0.30604000000000003,2011499938561955.0,2962633959917243.5,308311773528539.9,403044687282379.1,159936281377.8335,394867738899.9429,8339666144644.349,230883090379444.56
0.41216080000000005,2303203061395513.5,3533716737753988.0,353022442295045.5,461493307395787.06,277444104530.1117,684988355960.1217,14467254799886.855,400568239407268.3
0.5204040160000001,2544587598292759.5,4063461817795961.0,390020551789441.1,509859581239138.75,412798799943.57666,1019175847869.8102,21525618870503.54,596036492956304.0
0.6308120963200001,2750334794136353.5,4567750019516665.0,421556363414223.25,551085193164892.7,563338685386.6058,1390859642436.8677,29375980022320.652,813443490451059.4
0.7434283382464002,2929198405542417.0,5055703668778209.0,448971605389575.5,586924135335137.2,727245414592.3623,1795551203216.8035,37923536102577.75,1050163189790701.5
0.8582969050113283,3086915367670049.5,5533112553689102.0,473145603943524.5,618525918716065.4,903201428192.39,2229998341973.7275,47099598232438.945,1304292865356857.2
0.9754628431115548,3227496056980850.0,6003918980715557.0,494693047774074.3,646694103322595.4,1090215645442.9417,2691754888437.9365,56852501514299.57,1574401300589861.2
1.094972099973786,3353877989781193.0,6470953141875608.0,514064183407973.2,672017279942722.8,1287523790873.964,3178934619704.4214,67142407700542.78,1859384822632612.0
1.2168715419732616,3468290164326276.0,6936333580298018.0,531600659577552.94,694942073446304.9,1494526571407.495,3690058634911.037,77938081582949.89,2158378016158616.8
1.3412089728127268,3572471234774560.0,7401701469038741.0,547568967738228.44,715816858348731.2,1710748968479.6936,4223954858445.866,89214768407884.03,2470694935942417.0
1.4680331522689813,3667807679665437.0,7868365566343308.0,562181619781502.1,734919443659345.4,1935812181418.1523,4779688776347.859,100952730972591.84,2795788591306665.5
1.597393815314361,3755425321060856.0,8337396041664389.0,575611175591360.1,752475410591994.0,2169413583550.6108,5356513954336.666,113136204529343.48,3133222002352947.0
1.729341691620648,3836252215535070.0,8809687505013296.0,587999882633217.5,768670714046473.2,2411311983117.9365,5953835652179.953,125752628295852.31,3482646916867386.5
1.863928525453061,3911063217684361.5,9286002688005370.0,599466506406365.5,783660611808729.8,2661316525411.874,6571183427390.955,138792066827590.61,3843787785325520.5
2.001207095962122,3980512386292916.5,9767003530267728.0,610111297484862.8,797576157781419.6,2919278170293.439,7208190096933.882,152246765675960.53,4216429454765336.5
2.1412312378813647,4045157078344126.5,1.0253273815469852e+16,620019684516582.2,810529029706225.9,3185083037772.847,7864575310736.273,166110804451066.38,4600407560103330.0
2.284055862638992,4105476209816853.5,1.0745335987344574e+16,629265073138750.1,822615188083589.2,3458647138044.4736,8540132543103.742,180379822072902.2,4995600914551329.0
2.4297369798917723,4161884329028784.0,1.1243663864780776e+16,637911003063503.9,833917696051589.2,3739912146755.21,9234718664586.479,195050796523404.72,5401925409302125.0
2.578331719489608,4214742623560770.5,1.1748692408657458e+16,646012835159388.5,844508924845777.0,4028841982228.07,9948245493708.715,210121866414531.66,5819329071201047.0
2.7298983538794,4264367641849342.0,1.2260825330991856e+16,653619088249642.0,854452301346583.0,4325420006758.1113,10680672889417.08,225592185097389.0,6247788021552725.0
2.884496320956988,4311038284721282.0,1.2780441099653246e+16,660772510736586.1,863803708974601.9,4629646719677.61,11432003057630.113,241461800414033.38,6687303145029435.0
3.0421862473761276,4355001468763569.5,1.3307897732861988e+16,667510948652189.9,872612622461289.9,4941537842289.651,12202275825263.4,257731554883089.47,7137897324434299.0
3.2030299723236504,4396476757138929.5,1.3843536668977524e+16,673868055444275.8,880923035726465.2,5261122718212.924,12991564692981.889,274403002332715.34,7599613130923959.0
3.3670905717701234,4435660178470275.5,1.438768592141145e+16,679873877314381.0,888774227069037.1,5588442969911.248,13799973520468.418,291478337892850.06,8072510884174519.0
3.5344323832055258,4472727400641853.0,1.4940662674969252e+16,685555339680725.2,896201395102216.6,5923551365026.067,14627633729708.701,308960338928469.5,8556667015521248.0
3.7051210308696363,4507836387223540.0,1.5502775441486092e+16,690936654340487.6,903236191021848.8,6266510855829.842,15474701935738.031,326852315001268.9,9052172681107360.0
3.879223451487029,4541129635346859.0,1.6074325864640252e+16,696039662479273.4,909907167010111.5,6617393762527.187,16341357932586.666,345158065333555.56,9559132582775318.0
4.0568079205167695,4572736072288752.0,1.6655610243205322e+16,700884125369155.9,916240156254415.9,6976281076851.733,17227802976283.777,363881842546384.6,1.0077663962693484e+16
4.237944078927105,4602772671719060.0,1.7246920826624878e+16,705487972098315.9,922258596795284.6,7343261866865.841,18134258317789.508,383028321676541.3,1.0607895744150996e+16
4.422702960505647,4631345838121003.0,1.784854692520435e+16,709867511767466.9,927983808922971.6,7718432767378.9,19060963947385.473,402602573659857.56,1.1149967796018268e+16
4.61115701971576,4658552598295851.0,1.84607758683954e+16,714037616117223.5,933435233919519.9,8101897543181.538,20008177518921.86,422610042613413.06,1.1704030302387282e+16
4.803380160110075,4684481631395332.0,1.908389383787223e+16,718011877405871.1,938630640446584.0,8493766714516.629,20976173427808.54,443056526365126.44,1.227024322211697e+16
4.9994477633122765,4709214163065385.0,1.9718186596849908e+16,721802745458844.5,943586303705200.6,8894157235996.879,21965242021053.51,463948159772483.6,1.284877582559095e+16
5.199436718578522,4732824744650398.0,2.0363940132995684e+16,725421647100928.2,948317161565124.8,9303192221628.23,22975688921232.242,485291400447759.7,1.343980629808866e+16
5.403425452950093,4755381934715427.0,2.1021441229056988e+16,728879090616274.6,952836951121583.5,9721000709779.71,24007834449184.668,507093016568683.8,1.4043521400876012e+16
5.611493962009095,4776948897182147.0,2.169097797277311e+16,732184757427426.6,957158328543897.4,10147717462908.205,25062013132629.773,529360076503945.2,1.466011618252014e+16
5.823723841249277,4797583927983643.0,2.237284021559981e+16,735347582818103.6,961292974601436.0,10583482797644.959,26138573289857.465,552099940024607.25,1.528979373408455e+16
6.040198318074262,4817340920201235.0,2.3067319988134544e+16,738375827226842.9,965251687863172.6,11028442441511.146,27237876679286.242,575320250906902.5,1.593276498281561e+16
6.261002284435747,4836269776060410.0,2.377471187881149e+16,741277139395502.4,969044467249405.6,11482747413079.896,28360298207036.94,599028930760588.8,1.6589248519725472e+16
6.486222330124463,4854416772860308.0,2.4495313381360084e+16,744058612456928.4,972680585353122.5,11946553922862.336,29506225685805.473,623234173941031.6,1.7259470457140034e+16
6.715946776726952,4871824888835932.0,2.52294252156439e+16,746726833881357.4,976168653733096.6,12420023292579.898,30676059639270.176,647944443423254.8,1.7943664312838392e+16
6.950265712261491,4888534094060878.0,2.597735162577768e+16,749287930064399.9,979516681202122.2,12903321890811.73,31870213147074.45,673168467533221.4,1.8642070917879164e+16
7.18927102650672,4904581610755186.0,2.6739400658828004e+16,751747606225609.8,982732125984956.0,13396621083280.52,33089111726102.527,698915237445925.8,1.935493834560691e+16
7.433056447036854,4920002146741368.0,2.7515884426910984e+16,754111182191356.1,985821942495953.5,13900097196273.2,34333193244344.6,725194005372063.1,2.0082521859669636e+16
7.681717575977592,4934828105269613.0,2.8307119355093124e+16,756383624555695.4,988792623381802.5,14413931491893.113,35602907864138.78,752014283365428.0,2.0825083879164564e+16
7.935351927497144,4949089773992581.0,2.9113426417159276e+16,758569575645398.8,991650237386435.1,14938310154009.727,36898718011997.33,779385842692100.1,2.158289395927677e+16
8.194058966047088,4962815495497387.0,2.993513136102729e+16,760673379658155.4,994400463520556.2,15473424283917.336,38221098372585.41,807318713710026.4,2.2356228785984684e+16
8.45794014536803,4976031821485483.0,3.0772564925346596e+16,762699106294445.0,997048621954707.8,16019469904841.008,39570535904730.38,835823186214219.6,2.314537218358815e+16
8.72709894827539,4988763652421406.0,3.1626063048616716e+16,764650572162118.2,999599702000711.1,16576647974534.934,40947529877607.76,864909810208419.2,2.3950615133971904e+16
9.0016409272409,5001034364240166.0,3.249596707198817e+16,766531360197440.4,1002058387500070.2,17145164405312.959,42352591925479.805,894589397068917.9,2.4772255806650776e+16
9.281673745785717,5012865923505292.0,3.338262393676287e+16,768344837315870.2,1004429079898197.5,17725230090931.32,43786246119565.33,924873021070559.6,2.5610599598762412e+16
9.567307220701432,5024278992238887.0,3.4286386377485588e+16,770094170479847.1,1006715919249248.2,18317060939815.445,45249029055793.13,955772021248555.5,2.6465959184273412e+16
9.85865336511546,5035293023498111.0,3.5207613111413012e+16,771782341348241.6,1008922803366799.0,18920877914182.223,46741489957343.25,987298003572990.0,2.7338654571755376e+16
10.155826432417769,5045926348645688.0,3.614666902505336e+16,773412159652700.6,1011053405310245.8,19536907074666.19,48264190791013.56,1019462843415704.4,2.822901317016347e+16
10.458942961066125,5056196257150958.0,3.710392535839295e+16,774986275429105.4,1013111189374583.1,20165379630100.61,49817706396567.55,1052278688291743.2,2.913736986212001e+16
10.768121820287448,5066119069662973.0,3.807975988735639e+16,776507190217840.2,1015099425732058.9,20806531992150.96,51402624628317.38,1085757960859628.2,3.0064067084263548e+16
11.083484256693197,5075710205012882.0,3.90745571049919e+16,777977267333542.2,1017021203857457.0,21460605834529.742,53019546508292.53,1119913362166729.5,3.1009454914278476e+16
11.405153941827061,5084984241730210.0,4.0088708401816776e+16,779398741293976.9,1018879444854137.6,22127848156557.88,54669086390418.32,1154757875127616.2,3.1973891164263884e+16
11.733257020663602,5093954974593339.0,4.112261224572255e+16,780773726487801.6,1020676912785062.1,22808511350862.832,56351872135201.875,1190304768224782.0,3.295774148014553e+16
12.067922161076874,5102635466678850.0,4.217667436179141e+16,782104225152396.4,1022416225101935.8,23502853275031.28,58068545294485.516,1226567599422464.2,3.3961379446866316e+16
12.409280604298411,5111038097324566.0,4.32513079123509e+16,783392134725380.5,1024099862255572.9,24211137327054.88,59819761305881.62,1263560220285440.8,3.4985186699127e+16
12.75746621638438,5119174606378061.0,4.434693367755853e+16,784639254626786.9,1025730176561973.6,24933632524428.16,61606189696554.016,1301296780295700.2,3.6029553037474984e+16
13.112615540712067,5127056135063673.0,4.546398023678697e+16,785847292522928.0,1027309400390877.0,25670613586774.387,63428514296052.85,1339791731360894.2,3.709487654956588e+16
13.474867851526309,5134693263767532.0,4.660288415105599e+16,787017870117890.8,1028839653736729.4,26422361021892.93,65287433457952.64,1379059832509235.8,3.818156373644473e+16
13.844365208556836,5142096047009672.0,4.776409014673629e+16,788152528513856.1,1030322951226064.4,27189161215132.496,67183660290073.08,1419116154766222.0,3.929002964371532e+16
14.221252512727972,5149274045845742.0,4.894805130073936e+16,789252733177476.5,1031761208609851.5,27971306522011.03,69117922893101.17,1459976086209415.2,4.042069799748172e+16
14.605677562982532,5156236357917222.0,5.015522922738393e+16,790319878545792.2,1033156248784651.0,28769095364010.934,71090964607453.56,1501655337197851.8,4.157400134496695e+16
14.997791114242183,5162991645347753.0,5.1386094267124536e+16,791355292302041.4,1034509807382218.8,29582832327490.875,73103544268251.64,1544169945773420.0,4.275038119972327e+16
15.397746936527026,5169548160664503.0,5.2641125677310024e+16,792360239348737.0,1035823537963361.1,30412828265662.945,75156436468298.64,1587536283231913.0,4.395028819136747e+16
15.805701875257567,5175913770906302.0,5.392081182513347e+16,793335925502837.2,1037099016848506.8,31259400403594.105,77250431828972.25,1631771059861964.2,4.517418221978129e+16
16.221815912762718,5182095980065844.0,5.5225650382923624e+16,794283500935559.1,1038337747614438.5,32122872446195.516,79386337278968.03,1676891330850455.0,4.642253261373231e+16
16.64625223101797,5188101949999080.0,5.655614852592202e+16,795204063377263.0,1039541165283926.1,33003574689173.324,81564976340837.81,1722914502353338.0,4.769581829387837e+16
17.079177275638333,5193938519923234.0,5.7912823132679544e+16,796098661105998.8,1040710640232540.0,33901844132918.242,83787189425293.77,1769858337731202.2,4.8994527940128376e+16
17.5207608211511,5199612224613970.0,5.929620098820646e+16,796968295736660.4,1041847481834823.0,34818024599317.793,86053834133255.23,1817740963949227.0,5.031916016333908e+16
17.97117603757412,5205129311402072.0,6.070681898999563e+16,797813924826168.9,1042952941869925.1,35752466851480.47,88365785565633.84,1866580878141316.8,5.167022368133906e+16
18.430599558325603,5210495756061901.0,6.2145224357042616e+16,798636464308736.1,1044028217705169.2,36705528716364.33,90723936640859.88,1916396954338664.8,5.3048237499270984e+16
18.899211549492115,5215717277675054.0,6.361197484197517e+16,799436790774111.4,1045074455274286.4,37677575210309.516,93129198420170.47,1967208450363098.5,5.445373109425812e+16
19.37719578048196,5220799352546139.0,6.510763894640663e+16,800215743600506.1,1046092751865736.9,38668978667473.734,95582500440685.7,2019035014885852.5,5.5887244604400104e+16
19.864739696091597,5225747227240938.0,6.663279613961917e+16,800974126953013.6,1047084158735148.0,39680118871179.2,98084791056306.7,2071896694652537.2,5.734932902210992e+16
20.36203449001343,5230565930811043.0,6.818803708068458e+16,801712711657328.1,1048049683554778.1,40711383188175.37,100637037786489.22,2125813941875403.0,5.88405463918113e+16
20.869275179813698,5235260286264017.0,6.977396384412582e+16,802432236957841.6,1048990292711804.2,41763166705833.51,103240227672941.55,2180807621794005.8,6.0361470012019336e+16
21.38666068340997,5239834921333391.0,7.139119014921863e+16,803133412168401.1,1049906913466292.2,42835872372283.13,105895367644308.06,2236899020405709.0,6.1912684641828296e+16
21.91439389707817,5244294278597976.0,7.304034159303453e+16,803816918223346.9,1050800435978814.2,43929911139510.125,108603484888918.12,2294109852367505.0,6.349478671183861e+16
22.452681775019734,5248642624996428.0,7.472205588732243e+16,804483409135842.1,1051671715216883.1,45045702109433.23,111365627235663.12,2352462269070842.0,6.510838453955734e+16
23.00173541052013,5252884060779002.0,7.643698309932307e+16,805133513369976.0,1052521572748626.9,46183672682982.7,114182863543098.61,2411978866891251.0,6.675409854930818e+16
23.561770118730532,5257022527935723.0,7.818578589661646e+16,805767835132544.0,1053350798431516.5,47344258712202.73,117056284096851.36,2472682695614696.5,6.843256149669281e+16
24.133005521105144,5261061818135988.0,7.996913979608874e+16,806386955590039.9,1054160152003258.0,48527904655402.27,119987001015431.11,2534597267042831.5,7.01444186976457e+16
24.715665631527248,5265005580213498.0,8.178773341712074e+16,806991434015855.6,1054950364581529.0,49735063735384.25,122976148664550.45,2597746563779111.0,7.189032826213091e+16
25.309978944157795,5268857327226312.0,8.364226873908285e+16,807581808872445.1,1055722140078618.1,50966198100776.664,126024884080052.53,2662155048198372.0,7.367096133252637e+16
25.91617852304095,5272620443120675.0,8.553346136323277e+16,808158598832702.0,1056476156536637.0,52221778990502.055,129134387399564.16,2727847671602012.0,7.548700232675066e+16
26.53450209350177,5276298189024434.0,8.746204077910834e+16,808722303744578.6,1057213067388551.6,53502286901410.055,132305862302987.69,2794849883561437.5,7.733914918618488e+16
27.165192135371807,5279893709194321.0,8.942875063550266e+16,809273405542659.1,1057933502649835.4,54808211759111.3,135540536461955.69,2863187641452378.5,7.922811362844248e+16
27.808495978079243,5283410036639409.0,9.143434901611685e+16,809812369110095.9,1058638070045243.2,56140053092041.97,138839661998366.58,2932887420182754.0,8.115462140504902e+16
28.464665897640828,5286850098441607.0,9.347960871997915e+16,810339643094097.2,1059327356074879.2,57498320208798.945,142204515952144.94,3003976222116906.0,8.311941256409066e+16
29.133959215593645,5290216720792273.0,9.55653175467209e+16,810855660677918.6,1060001927023379.4,58883532378775.97,145636400758341.53,3076481587199141.0,8.512324171789098e+16
29.816638399905518,5293512633762938.0,9.769227858680304e+16,811360840312087.9,1060662329915830.8,60296219016142.6,149136644733733.5,3150431603279477.0,8.716687831578299e+16
30.51297116790363,5296740475826732.0,9.986131051678027e+16,811855586407428.0,1061309093423728.8,61736919867201.65,152706602573044.47,3225854916644858.0,8.925110692203742e+16
31.223230591261704,5299902798145934.0,1.020732478996952e+17,812340289992235.0,1061942728724069.4,63206185201162.91,156347655854950.75,3302780742758704.0,9.137672749901829e+16
31.947695203086937,5303002068640104.0,1.0432894149069544e+17,812815329335800.1,1062563730314479.4,64704576004375.34,160061213558008.44,3381238877212420.5,9.35445556956303e+16
32.686649107148675,5306040675847904.0,1.066292585479618e+17,813281070540359.5,1063172576787037.1,66232664178054.586,163848712586664.66,3461259706891804.0,9.575542314113013e+16
33.44038208929165,5309020932595608.0,1.0897508314904211e+17,813737868103349.8,1063769731563289.1,67791032739549.48,167711618307503.47,3542874221362077.0,9.801017774437074e+16
34.20918973107749,5311945079483269.0,1.113673165126779e+17,814186065451776.8,1064355643592805.4,69380276027186.07,171651425095895.66,3626114024474815.5,1.0030968399855218e+17
34.993373525699035,5314815288199980.0,1.1380687732622166e+17,814625995450342.5,1064930748017451.8,71000999908733.4,175669656893203.34,3711011346200441.5,1.0265482329155155e+17
35.793240996213015,5317633664677912.0,1.1629470207873026e+17,815057980884889.5,1065495466803367.4,72653821993531.66,179767867774724.7,3797599054689909.5,1.05046494221906e+17
36.60910581613728,5320402252094929.0,1.1883174539983277e+17,815482334922608.5,1066050209342580.2,74339371848325.02,183947642528531.47,3885910668569259.5,1.0748561292052669e+17
37.44128793246003,5323123033734259.0,1.2141898040446118e+17,815899361550389.2,1066595373026040.9,76058291216844.0,188210597245389.16,3975980369470857.5,1.0997311337821752e+17
38.29011369110923,5325797935709957.0,1.240573990435373e+17,816309355992518.8,1067131343789673.9,77811234243177.69,192558379919928.34,4067843014805166.5,1.1250994777907664e+17
39.15591596493141,5328428829565341.0,1.2674801246071128e+17,816712605108990.9,1067658496635067.6,79598867698982.84,196992671063249.56,4161534150776992.0,1.150970868398625e+17
40.03903428423004,5331017534752176.0,1.2949185135524158e+17,817109387775485.5,1068177196126212.6,81421871214568.02,201515184327149.0,4257090025650202.0,1.177355201553956e+17
40.93981496991464,5333565820997000.0,1.32289966351113e+17,817499975246065.8,1068687796863634.9,83280937513902.84,206127667140149.97,4354547603264982.0,1.2042625655008717e+17
41.85861126931294,5336075410561152.0,1.351434283724826e+17,817884631499595.5,1069190643937246.5,85176772653590.48,210831901355526.47,4453944576811832.0,1.2317032443566349e+17
42.7957834946992,5338547980400346.0,1.3805332902555173e+17,818263613570740.4,1069686073359086.0,87110096265849.83,215629703911524.62,4555319382866367.0,1.2596877217517766e+17
43.751699164593184,5340985164229697.0,1.4102078098695336e+17,818637171866462.4,1070174412477023.4,89081641805550.6,220522927503961.34,4658711215689476.0,1.2882266845338104e+17
