t(s),Total solute volume 1,Total retention volume 1,Total 1 volume 1,Total 2 volume 1,Total 3 volume 1,Total 4 volume 1,Total 5 volume 1,Total 6 volume 1
0.1,1117071271046687.6,1512117690109863.2,171218609237430.47,223827809825744.56,0.0,0.0,0.0,0.0
0.202,1681902631459799.2,2277051616021789.5,257792890005724.44,337003199801479.56,235458803.4126048,581314239.4534363,12277036455.123178,339800945289.1707
0.30604000000000003,2112215129050479.2,2860084433597368.5,323748850017488.8,423225010627461.8,597306611.518799,1474666295.9729729,31144999861.309853,862226929168.436
0.41216080000000005,2476138777761773.0,3353402863347795.5,379529088152274.8,496144472605663.8,1060851376.6377567,2619094364.888821,55315975532.675606,1531528906808.9646
0.5204040160000001,2799256043297834.5,3791620004813597.0,429054745725305.44,560887550436202.06,1615117438.7041788,3987500992.034871,84217596288.9932,2331845139535.8687
0.6308120963200001,3094320105198791.5,4191990285617230.5,474280560770180.2,620009601611610.9,2254207905.833873,5565327552.750218,117542356470.83347,3254656144717.5054
0.7434283382464002,3368744897748746.5,4564544468140211.0,516342900827522.3,674996157811206.4,2974742537.5024185,7344228702.195219,155113988298.5736,4295078793197.1973
0.8582969050113283,3627280323450465.5,4915709357894065.0,555969805128381.56,726798958059845.2,3774804777.74261,9319472737.221027,196832550282.3232,5450344427576.527
0.9754628431115548,3873181339445953.5,5249889552662594.0,593660175806203.2,776070198843818.1,4653422863.652277,11488660522.079927,242647368198.14413,6719049115037.365
1.094972099973786,4108791616237251.0,5570257077888554.0,629773237932713.1,823279481941433.1,5610282415.732665,13851015912.485012,292542047565.022,8100738431266.286
1.2168715419732616,4335864010076024.5,5879184933318425.0,664577659783555.2,868778027547982.0,6645553700.455836,16406959290.200819,346525466010.8273,9595657931851.113
1.3412089728127268,4555749598226878.0,6178502814235540.0,698280527135725.0,912836551313808.9,7759781392.749854,19157835401.58004,404626024820.4428,11204593917523.06
1.4680331522689813,4769515611507243.0,6469656639783193.0,731045419326099.0,955668894513666.9,8953810947.36037,22105731578.500595,466887809509.95636,12928767084148.979
1.597393815314361,4978022401907683.0,6753812663374385.0,763004206429805.4,997447446065932.6,10228737659.63668,25253351976.435596,533367933568.60034,14769758947759.248
1.729341691620648,5181975573522535.0,7031927985125831.0,794265039605839.9,1038313588018769.4,11585870445.285978,28603928151.668728,604134649735.8561,16729459530349.793
1.863928525453061,5381962406026443.0,7304799816852421.0,824917933889502.9,1078384993730203.4,13026705536.05305,32161154119.59015,679265978352.5602,18810029368259.562
2.001207095962122,5578477985013018.0,7573100824154398.0,855038773308638.6,1117760863609863.6,14552907072.183857,35929138440.21907,758848695349.4589,21013871482020.504
2.1412312378813647,5771944379451261.0,7837405064167100.0,884692250299884.9,1156525767710180.2,16166292625.284407,39912368476.20673,842977577334.0223,23343610467351.54
2.284055862638992,5962724997801850.0,8098207402343941.0,913934066136117.4,1194752522264582.2,17868822331.487328,44115683564.20253,931754834938.4915,25802076800559.51
2.4297369798917723,6151135523458261.0,8355938302910944.0,942812607051404.9,1232504380824236.2,19662590725.276337,48544254853.78051,1025289686994.824,28392295044473.03
2.578331719489608,6337452373831159.0,8610975270303051.0,971370240803481.4,1269836729206690.8,21549820632.73481,53203570230.80974,1123698042099.0513,31117475028747.24
2.7298983538794,6521919334322761.0,8863651822446642.0,999644333493246.5,1306798414746739.0,23532858663.098934,58099423186.82495,1227102263519.7534,33981005338531.387
2.884496320956988,6704752825470508.0,9114264615730330.0,1027668056883927.4,1343432801675196.5,25614171961.133755,63237904801.20222,1335630999852.4595,36986448624073.016
3.0421862473761276,6886146131629256.0,9363079165782044.0,1055471036550476.8,1379778618420866.8,27796345969.456554,68625398216.76355,1449419068338.091,40137538368921.91
3.2030299723236504,7066272830337816.0,9610334487488286.0,1083079877514243.6,1415870644753483.0,30082083011.711285,74268575141.95622,1568607380984.867,43438176843626.055
3.3670905717701234,7245289599123805.0,9856246893300422.0,1110518594454750.9,1451740274183807.0,32474201552.29337,80174394023.35007,1693342905969.1711,46892434036512.6
3.5344323832055258,7423338532151664.0,1.0101013128890386e+16,1137808966792911.2,1487415978150904.0,34975636021.29207,86350099613.58409,1823778658509.802,50504547400759.54
3.7051210308696363,7600549067121735.0,1.0344812981942728e+16,1164970834035627.2,1522923692115337.8,37589437117.91249,92803223720.62434,1960073716692.7695,54278922292490.0
3.879223451487029,7777039599425842.0,1.0587811468218166e+16,1192022343184808.0,1558287138987884.0,40318772524.21682,99541586970.05022,2102393258692.375,58220133001448.62
4.0568079205167695,7952918843232966.0,1.0830160675585026e+16,1218980157357155.8,1593528101850568.0,43166927975.221634,106573301447.14233,2250908618574.5903,62332924296325.09
4.237944078927105,8128286986192267.0,1.1072001329151606e+16,1245859632770782.0,1628666655324752.8,46137308642.346306,113906774112.6016,2405797358440.388,66622213422617.92
4.422702960505647,8303236674607423.0,1.1313464127335608e+16,1272674969747364.0,1663721362970742.5,49233440795.76148,121550710906.84215,2567243355112.442,71093092503282.9
4.61115701971576,8477853858414040.0,1.1554670888533078e+16,1299439342225694.8,1698709446596109.0,52458973717.91077,129514121474.40733,2735436899919.5103,75750831302124.83
4.803380160110075,8652218519486695.0,1.1795735540200376e+16,1326165009392625.5,1733646932186712.5,55817681845.827034,137806324453.2556,2910574810411.489,80600880317612.6
4.9994477633122765,8826405302280854.0,1.2036764976048284e+16,1352863412344417.0,1768548776268568.8,59313467124.13838,146436953284.22452,3092860553061.1533,85648874180971.36
5.199436718578522,9000484062266867.0,1.2277859802249908e+16,1379545258147743.8,1803428975797693.0,62950361554.11143,155415962504.49304,3282504376188.4707,90900635337394.4
5.403425452950093,9174520344807054.0,1.2519114989769362e+16,1406220593239348.2,1838300664112806.0,66732529926.885254,164753634495.79468,3479723452489.78,96362177993259.5
5.611493962009095,9348575804891794.0,1.2760620446896308e+16,1432898867760930.5,1873176195037960.8,70664272731.34082,174460586663.79898,3684742030673.6987,102039712315561.05
5.823723841249277,9522708576358212.0,1.3002461523648616e+16,1459588992150943.5,1908067216862924.2,74750029228.95148,184547779029.7538,3897791595804.3823,107939648872493.78
6.040198318074262,9696973597769144.0,1.324471945774973e+16,1486299387093586.8,1942984737639685.5,78994380689.51648,195026522219.34552,4119111038034.6055,114068603306393.25
6.261002284435747,9871422900956544.0,1.348747177030086e+16,1513038027745150.0,1977939182997909.8,83402053783.00862,205908485836.99112,4348946829479.4155,120433401232135.22
6.486222330124463,1.00461058672752e+16,1.373079261797303e+16,1539812483011195.0,2012940447490564.0,87977924123.85126,217205707216.47208,4587553209038.799,127041083355680.98
6.715946776726952,1.0221069455826272e+16,1.3974753107481176e+16,1566629950527426.5,2047997940323148.0,92727019964.87846,228930600541.14316,4835192375025.897,133898910808806.92
6.950265712261491,1.0396358407262758e+16,1.4219421577225858e+16,1593497287897862.2,2083120626190183.8,97654526039.03325,241095966328.8853,5092134685499.326,141014370697196.38
7.18927102650672,1.057201542625015e+16,1.4464863850261676e+16,1620421040661439.8,2118317061834954.5,102765787547.51863,253715001278.65912,5358658866232.769,148395181860053.8
7.433056447036854,1.0748081345209688e+16,1.4711143462147432e+16,1647407467389667.2,2153595428858743.5,108066314293.71841,266801308476.95755,5635052226286.142,156049300840248.03
7.681717575977592,1.0924595271596622e+16,1.495832186672707e+16,1674462562260651.2,2188963563230999.0,113561784962.69977,280368907963.7033,5921610881168.612,163984928064716.97
7.935351927497144,1.110159472065223e+16,1.5206458622466098e+16,1701592075406608.8,2224428981888950.2,119258051546.5568,294432247658.2198,6218639983606.844,172210514235504.5
8.194058966047088,1.1279115735304024e+16,1.545561156161035e+16,1728801531291485.2,2259998906761951.5,125161143916.23747,309006214646.87933,6526453961952.315,180734766932366.22
8.45794014536803,1.14571929946636e+16,1.570583694413184e+16,1756096245340947.5,2295680286511281.5,131277274540.83986,324106146834.84406,6845376766278.835,189566657428364.62
8.72709894827539,1.163585991238249e+16,1.595718959816893e+16,1783481339017840.0,2331479816237714.5,137612843355.6676,339747844965.1135,7175742122237.783,198715427720321.1
9.0016409272409,1.1815148725964022e+16,1.6209723048449246e+16,1810961753511384.5,2367403955376934.5,144174442780.60587,355947585008.6922,7517893792752.11,208190597776369.1
9.281673745785717,1.1995090577989902e+16,1.6463489633996728e+16,1838542262187189.8,2403458943974957.0,150968862890.61096,372722130930.35565,7872185847643.473,218001973003225.03
9.567307220701432,1.2175715590102928e+16,1.6718540616263804e+16,1866227481926876.0,2439650817512030.5,158003096740.3533,390088747835.0084,8238982941297.796,228159651936092.6
9.85865336511546,1.235705293048319e+16,1.6974926278690816e+16,1894021883470507.5,2475985420422879.5,165284345845.21817,408065215500.1006,8618660598485.115,238674034154413.53
10.155826432417769,1.2539130875468638e+16,1.7232696018577228e+16,1921929800861425.8,2512468418443632.0,172820025821.07944,426669842300.0747,9011605508459.357,249555828426935.5
10.458942961066125,1.2721976865893654e+16,1.7491898432044528e+16,1949955440081522.8,2549105309900352.0,180617772185.4161,445921479529.15344,9418215827472.045,260816061089822.72
10.768121820287448,1.290561755865274e+16,1.7752581392782354e+16,1978102886954653.5,2585901436040943.0,188685446322.49936,465839536129.2493,9838901489842.232,272466084661741.34
11.083484256693197,1.3090078873940236e+16,1.8014792125191276e+16,2006376114387289.0,2622861990500514.0,197031141615.51755,486443993830.04236,10274084527732.393,284517586700067.7
11.405153941827061,1.3275386038565262e+16,1.827857727246805e+16,2034778989007567.0,2659992027980418.0,205663189748.65167,507755422708.6758,10724199399787.037,296982598902570.3
11.733257020663602,1.3461563625697932e+16,1.854398296011981e+16,2063315277257390.8,2697296472212215.5,214590167182.2172,529794997176.7845,11189693328797.291,309873506459077.94
12.067922161076874,1.3648635591364392e+16,1.88110548553414e+16,2091988650986220.2,2734780123270230.0,223820901804.14062,552584512402.8851,11671026648560.912,323203057657830.2
12.409280604298411,1.3836625307974568e+16,1.9079838222646424e+16,2120802692589965.8,2772447664289428.5,233364479761.11163,576146401178.4154,12168673160112.682,336984373751369.1
12.75746621638438,1.4025555595136272e+16,1.935037797609826e+16,2149760899734040.5,2810303667639746.5,243230252472.88333,600503751235.9822,12683120497506.566,351230959086970.6
13.112615540712067,1.4215448747983572e+16,1.962271872845809e+16,2178866689695382.0,2848352600602160.0,253427843833.28845,625680323028.625,13214870503334.576,365956711506767.1
13.474867851526309,1.4406326563224132e+16,1.9896904837529456e+16,2208123403354846.8,2886598830587865.0,263967157601.6189,651700567979.1239,13764439614174.135,381175933022860.1
13.844365208556836,1.4598210363089654e+16,2.0172980449956184e+16,2237534308868169.2,2925046629937189.5,274858384988.13452,678589647208.6115,14332359256158.887,396903340772819.9
14.221252512727972,1.479112101735493e+16,2.0450989542702708e+16,2267102605040984.5,2963700180331587.5,286112012437.5219,706373450753.9645,14919176250873.498,413154078261134.0
14.605677562982532,1.498507896357593e+16,2.073097596242637e+16,2296831424430738.0,3002563576848724.0,297738829614.23126,735078617283.6642,15525453231776.375,429943726892259.06
14.997791114242183,1.5180104225681604e+16,2.1012983462930056e+16,2326723836196412.0,3041640831687730.5,309749937593.6871,764732554321.9625,16151769071359.457,447288317801055.75
15.397746936527026,1.5376216431042302e+16,2.1297055740868124e+16,2356782848714621.0,3080935877589210.0,322156757263.44415,795363458991.4712,16798719319256.904,465204343986488.0
15.805701875257567,1.5573434826125748e+16,2.158323646986058e+16,2387011411979292.0,3120452570972235.0,334971037938.43427,827000339284.3424,17466916651519.473,483708772754579.0
16.221815912762718,1.5771778290841486e+16,2.1871569333160316e+16,2417412419800333.0,3160194694808496.0,348204866194.5216,859673035872.5055,18156991331273.844,502819058476721.7
16.64625223101797,1.5971265351664956e+16,2.2162098055002108e+16,2447988711815173.0,3200165961252064.0,361870674924.64343,893412244467.4991,18869591680990.97,522553155669514.0
17.079177275638333,1.6171914193625278e+16,2.2454866430753164e+16,2478743075326215.0,3240370014041320.0,375981252621.87683,928249538740.6332,19605384566588.875,542929532402414.2
17.5207608211511,1.6373742671232082e+16,2.2749918355975972e+16,2509678246975614.0,3280810430688373.5,390549752893.8439,964217393814.3654,20365055893601.19,563967184039555.6
17.97117603757412,1.6576768318410846e+16,2.304729785450123e+16,2540796914268158.0,3321490724469828.5,405589704212.909,1001349210335.8834,21149311115642.02,585685647322194.1
18.430599558325603,1.6781008357510042e+16,2.334704910560617e+16,2572101716951803.5,3362414346231540.0,421115019906.6688,1039679339144.0443,21958875755404.66,608105014798288.5
18.899211549492115,1.6986479707438166e+16,2.364921647038118e+16,2603595248264847.0,3403584686019031.0,437140008393.33295,1079243106540.9835,22794495938430.6,631245949605808.8
19.37719578048196,1.7193198990983248e+16,2.395384451736542e+16,2635280056057884.5,3445005074544092.5,453679383666.5587,1120076840179.6912,23656938939890.43,655129700616467.8
19.864739696091597,1.7401182541363556e+16,2.4260978047521548e+16,2667158643797821.0,3486678784497386.0,470748276034.44116,1162217895579.1626,24546993744618.59,679778117946546.0
20.36203449001343,1.761044640805419e+16,2.457066211861973e+16,2699233471460936.0,3528609031715849.5,488362243117.31494,1205704683278.5916,25465471620647.62,705213668841657.8
20.869275179813698,1.7821006361930238e+16,2.4882942069091276e+16,2731506956321246.5,3570798976213333.0,506537281109.1233,1250576696642.4421,26413206706488.465,731459453942247.4
21.38666068340997,1.803287789976447e+16,2.519786354141182e+16,2763981473639838.0,3613251723081715.5,525289836307.1099,1296874540328.0142,27391056612405.14,758539223936736.5
21.91439389707817,1.8246076248114076e+16,2.5515472505065868e+16,2796659357260612.0,3655970323269706.5,544636816914.6246,1344639959427.4421,28399903035934.184,786477396609229.1
22.452681775019734,1.846061636662813e+16,2.583581527914612e+16,2829542900117274.5,3698957774245634.0,564595605121.8677,1393915869296.0137,29440652391900.61,815299074288748.4
23.00173541052013,1.867651295080627e+16,2.615893855463223e+16,2862634354656116.5,3742217020550092.0,585184069469.4146,1444746386078.721,30514236457181.74,845030061707008.5
23.561770118730532,1.889378043423455e+16,2.6484889416394996e+16,2895935933178742.0,3785750954244020.5,606420577499.369,1497176857947.1042,31621613030474.035,875696884271735.4
24.133005521105144,1.9112432990324924e+16,2.6813715364966504e+16,2929449808108703.5,3829562415257223.5,628324008699.0155,1551253897058.362,32763766607315.97,907326806762575.4
24.715665631527248,1.933248453358135e+16,2.714546433811615e+16,2963178112185521.5,3873654191642050.5,650913767741.8654,1607025412248.8062,33941709070620.523,939947852456637.0
25.309978944157795,1.9553948720414092e+16,2.748018473226839e+16,2997122938589544.0,3918029019736567.0,674209798030.9502,1664540642473.7136,35156480396974.625,973588822690746.4
25.91617852304095,1.977683894952277e+16,2.7817925423797636e+16,3031286341000611.0,3962689584241291.5,698232595549.2612,1723850191005.6,36409149378957.195,1008279316867429.4
26.53450209350177,2.000116836186729e+16,2.8158735790233172e+16,3065670333593625.0,4007638518213405.0,723003223022.1932,1785006060403.0034,37700814363732.22,1044049752911699.2
27.165192135371807,2.022694984024345e+16,2.85026657314051e+16,3100276890973503.0,4052878402981652.5,748543324396.8622,1848061688261.6987,39032604008167.95,1080931388185633.1
27.808495978079243,2.045419600848074e+16,2.8849765690560496e+16,3135107948052206.5,4098411767985692.0,774875139643.1075,1913071983760.3655,40405678050737.78,1118956340867765.0
28.464665897640828,2.068291923027691e+16,2.920008667547913e+16,3170165399870150.5,4144241090542494.5,802021519881.0464,1980093365012.5955,41821228100451.266,1158157611804248.5
29.133959215593645,2.091313160768495e+16,2.955368027961427e+16,3205451101364216.0,4190368795543248.0,830005942839.9043,2049183797236.9727,43280478443066.42,1198569106838663.8
29.816638399905518,2.1144844979264756e+16,2.9910598703284864e+16,3240966867084531.5,4236797255082951.5,858852528652.9003,2120402831757.127,44784686864830.73,1240225659627393.8
30.51297116790363,2.1378070917914e+16,3.0270894774944892e+16,3276714470861944.5,4283528788025803.0,888586055992.8959,2193811645843.162,46335145493995.87,1283163054947298.8
31.223230591261704,2.16128207283891e+16,3.0634621972550388e+16,3312695645428092.5,4330565659508508.0,919231978553.4325,2269473083406.158,47933181660349.81,1327418052502437.0
31.947695203086937,2.1849105444529104e+16,3.1001834445050852e+16,3348912081989845.5,4377910080383971.0,950816441879.774,2347451696556.985,49580158773005.06,1373028411236482.8
32.686649107148675,2.2086935826192944e+16,3.1372587034023144e+16,3385365429759915.0,4425564206607682.5,983366300554.4841,2427813788040.5806,51277477216680.695,1420032914157320.5
33.44038208929165,2.232632235592099e+16,3.1746935295472124e+16,3422057295445108.5,4473530138568707.5,1016909135741.9784,2510627454556.899,53026575266709.03,1468471393680309.0
34.20918973107749,2.256727523533098e+16,3.2124935521816092e+16,3458989242693960.0,4521809920367622.0,1051473273096.4313,2595962630979.112,54828930022997.58,1518384757496467.5
34.993373525699035,2.280980438125864e+16,3.2506644764078388e+16,3496162791505159.5,4570405539043165.0,1087087801037.3607,2683891135479.827,56686058363167.01,1569815014971772.0
35.793240996213015,2.305391942165199e+16,3.289212085430341e+16,3533579417598258.0,4619318923749564.0,1123782589397.0217,2774486715575.59,58599517915088.71,1622805304083604.8
36.60910581613728,2.329962969122895e+16,3.3281422428216356e+16,3571240551748099.5,4668551944886472.0,1161588308443.7415,2867825095099.872,60570908049029.03,1677399918900199.5
37.44128793246003,2.3546944226907656e+16,3.367460894814422e+16,3609147579084383.5,4718106413183388.0,1200536448285.1445,2963984022114.2305,62601870889612.5,1733644337608785.0
38.29011369110923,2.3795871763017348e+16,3.4071740726217052e+16,3647301838357637.0,4767984078739926.0,1240659338655.1562,3063043317767.253,64694092347802.0,1791585251097907.8
39.15591596493141,2.4046420726299664e+16,3.4472878947864692e+16,3685704621173049.0,4818186630024366.0,1281990169088.4148,3165084926110.486,66849303173091.836,1851270592099289.8
40.03903428423004,2.4298599230708644e+16,3.4878085695628336e+16,3724357171193378.0,4868715692831665.0,1324563009485.7788,3270192964880.0967,69069280026097.34,1912749564894199.2
40.93981496991464,2.4552415072017136e+16,3.528742397330164e+16,3763260683312358.5,4919572829202709.0,1368412831074.2512,3378453777252.859,71355846571722.55,1976072675589311.0
41.85861126931294,2.4807875722239624e+16,3.570095773041825e+16,3802416302799771.5,4970759536306909.0,1413575527764.6619,3489955984584.3374,73710874593073.7,2041291762966522.0
42.7957834946992,2.506498832387845e+16,3.61187518871026e+16,3841825124419546.0,5022277245289181.0,1460087937910.1208,3604790540137.244,76136285126279.56,2108460029911122.2
43.751699164593184,2.532375968400229e+16,3.65408723592972e+16,3881488191522239.0,5074127320083608.0,1507987866468.217,3723050783806.693,78634049616372.16,2177632075422339.8
