t(s),Total solute volume 1,Total retention volume 1,Total 1 volume 1,Total 2 volume 1,Total 3 volume 1,Total 4 volume 1,Total 5 volume 1,Total 6 volume 1
0.1,554196261149403.56,554232040034498.2,35778885094.58461,0.0,0.0,0.0,0.0,0.0
0.21000000000000002,851709631678037.5,851764618012836.9,54986334800.01731,0.0,0.0,0.0,0.0,0.0
0.33100000000000007,1091229110065283.5,1091299559766716.1,70449701430.43854,0.0,0.0,0.0,0.0,0.0
0.46410000000000007,1305397707415891.5,1305481983832161.8,84276416273.51564,0.0,0.0,0.0,0.0,0.0
0.6105100000000001,1506397040681569.5,1506494293605607.8,97252924032.96182,0.0,0.0,0.0,0.0,0.0
0.7715610000000002,1700353501198087.5,1700463275942337.8,109774744250.93779,0.0,0.0,0.0,0.0,0.0
0.9487171000000002,1890908435060248.5,1891030512022315.2,122076962064.11992,0.0,0.0,0.0,0.0,0.0
1.1435888100000002,2080482261127004.8,2080616576966605.8,134315839603.09074,0.0,0.0,0.0,0.0,0.0
1.3579476910000003,2270823065133617.5,2270969669366825.5,146604233202.8576,0.0,0.0,0.0,0.0,0.0
1.5937424601000005,2463278903543824.0,2463437932717148.0,159029173327.007,0.0,0.0,0.0,0.0,0.0
1.8531167061100007,2658946654285839.0,2659118315760200.5,171661474364.38544,0.0,0.0,0.0,0.0,0.0
2.138428376721001,2858759579077251.5,2858944140464903.0,184561387648.77817,0.0,0.0,0.0,0.0,0.0
2.452271214393101,3063541928090586.5,3063739710217317.0,197782126733.61243,0.0,0.0,0.0,0.0,0.0
2.7974983358324113,3274044673555624.5,3274256045729975.5,211372174351.6866,0.0,0.0,0.0,0.0,0.0
3.1772481694156527,3490969877686264.5,3491195254541885.0,225376855607.4118,0.0,0.0,0.0,0.0,0.0
3.594972986357218,3714987925565605.0,3715227765016126.5,239839450531.08588,0.0,0.0,0.0,0.0,0.0
4.05447028499294,3946750122196683.5,3947004924204033.0,254802007343.91302,0.0,0.0,0.0,0.0,0.0
4.5599173134922335,4186898189809116.5,4187168495764724.5,270305955603.67874,0.0,0.0,0.0,0.0,0.0
5.115909044841457,4436071641781249.0,4436358034363517.5,286392582264.8309,0.0,0.0,0.0,0.0,0.0
5.727499949325603,4694913670529485.0,4695216773941281.0,303103411800.34204,0.0,0.0,0.0,0.0,0.0
6.400249944258164,4964075970588869.0,4964396451106442.0,320480517579.5504,0.0,0.0,0.0,0.0,0.0
7.140274938683981,5244222766676194.0,5244561333458108.0,338566781919.72577,0.0,0.0,0.0,0.0,0.0
7.95430243255238,5536034187847928.0,5536391593961851.0,357406113921.4942,0.0,0.0,0.0,0.0,0.0
8.84973267580762,5840208984812310.0,5840586028437199.0,377043624898.3288,0.0,0.0,0.0,0.0,0.0
9.834705943388382,6157466388684368.0,6157863914432748.0,397525748377.5951,0.0,0.0,0.0,0.0,0.0
10.918176537727222,6488546619245476.0,6488965519518389.0,418900272913.6305,0.0,0.0,0.0,0.0,0.0
12.109994191499945,6834209148387642.0,6834650364617611.0,441216229975.62634,0.0,0.0,0.0,0.0,0.0
13.42099361064994,7195227326622623.0,7195691850169651.0,464523547035.1203,0.0,0.0,0.0,0.0,0.0
14.863092971714936,7572377461589692.0,7572866333932167.0,488872342474.7675,0.0,0.0,0.0,0.0,0.0
16.44940226888643,7966420035995800.0,7966934347708808.0,514311713019.2623,0.0,0.0,0.0,0.0,0.0
18.194342495775075,8378070650832198.0,8378611538690046.0,540887857830.62537,0.0,0.0,0.0,0.0,0.0
20.113776745352585,8807958655274335.0,8808527296681985.0,568641407656.3899,0.0,0.0,0.0,0.0,0.0
22.225154419887843,9256572382590460.0,9257169986479720.0,597603889262.4594,0.0,0.0,0.0,0.0,0.0
24.54766986187663,9724191426322022.0,9724819219675216.0,627793353186.5726,0.0,0.0,0.0,0.0,0.0
27.102436848064297,1.021080828342776e+16,1.0211467492742794e+16,659209315023.5741,0.0,0.0,0.0,0.0,0.0
29.91268053287073,1.0716043655518596e+16,1.0716735482805884e+16,691827287277.4204,0.0,0.0,0.0,0.0,0.0
33.003948586157804,1.1239061380800582e+16,1.1239786974087964e+16,725593287371.7823,0.0,0.0,0.0,0.0,0.0
36.40434344477359,1.1778490061508724e+16,1.1779250480286652e+16,760418777921.316,0.0,0.0,0.0,0.0,0.0
40.14477778925095,1.2332358785053922e+16,1.233315496157082e+16,796176516892.433,0.0,0.0,0.0,0.0,0.0
44.25925556817605,1.289805392015714e+16,1.289888661792549e+16,832697768364.3003,0.0,0.0,0.0,0.0,0.0
48.78518112499366,1.3472302970303044e+16,1.3473172741563136e+16,869771260109.1318,0.0,0.0,0.0,0.0,0.0
53.763699237493036,1.4051190137098008e+16,1.405209728128638e+16,907144188362.3822,0.0,0.0,0.0,0.0,0.0
59.240069161242346,1.463020681570868e+16,1.4631151341186484e+16,944525477806.3608,0.0,0.0,0.0,0.0,0.0
65.26407607736658,1.520433882642534e+16,1.5205320417838548e+16,981591413236.2577,0.0,0.0,0.0,0.0,0.0
71.89048368510325,1.5768190729337794e+16,1.5769208723003114e+16,1017993665309.9912,0.0,0.0,0.0,0.0,0.0
79.17953205361358,1.6316145881167802e+16,1.6317199250791606e+16,1053369623809.7925,0.0,0.0,0.0,0.0,0.0
87.19748525897495,1.6842558732791936e+16,1.6843646087604282e+16,1087354812361.05,0.0,0.0,0.0,0.0,0.0
96.01723378487245,1.7341973066621794e+16,1.7343092663599624e+16,1119596977826.8005,0.0,0.0,0.0,0.0,0.0
105.7189571633597,1.7809356466753656e+16,1.781050623798135e+16,1149771227688.8423,0.0,0.0,0.0,0.0,0.0
116.39085287969569,1.824033760532642e+16,1.824151520067567e+16,1177595349242.8867,0.0,0.0,0.0,0.0,0.0
128.12993816766527,1.8631429493837252e+16,1.8632632338059972e+16,1202844222691.915,0.0,0.0,0.0,0.0,0.0
141.04293198443182,1.8980219468501024e+16,1.898144483058761e+16,1225362086590.9348,0.0,0.0,0.0,0.0,0.0
155.247225182875,1.9285506193938184e+16,1.928675126532098e+16,1245071382797.6206,0.0,0.0,0.0,0.0,0.0
170.87194770116253,1.9547366092331428e+16,1.954862806937654e+16,1261977045134.7444,0.0,0.0,0.0,0.0,0.0
188.0591424712788,1.9767136710551244e+16,1.9768412875976796e+16,1276165425572.1245,0.0,0.0,0.0,0.0,0.0
206.9650567184067,1.99473124687338e+16,1.994860026629753e+16,1287797563759.5698,0.0,0.0,0.0,0.0,0.0
227.76156239024738,2.0091358186278836e+16,2.0092655283427092e+16,1297097148274.3513,0.0,0.0,0.0,0.0,0.0
250.63771862927214,2.020345631167494e+16,2.0204760645872724e+16,1304334197791.1497,0.0,0.0,0.0,0.0,0.0
275.8014904921994,2.0288213008306308e+16,2.0289522814392344e+16,1309806085996.279,0.0,0.0,0.0,0.0,0.0
303.4816395414193,2.0350354224986036e+16,2.0351668042905924e+16,1313817919916.4756,0.0,0.0,0.0,0.0,0.0
333.92980349556126,2.0394444100267812e+16,2.0395760764627904e+16,1316664360115.2632,0.0,0.0,0.0,0.0,0.0
367.4227838451174,2.0424653931824388e+16,2.0425972546529772e+16,1318614705367.5618,0.0,0.0,0.0,0.0,0.0
404.26506222962917,2.0444601117962524e+16,2.0445921020457212e+16,1319902494731.9307,0.0,0.0,0.0,0.0,0.0
444.7915684525921,2.045726574973529e+16,2.045858646985804e+16,1320720122741.5596,0.0,0.0,0.0,0.0,0.0
489.3707252978514,2.0464980442623796e+16,2.046630166080677e+16,1321218182938.2004,0.0,0.0,0.0,0.0,0.0
538.4077978276366,2.0464980442623796e+16,2.046630166080677e+16,1321218182938.2004,0.0,0.0,0.0,0.0,0.0
592.3485776104003,2.0464980442623796e+16,2.046630166080677e+16,1321218182938.2004,0.0,0.0,0.0,0.0,0.0
651.6834353714404,2.0464980442623796e+16,2.046630166080677e+16,1321218182938.2004,0.0,0.0,0.0,0.0,0.0
716.9517789085845,2.0464980442623796e+16,2.046630166080677e+16,1321218182938.2004,0.0,0.0,0.0,0.0,0.0
788.7469567994431,2.0464980442623796e+16,2.046630166080677e+16,1321218182938.2004,0.0,0.0,0.0,0.0,0.0
867.7216524793874,2.0464980442623796e+16,2.046630166080677e+16,1321218182938.2004,0.0,0.0,0.0,0.0,0.0
954.5938177273263,2.0464980442623796e+16,2.046630166080677e+16,1321218182938.2004,0.0,0.0,0.0,0.0,0.0
1050.153199500059,2.0464980442623796e+16,2.046630166080677e+16,1321218182938.2004,0.0,0.0,0.0,0.0,0.0
1155.2685194500648,2.0464980442623796e+16,2.046630166080677e+16,1321218182938.2004,0.0,0.0,0.0,0.0,0.0
1270.8953713950714,2.0464980442623796e+16,2.046630166080677e+16,1321218182938.2004,0.0,0.0,0.0,0.0,0.0
1398.0849085345785,2.0464980442623796e+16,2.046630166080677e+16,1321218182938.2004,0.0,0.0,0.0,0.0,0.0
1537.9933993880366,2.0464980442623796e+16,2.046630166080677e+16,1321218182938.2004,0.0,0.0,0.0,0.0,0.0
1691.8927393268402,2.0464980442623796e+16,2.046630166080677e+16,1321218182938.2004,0.0,0.0,0.0,0.0,0.0
1861.1820132595244,2.0464980442623796e+16,2.046630166080677e+16,1321218182938.2004,0.0,0.0,0.0,0.0,0.0
2047.400214585477,2.0464980442623796e+16,2.046630166080677e+16,1321218182938.2004,0.0,0.0,0.0,0.0,0.0
2252.2402360440246,2.0464980442623796e+16,2.046630166080677e+16,1321218182938.2004,0.0,0.0,0.0,0.0,0.0
2477.564259648427,2.0464980442623796e+16,2.046630166080677e+16,1321218182938.2004,0.0,0.0,0.0,0.0,0.0
2725.42068561327,2.0464980442623796e+16,2.046630166080677e+16,1321218182938.2004,0.0,0.0,0.0,0.0,0.0
2998.062754174597,2.0464980442623796e+16,2.046630166080677e+16,1321218182938.2004,0.0,0.0,0.0,0.0,0.0
3297.9690295920573,2.0464980442623796e+16,2.046630166080677e+16,1321218182938.2004,0.0,0.0,0.0,0.0,0.0
3627.8659325512635,2.0464980442623796e+16,2.046630166080677e+16,1321218182938.2004,0.0,0.0,0.0,0.0,0.0
3990.75252580639,2.0464980442623796e+16,2.046630166080677e+16,1321218182938.2004,0.0,0.0,0.0,0.0,0.0
4389.927778387029,2.0464980442623796e+16,2.046630166080677e+16,1321218182938.2004,0.0,0.0,0.0,0.0,0.0
4829.020556225732,2.0464980442623796e+16,2.046630166080677e+16,1321218182938.2004,0.0,0.0,0.0,0.0,0.0
5312.022611848306,2.0464980442623796e+16,2.046630166080677e+16,1321218182938.2004,0.0,0.0,0.0,0.0,0.0
5843.324873033137,2.0464980442623796e+16,2.046630166080677e+16,1321218182938.2004,0.0,0.0,0.0,0.0,0.0
6427.757360336452,2.0464980442623796e+16,2.046630166080677e+16,1321218182938.2004,0.0,0.0,0.0,0.0,0.0
7070.6330963700975,2.0464980442623796e+16,2.046630166080677e+16,1321218182938.2004,0.0,0.0,0.0,0.0,0.0
7777.796406007108,2.0464980442623796e+16,2.046630166080677e+16,1321218182938.2004,0.0,0.0,0.0,0.0,0.0
8555.67604660782,2.0464980442623796e+16,2.046630166080677e+16,1321218182938.2004,0.0,0.0,0.0,0.0,0.0
9411.343651268602,2.0464980442623796e+16,2.046630166080677e+16,1321218182938.2004,0.0,0.0,0.0,0.0,0.0
10352.578016395462,2.0464980442623796e+16,2.046630166080677e+16,1321218182938.2004,0.0,0.0,0.0,0.0,0.0
11387.93581803501,2.0464980442623796e+16,2.046630166080677e+16,1321218182938.2004,0.0,0.0,0.0,0.0,0.0
12526.829399838512,2.0464980442623796e+16,2.046630166080677e+16,1321218182938.2004,0.0,0.0,0.0,0.0,0.0
13779.612339822364,2.0464980442623796e+16,2.046630166080677e+16,1321218182938.2004,0.0,0.0,0.0,0.0,0.0
15157.673573804603,2.0464980442623796e+16,2.046630166080677e+16,1321218182938.2004,0.0,0.0,0.0,0.0,0.0
16673.540931185064,2.0464980442623796e+16,2.046630166080677e+16,1321218182938.2004,0.0,0.0,0.0,0.0,0.0
18340.99502430357,2.0464980442623796e+16,2.046630166080677e+16,1321218182938.2004,0.0,0.0,0.0,0.0,0.0
20175.19452673393,2.0464980442623796e+16,2.046630166080677e+16,1321218182938.2004,0.0,0.0,0.0,0.0,0.0
22192.813979407325,2.0464980442623796e+16,2.046630166080677e+16,1321218182938.2004,0.0,0.0,0.0,0.0,0.0
24412.19537734806,2.0464980442623796e+16,2.046630166080677e+16,1321218182938.2004,0.0,0.0,0.0,0.0,0.0
26853.51491508287,2.0464980442623796e+16,2.046630166080677e+16,1321218182938.2004,0.0,0.0,0.0,0.0,0.0
29538.966406591157,2.0464980442623796e+16,2.046630166080677e+16,1321218182938.2004,0.0,0.0,0.0,0.0,0.0
32492.963047250276,2.0464980442623796e+16,2.046630166080677e+16,1321218182938.2004,0.0,0.0,0.0,0.0,0.0
35742.359351975305,2.0464980442623796e+16,2.046630166080677e+16,1321218182938.2004,0.0,0.0,0.0,0.0,0.0
39316.695287172835,2.0464980442623796e+16,2.046630166080677e+16,1321218182938.2004,0.0,0.0,0.0,0.0,0.0
43248.464815890125,2.0464980442623796e+16,2.046630166080677e+16,1321218182938.2004,0.0,0.0,0.0,0.0,0.0
47573.41129747914,2.0464980442623796e+16,2.046630166080677e+16,1321218182938.2004,0.0,0.0,0.0,0.0,0.0
52330.85242722706,2.0464980442623796e+16,2.046630166080677e+16,1321218182938.2004,0.0,0.0,0.0,0.0,0.0
57564.03766994977,2.0464980442623796e+16,2.046630166080677e+16,1321218182938.2004,0.0,0.0,0.0,0.0,0.0
63320.54143694475,2.0464980442623796e+16,2.046630166080677e+16,1321218182938.2004,0.0,0.0,0.0,0.0,0.0
69652.69558063924,2.0464980442623796e+16,2.046630166080677e+16,1321218182938.2004,0.0,0.0,0.0,0.0,0.0
76618.06513870317,2.0464980442623796e+16,2.046630166080677e+16,1321218182938.2004,0.0,0.0,0.0,0.0,0.0
84279.97165257348,2.0464980442623796e+16,2.046630166080677e+16,1321218182938.2004,0.0,0.0,0.0,0.0,0.0
92708.06881783083,2.0464980442623796e+16,2.046630166080677e+16,1321218182938.2004,0.0,0.0,0.0,0.0,0.0
101978.97569961392,2.0464980442623796e+16,2.046630166080677e+16,1321218182938.2004,0.0,0.0,0.0,0.0,0.0
112176.97326957532,2.0464980442623796e+16,2.046630166080677e+16,1321218182938.2004,0.0,0.0,0.0,0.0,0.0
123394.77059653286,2.0464980442623796e+16,2.046630166080677e+16,1321218182938.2004,0.0,0.0,0.0,0.0,0.0
135734.34765618618,2.0464980442623796e+16,2.046630166080677e+16,1321218182938.2004,0.0,0.0,0.0,0.0,0.0
149307.8824218048,2.0464980442623796e+16,2.046630166080677e+16,1321218182938.2004,0.0,0.0,0.0,0.0,0.0
164238.77066398528,2.0464980442623796e+16,2.046630166080677e+16,1321218182938.2004,0.0,0.0,0.0,0.0,0.0
180662.74773038382,2.0464980442623796e+16,2.046630166080677e+16,1321218182938.2004,0.0,0.0,0.0,0.0,0.0
198729.12250342223,2.0464980442623796e+16,2.046630166080677e+16,1321218182938.2004,0.0,0.0,0.0,0.0,0.0
218602.13475376446,2.0464980442623796e+16,2.046630166080677e+16,1321218182938.2004,0.0,0.0,0.0,0.0,0.0
240462.44822914092,2.0464980442623796e+16,2.046630166080677e+16,1321218182938.2004,0.0,0.0,0.0,0.0,0.0
264508.79305205506,2.0464980442623796e+16,2.046630166080677e+16,1321218182938.2004,0.0,0.0,0.0,0.0,0.0
290959.7723572606,2.0464980442623796e+16,2.046630166080677e+16,1321218182938.2004,0.0,0.0,0.0,0.0,0.0
320055.84959298663,2.0464980442623796e+16,2.046630166080677e+16,1321218182938.2004,0.0,0.0,0.0,0.0,0.0
352061.53455228533,2.0464980442623796e+16,2.046630166080677e+16,1321218182938.2004,0.0,0.0,0.0,0.0,0.0
387267.7880075139,2.0464980442623796e+16,2.046630166080677e+16,1321218182938.2004,0.0,0.0,0.0,0.0,0.0
425994.6668082653,2.0464980442623796e+16,2.046630166080677e+16,1321218182938.2004,0.0,0.0,0.0,0.0,0.0
468594.23348909186,2.0464980442623796e+16,2.046630166080677e+16,1321218182938.2004,0.0,0.0,0.0,0.0,0.0
515453.7568380011,2.0464980442623796e+16,2.046630166080677e+16,1321218182938.2004,0.0,0.0,0.0,0.0,0.0
566999.2325218013,2.0464980442623796e+16,2.046630166080677e+16,1321218182938.2004,0.0,0.0,0.0,0.0,0.0
623699.2557739815,2.0464980442623796e+16,2.046630166080677e+16,1321218182938.2004,0.0,0.0,0.0,0.0,0.0
686069.2813513797,2.0464980442623796e+16,2.046630166080677e+16,1321218182938.2004,0.0,0.0,0.0,0.0,0.0
754676.3094865177,2.0464980442623796e+16,2.046630166080677e+16,1321218182938.2004,0.0,0.0,0.0,0.0,0.0
830144.0404351695,2.0464980442623796e+16,2.046630166080677e+16,1321218182938.2004,0.0,0.0,0.0,0.0,0.0
913158.5444786865,2.0464980442623796e+16,2.046630166080677e+16,1321218182938.2004,0.0,0.0,0.0,0.0,0.0
1004474.4989265553,2.0464980442623796e+16,2.046630166080677e+16,1321218182938.2004,0.0,0.0,0.0,0.0,0.0
1104922.0488192108,2.0464980442623796e+16,2.046630166080677e+16,1321218182938.2004,0.0,0.0,0.0,0.0,0.0
1215414.3537011321,2.0464980442623796e+16,2.046630166080677e+16,1321218182938.2004,0.0,0.0,0.0,0.0,0.0
1336955.8890712454,2.0464980442623796e+16,2.046630166080677e+16,1321218182938.2004,0.0,0.0,0.0,0.0,0.0
1470651.57797837,2.0464980442623796e+16,2.046630166080677e+16,1321218182938.2004,0.0,0.0,0.0,0.0,0.0
1617716.835776207,2.0464980442623796e+16,2.046630166080677e+16,1321218182938.2004,0.0,0.0,0.0,0.0,0.0
1779488.619353828,2.0464980442623796e+16,2.046630166080677e+16,1321218182938.2004,0.0,0.0,0.0,0.0,0.0
1957437.581289211,2.0464980442623796e+16,2.046630166080677e+16,1321218182938.2004,0.0,0.0,0.0,0.0,0.0
2153181.4394181324,2.0464980442623796e+16,2.046630166080677e+16,1321218182938.2004,0.0,0.0,0.0,0.0,0.0
2368499.6833599457,2.0464980442623796e+16,2.046630166080677e+16,1321218182938.2004,0.0,0.0,0.0,0.0,0.0
2605349.7516959403,2.0464980442623796e+16,2.046630166080677e+16,1321218182938.2004,0.0,0.0,0.0,0.0,0.0
2865884.8268655348,2.0464980442623796e+16,2.046630166080677e+16,1321218182938.2004,0.0,0.0,0.0,0.0,0.0
3152473.4095520885,2.0464980442623796e+16,2.046630166080677e+16,1321218182938.2004,0.0,0.0,0.0,0.0,0.0
3467720.8505072976,2.0464980442623796e+16,2.046630166080677e+16,1321218182938.2004,0.0,0.0,0.0,0.0,0.0
3814493.0355580277,2.0464980442623796e+16,2.046630166080677e+16,1321218182938.2004,0.0,0.0,0.0,0.0,0.0
4195942.439113831,2.0464980442623796e+16,2.046630166080677e+16,1321218182938.2004,0.0,0.0,0.0,0.0,0.0
4615536.783025214,2.0464980442623796e+16,2.046630166080677e+16,1321218182938.2004,0.0,0.0,0.0,0.0,0.0
5077090.561327737,2.0464980442623796e+16,2.046630166080677e+16,1321218182938.2004,0.0,0.0,0.0,0.0,0.0
5584799.717460511,2.0464980442623796e+16,2.046630166080677e+16,1321218182938.2004,0.0,0.0,0.0,0.0,0.0
6143279.789206563,2.0464980442623796e+16,2.046630166080677e+16,1321218182938.2004,0.0,0.0,0.0,0.0,0.0
6757607.868127219,2.0464980442623796e+16,2.046630166080677e+16,1321218182938.2004,0.0,0.0,0.0,0.0,0.0
7433368.754939942,2.0464980442623796e+16,2.046630166080677e+16,1321218182938.2004,0.0,0.0,0.0,0.0,0.0
8176705.730433936,2.0464980442623796e+16,2.046630166080677e+16,1321218182938.2004,0.0,0.0,0.0,0.0,0.0
8994376.40347733,2.0464980442623796e+16,2.046630166080677e+16,1321218182938.2004,0.0,0.0,0.0,0.0,0.0
9893814.143825063,2.0464980442623796e+16,2.046630166080677e+16,1321218182938.2004,0.0,0.0,0.0,0.0,0.0
10883195.658207571,2.0464980442623796e+16,2.046630166080677e+16,1321218182938.2004,0.0,0.0,0.0,0.0,0.0
11971515.32402833,2.0464980442623796e+16,2.046630166080677e+16,1321218182938.2004,0.0,0.0,0.0,0.0,0.0
13168666.956431163,2.0464980442623796e+16,2.046630166080677e+16,1321218182938.2004,0.0,0.0,0.0,0.0,0.0
14485533.75207428,2.0464980442623796e+16,2.046630166080677e+16,1321218182938.2004,0.0,0.0,0.0,0.0,0.0
15934087.22728171,2.0464980442623796e+16,2.046630166080677e+16,1321218182938.2004,0.0,0.0,0.0,0.0,0.0
17527496.050009884,2.0464980442623796e+16,2.046630166080677e+16,1321218182938.2004,0.0,0.0,0.0,0.0,0.0
19280245.755010873,2.0464980442623796e+16,2.046630166080677e+16,1321218182938.2004,0.0,0.0,0.0,0.0,0.0
21208270.430511963,2.0464980442623796e+16,2.046630166080677e+16,1321218182938.2004,0.0,0.0,0.0,0.0,0.0
23329097.573563162,2.0464980442623796e+16,2.046630166080677e+16,1321218182938.2004,0.0,0.0,0.0,0.0,0.0
25662007.43091948,2.0464980442623796e+16,2.046630166080677e+16,1321218182938.2004,0.0,0.0,0.0,0.0,0.0
28228208.27401143,2.0464980442623796e+16,2.046630166080677e+16,1321218182938.2004,0.0,0.0,0.0,0.0,0.0
31051029.201412573,2.0464980442623796e+16,2.046630166080677e+16,1321218182938.2004,0.0,0.0,0.0,0.0,0.0
31536000.0,2.0464980442623796e+16,2.046630166080677e+16,1321218182938.2004,0.0,0.0,0.0,0.0,0.0
