t(s),Total solute volume 1,Total retention volume 1,Total 1 volume 1,Total 2 volume 1,Total 3 volume 1,Total 4 volume 1,Total 5 volume 1,Total 6 volume 1
0.1,839524706393360.9,941664656952722.2,50673114377222.37,51466836182138.266,0.0,0.0,0.0,0.0
0.202,1227500100146479.5,1449931517102940.8,74091033391509.34,75251563605339.83,185203688492.0895,310174394485.8424,3660264553982.098,68933177322651.76
0.30604000000000003,1497745653862735.8,1860087817566677.5,90402862908478.62,91818894674155.19,456393222530.1455,764437921404.4481,9020955319702.578,169878619657672.38
0.41216080000000005,1707416902943891.8,2226199578310491.2,103058470455947.64,104672734266445.5,788111395423.6812,1320195601750.3604,15579450553550.682,293363713093480.75
0.5204040160000001,1878660775760090.8,2568085912007800.5,113394628889515.64,115170793884282.83,1167624996354.081,1956152184686.9856,23084475614319.453,434651460678550.94
0.6308120963200001,2022860482803579.0,2895436487821647.0,122098420702725.64,124010918188918.83,1587127330859.45,2659258590939.1562,31382062983583.98,590838217221042.2
0.7434283382464002,2146811945478822.8,3213791426544398.5,129580042880393.19,131609729315502.33,2041335688344.392,3420690321581.427,40368096149234.94,759959586710514.4
0.8582969050113283,2254967110609518.0,3526652535317467.5,136108211767867.72,138240152667232.42,2526464835834.482,4234129368877.5034,49968035787283.08,940608430280849.9
0.9754628431115548,2350432188527187.5,3836395847295796.0,141870416012501.03,144092613633342.3,3039701971882.2075,5094885521906.345,60126551066360.3,1131739490562608.2
1.094972099973786,2435475337492524.0,4144722265107241.5,147003560034426.28,149306161046155.88,3578905577621.6436,5999392427644.179,70801573155745.08,1332557335373115.8
1.2168715419732616,2511810623990192.5,4452902312445899.0,151611103668090.3,153985875290642.1,4142418453808.19,6944894762321.847,81960603867967.6,1542446792412868.5
1.3412089728127268,2580768582437382.0,4761918931149336.0,155773357025010.38,158213324421504.53,4728944739328.214,7929242480760.119,93578287834456.6,1760927192210888.5
1.4680331522689813,2643404496475568.0,5072555593335185.0,159554016275565.78,162053202318655.06,5337465382362.761,8950749415980.074,105634744019286.34,1987620919447770.0
1.597393815314361,2700570252343941.5,5385453177534545.0,163004500667534.22,165557733638955.22,5967178005615.926,10008092700447.717,118114378929812.19,2222231041248237.2
1.729341691620648,2752963772784377.0,5701148070583743.0,166166936321454.72,168769704348465.3,6617452925347.515,11100239218668.598,131005018797598.62,2464524946187835.0
1.863928525453061,2801164062383721.5,6020098499927202.0,169076271542572.1,171724610167732.1,7287800246318.888,12226390593584.215,144297260458165.62,2714322104535114.0
2.001207095962122,2845656688622752.5,6342703221384659.0,171761814838832.97,174452218680637.88,7977844772523.741,13385941251404.506,157983976556233.66,2971484736662268.0
2.1412312378813647,2886852713093019.5,6669315089187750.0,174248377595682.4,176977729907562.28,8687306567921.134,14578445940916.906,172059932313866.62,3235910583768787.5
2.284055862638992,2925103020964615.5,7000251109185057.0,176557138992544.56,179322654769547.6,9415985686301.988,15803594229480.814,186521484623772.44,3507527229918793.5
2.4297369798917723,2960709344792010.0,7335800019585779.0,178706311391910.94,181505490899753.8,10163750032476.945,17061190239321.021,201366342978610.34,3786287589251688.0
2.578331719489608,2993932867109507.0,7676228098218144.0,180711659585880.3,183542250023253.72,10930525611828.514,18351136381123.08,216593377569129.78,4072166281937429.0
2.7298983538794,3025001018974738.0,8021783674808765.0,182586911151417.22,185446874739919.34,11716288626392.668,19673420178467.53,232202463855064.94,4365156697282760.0
2.884496320956988,3054112913692786.5,8372700682514506.0,184344084426071.97,187231571637416.16,12521059015811.227,21028103511183.426,248194355680311.75,4665268594550915.0
3.0421862473761276,3081443733872691.5,8729201486409155.0,185993753307593.56,188907080238520.22,13344895141071.105,22415313772313.78,264570580969897.6,4972526129107060.0
3.2030299723236504,3107148305930088.0,9091499160743088.0,187545263008371.4,190482892135045.7,14187889380885.586,23835236553744.402,281333355466518.84,5286966218268443.0
3.3670905717701234,3131364036776328.0,9459799341011256.0,189006907311897.7,191967431020776.16,15050164463335.047,25288109563830.86,298485511006110.2,5608637180868950.0
3.5344323832055258,3154213344808733.0,9834301744528084.0,190386075305612.56,193368201722673.78,15931870394612.6,26774217545986.51,316030435606351.7,5937597599144106.0
3.7051210308696363,3175805686265694.0,1.0215201430026004e+16,191689373690259.47,194691914426031.25,16833181876243.166,28293888016592.62,333972023224872.3,6273915362526328.0
3.879223451487029,3196239255088621.0,1.0602689849946868e+16,192922729382341.3,195944588884050.03,17754296124614.4,29847487678183.984,352314631487551.8,6617666861301512.0
4.0568079205167695,3215602417304776.5,1.0996955736699434e+16,194091476092450.8,197131642352298.62,18695431023933.88,31435419392768.703,371063046028317.5,6968936304504894.0
4.237944078927105,3233974928003534.5,1.1398185854928432e+16,195200427781088.03,198257964195109.06,19656823557132.09,33058119622569.566,390222450346590.25,7327815141422400.0
4.422702960505647,3251428969098391.0,1.1806565644897574e+16,196253941297244.56,199327979505303.84,20638728469724.35,34716056263033.06,409798400295633.9,7694401569968261.0
4.61115701971576,3268030038452732.5,1.2222279776814262e+16,197255970045396.7,200345703611809.6,21641417129922.465,36409726806802.0,429796802478549.0,8068800118289055.0
4.803380160110075,3283837715026561.0,1.2645512631877184e+16,198210110169219.66,201314788986768.97,22665176554866.86,38139656788356.97,450223895958551.2,8451121288392849.0
4.9994477633122765,3298906320060431.5,1.3076448722700204e+16,199119640460181.06,202238565779250.1,23710308578110.13,39906398467841.19,471086236794092.0,8841481252560282.0
5.199436718578522,3313285490646721.0,1.3515273063324814e+16,199987556977895.38,203120076977872.22,24777129137726.523,41710529719676.66,492390684993142.44,9240001594871776.0
5.403425452950093,3327020679121605.5,1.3962171497117054e+16,200816603193065.12,203962109025901.72,25865967667850.03,43552653097327.17,514144393548729.0,9646809091462582.0
5.611493962009095,3340153589375315.5,1.44173309893282e+16,201609296322862.4,204767218569132.78,26977166579243.426,45433395050244.73,536354799273084.7,1.0062035524158306e+16
5.823723841249277,3352722559295701.0,1.4880939889890106e+16,202367950414946.53,205537755901488.78,28111080816789.336,47353405272871.41,559029615193026.44,1.0485817522995296e+16
6.040198318074262,3364762897034175.0,1.535318817104835e+16,203094696644240.1,206275885579712.1,29268077483675.766,49313356168723.555,582176824306398.5,1.0918296433831426e+16
6.261002284435747,3376307177538810.0,1.5834267643654796e+16,203791501211456.03,206983604602251.9,30448535523610.766,51313942415194.95,605804674530238.5,1.1359618207833222e+16
6.486222330124463,3387385504780483.0,1.632437215530888e+16,204460181170877.88,207662758484961.72,31652845453687.684,53355880616880.93,629921674696844.2,1.1809933310105172e+16
6.715946776726952,3398025744257897.0,1.6823697773020744e+16,205102418464201.47,208315055514760.8,32881409141604.066,55439909037037.75,654536591475364.6,1.2269396645129912e+16
6.950265712261491,3408253729673432.0,1.7332442952645456e+16,205719772395340.44,208942079419838.88,34134639621838.293,57566787398299.99,679658447114255.2,1.2738167497022464e+16
7.18927102650672,3418093447094105.0,1.7850808696991308e+16,206313690746251.0,209545300659597.44,35412960946143.49,59737296745053.42,705296517915103.4,1.3216409482885054e+16
7.433056447036854,3427567199430585.0,1.8378998704215324e+16,206885519704768.78,210126086507990.0,36716808064359.734,61952239360935.61,731460333360896.1,1.3704290517785784e+16
7.681717575977592,3436695753663535.5,1.8917219507881332e+16,207436512751086.66,210685710079193.47,38046626732082.36,64212438735843.77,758159675832608.1,1.4201982790086996e+16
7.935351927497144,3445498472907100.0,1.946568060985544e+16,207967838629012.12,211225358423723.88,39402873442185.57,66518739577602.12,785404580857056.0,1.4709662746018782e+16
8.194058966047088,3453993435112866.0,2.0024594607047016e+16,208480588510852.3,211746139805552.28,40786015377585.664,68872007864098.02,813205337836749.9,1.5227511082539364e+16
8.45794014536803,3462197539974910.5,2.059417731286308e+16,208975782450131.44,212249090255888.94,42196530382966.31,71273130932262.64,841572491219139.2,1.5755712747647734e+16
8.72709894827539,3470126605390258.5,2.1174647874123828e+16,209454375203871.28,212735179486668.62,43634906953467.23,73723017600747.3,870516842068338.5,1.629445694742055e+16
9.0016409272409,3477795454653250.0,2.1766228884090024e+16,209917261495581.72,213205316235972.4,45101644238584.73,76222598323570.62,900049450007290.5,1.6843937159135758e+16
9.281673745785717,3485217995411790.5,2.236914649216123e+16,210365280781006.7,213660353108423.8,46597252059741.38,78772825372359.6,930181635502604.4,1.7404351149925296e+16
9.567307220701432,3492407291284620.0,2.2983630510739596e+16,210799221570886.88,214101090965664.88,48122250940163.72,81374673045126.48,960924982467948.0,1.797590100046523e+16
9.85865336511546,3499375626927671.0,2.3609914519683244e+16,211219825358324.38,214528282915233.03,49677172145857.4,84029137899784.0,992291341165008.2,1.8558793133271412e+16
10.155826432417769,3506134567241923.5,2.424823596872482e+16,211627790192522.62,214942637940278.75,51262557736615.04,86737239010839.88,1024292831383872.0,1.9153238345218744e+16
10.458942961066125,3512695011332536.0,2.4898836278183704e+16,212023773935721.84,215344824207521.06,52878960626093.47,89500018247913.86,1056941845887017.9,1.975945184394692e+16
10.768121820287448,3519067241757011.5,2.5561960938259004e+16,212408397235785.62,215735472086389.53,54526944650113.86,92318540574894.66,1090251054103258.4,2.0377653287851588e+16
11.083484256693197,3525260969538346.0,2.623785960715779e+16,212782246243160.22,216115176908543.66,56207084642412.695,95193894368714.7,1124233406059789.5,2.1008066829396844e+16
11.405153941827061,3531285375364352.0,2.6926786208281924e+16,213145875097635.2,216484501493587.1,57919966517159.48,98127191756858.1,1158902136542176.0,2.165092116151016e+16
11.733257020663602,3537149147347213.0,2.7628999026670636e+16,213499808207489.6,216843978463907.8,59666187357611.83,101119568972827.33,1194270769473459.5,2.230644956684806e+16
12.067922161076874,3542860515676040.5,2.8344760804874144e+16,213844542341086.34,217194112369039.84,61446355510347.81,104172186728919.31,1230353122504914.2,2.297488996974377e+16
12.409280604298411,3548427284458441.0,2.9074338838412004e+16,214180548548815.22,217535381637709.0,63261090684557.13,107286230605732.25,1267163311812059.5,2.3656484990664764e+16
12.75746621638438,3553856861015758.5,2.981800507095351e+16,214508273931329.22,217868240373762.7,65111024055920.49,110462911457931.98,1304715757090544.5,2.4351482003028284e+16
13.112615540712067,3559156282868205.5,3.0576036189340172e+16,214828143268344.6,218193120010490.44,66996798374644.78,113703465835858.84,1343025186747357.2,2.5060133192235252e+16
13.474867851526309,3564332242621374.0,3.134871371855921e+16,215140560520778.97,218510430836282.6,68919068077251.26,117009156422641.81,1382106643283776.5,2.5782695616797084e+16
13.844365208556836,3569391110944010.0,3.2136324116761616e+16,215445910217670.72,218820563403279.0,70878499401748.78,120381272486529.58,1421975488866929.5,2.651943127144143e+16
14.221252512727972,3574338957807365.5,3.2939158870408456e+16,215744558738169.88,219123889829437.88,72875770505840.58,123821130348212.44,1462647411087676.0,2.7270607152091664e+16
14.605677562982532,3579181572139297.5,3.375751458962081e+16,216036855497847.9,219420765003430.5,74911571587845.45,127330073862952.53,1504138428903068.2,2.803649532262632e+16
14.997791114242183,3583924480031252.0,3.459169310379686e+16,216323134047657.16,219711527700811.25,76986605010017.38,130909474917379.42,1546464898762049.2,2.8817372983327664e+16
15.397746936527026,3588572961622532.0,3.5442001557553864e+16,216603713093053.62,219996501619102.6,79101585423982.78,134560733940856.53,1589643520913728.8,2.961352254094065e+16
15.805701875257567,3593132066774284.0,3.6308752507045096e+16,216878897440067.0,220275996338689.4,81257239898009.23,138285280431345.81,1633691345897739.2,3.0425231680264932e+16
16.221815912762718,3597606629634955.5,3.7192264016693496e+16,217148978874461.0,220550308215745.1,83454308045839.89,142084573495746.94,1678625781216882.8,3.1252793437209836e+16
16.64625223101797,3602001282189146.5,3.809285975638065e+16,217414236979534.44,220819721212843.7,85693542156842.08,145960102404694.6,1724464598192338.8,3.2096506273245308e+16
17.079177275638333,3606320466873501.0,3.9010869099121496e+16,217674939897607.1,221084507672373.0,87975707327211.14,149913387161850.53,1771225939002286.2,3.2956674151186664e+16
17.5207608211511,3610568448335283.5,3.99466272192495e+16,217931345039755.44,221344929037389.0,90301581591992.1,153945979087726.75,1818928323904892.8,3.3833606612252452e+16
17.97117603757412,3614749324402565.5,4.090047519113684e+16,218183699747970.12,221601236524142.2,92671956057676.92,158059461418115.6,1867590658647113.8,3.47276188543393e+16
18.430599558325603,3618867036328661.0,4.187276008846249e+16,218432241913499.75,221853671750113.06,95087635035140.84,162255449917214.88,1917232242060820.5,3.563903181145716e+16
18.899211549492115,3622925378367988.0,4.286383508404318e+16,218677200554845.3,222102467321048.22,97549436172685.5,166535593505561.78,1967872773848147.2,3.656817223427297e+16
19.37719578048196,3626928006735228.0,4.38740595502335e+16,218918796358525.88,222347847380210.5,100058190588954.72,170901574902899.3,2019532362558146.2,3.751537277170953e+16
19.864739696091597,3630878447995534.0,4.490379915990141e+16,219157242185507.72,222590028122729.2,102614743005490.53,175355111286122.84,2072231533757072.0,3.848097205354887e+16
20.36203449001343,3634780106929027.0,4.595342598797786e+16,219392743545899.6,222829218277737.44,105219951878694.36,179897954962469.56,2125991238394778.0,3.946531477398937e+16
20.869275179813698,3638636273909457.5,4.702331861357916e+16,219625499044321.47,223065619560715.97,107874689530964.52,184531894058119.12,2180832861369977.0,4.046875177610572e+16
21.38666068340997,3642450131833381.0,4.811386222269352e+16,219855700798148.44,223299427098283.84,110579842280762.34,189258753222409.66,2236778230297249.5,4.149164013716334e+16
21.91439389707817,3646224762633173.0,4.922544871142418e+16,220083534830627.34,223530829827478.78,113336310571377.1,194080394347849.12,2293849624478900.5,4.2534343254734776e+16
22.452681775019734,3649963153404538.5,5.0358476789773816e+16,220309181440733.56,223760010871403.78,116145009098138.2,198998717306163.44,2352069784084928.5,4.359723093356788e+16
23.00173541052013,3653668202176718.0,5.15133520859547e+16,220532815551450.72,223987147892961.5,119006866933830.02,204015660700585.78,2411461919544546.5,4.468067947315472e+16
23.561770118730532,3657342723350985.5,5.269048725120479e+16,220754607038039.7,224212413428269.66,121922827652056.88,209133202634643.75,2472049721152787.0,4.578507175594804e+16
24.133005521105144,3660989452831576.0,5.389030206508531e+16,220974721037736.7,224435975201202.12,124893849448293.72,214353361497674.7,2533857368896060.0,4.691079733617286e+16
24.715665631527248,3664611052870678.0,5.511322354123559e+16,221193318242192.06,224657996420417.47,127920905258367.33,219678196767352.38,2596909542500454.5,4.8058252529176056e+16
25.309978944157795,3668210116647868.5,5.635968603355261e+16,221410555173881.0,224878636060092.22,131004982874086.5,225109809829471.88,2661231431706913.0,4.922784050126034e+16
25.91617852304095,3671789172602515.0,5.7630131342766104e+16,221626584447606.25,225098049125523.4,134147085055753.73,230650344815283.62,2726848746777429.5,5.041997135994202e+16
26.53450209350177,3675350688536403.5,5.892500882336863e+16,221841555018130.56,225316386904639.8,137348229641263.92,236301989456671.34,2793787729236702.5,5.1635062244574936e+16
27.165192135371807,3678897075502582.5,6.024477549086552e+16,222055612414901.7,225533797206399.2,140609449651503.25,242066975959454.2,2862075162853653.5,5.287353741727693e+16
27.808495978079243,3682430691494996.5,6.158989612929741e+16,222268898964759.0,225750424586990.3,143931793391744.4,247947581895135.6,2931738384867433.0,5.413582835409637e+16
28.464665897640828,3685953844952703.0,6.296084339899278e+16,222481554003443.22,225966410564649.0,147316324548730.4,253946131111407.16,3002805297462823.0,5.54223738363491e+16
29.133959215593645,3689468798091148.0,6.435809794449881e+16,222693714076670.75,226181893823887.8,150764122283124.44,260064994661729.53,3075304379499739.5,5.673362004206255e+16
29.816638399905518,3692977770072367.5,6.578214850263561e+16,222905513131485.03,226397010409837.6,154276281317004.75,266306591754323.78,3149264698502107.5,5.8070020637448344e+16
30.51297116790363,3696482940024851.5,6.723349201062097e+16,223117082698531.8,226611893913388.12,157853912016059.9,272673390720913.34,3224715922911042.0,5.943203686833614e+16
31.223230591261704,3699986449923270.5,6.8712633714200616e+16,223328552065880.97,226826675647720.97,161498140466144.53,279167910005560.25,3301688334607859.0,6.0820137651484264e+16
31.947695203086937,3703490407337462.5,7.022008727572221e+16,223540048444950.25,227041484816840.3,165210108543826.88,285792719173951.44,3380212841712264.0,6.2234799665692936e+16
32.686649107148675,3706996888059310.5,7.1756374882082376e+16,223751697129061.2,227256448676609.78,168990973980578.94,292550439943494.25,3460320991661324.5,6.36765074426321e+16
33.44038208929165,3710507938615773.0,7.332202735247683e+16,223963621645127.56,227471692688816.22,172841910420211.47,299443747234592.2,3542044984574906.0,6.514575345729767e+16
34.20918973107749,3714025578675612.0,7.491758424587635e+16,224175943898919.62,227687340668710.53,176764107469175.56,306475370243471.7,3625417686913440.0,6.66430382180071e+16
34.993373525699035,3717551803356833.5,7.654359396814467e+16,224388784314342.1,227903514926467.94,180758770739326.66,313648093536948.25,3710472645434034.5,6.816887035583663e+16
35.793240996213015,3721088585441566.5,7.820061387871941e+16,224602261967123.44,228120336402966.94,184827121882741.6,320964758169505.6,3797244101450938.5,6.9723766713404584e+16
36.60910581613728,3724637877504465.0,7.98892103967622e+16,224816494713279.47,228337924800271.25,188970398618163.88,328428262823104.44,3885767005406685.0,7.1308252432896264e+16
37.44128793246003,3728201613960336.5,8.160995910668414e+16,225031599312715.5,228556398707163.75,193189854748638.16,336041564970088.1,3976077031760200.5,7.292286104322522e+16
38.29011369110923,3731781713036645.5,8.336344486295235e+16,225247691548276.75,228775875720063.0,197486760169895.66,343807682059627.8,4068210594198444.5,7.45681345462194e+16
39.15591596493141,3735380078675603.0,8.515026189406731e+16,225464886340561.2,228996472559635.88,201862400869022.25,351729692728084.4,4162204861178125.0,7.624462350171624e+16
40.03903428423004,3738998602370897.5,8.697101390561086e+16,225683297858785.78,229218305183395.1,206318078912943.56,359810738033723.75,4258097771804228.5,7.795288711144694e+16
40.93981496991464,3742639164943325.0,8.882631418224534e+16,225903039627953.94,229441488894555.4,210855112426244.8,368054022716199.8,4355928052052315.5,7.969349330158467e+16
41.85861126931294,3746303638259491.5,9.071678568855038e+16,226124224632605.94,229666138447395.38,215474835557824.47,376462816481216.0,4455735231341459.0,8.146701880383046e+16
42.7957834946992,3749993886897682.5,9.264306116856878e+16,226346965417360.47,229892368149387.75,220178598435875.84,385040455310829.94,4557559659465025.0,8.327404923489283e+16
43.751699164593184,3753711769764323.0,9.460578324393909e+16,226571374184487.62,230120291960289.94,224967767110685.94,393790342799788.0,4661442523886445.0,8.511517917423306e+16
