t(s),Total solute volume 1,Total retention volume 1,Total 1 volume 1,Total 2 volume 1,Total 3 volume 1,Total 4 volume 1,Total 5 volume 1,Total 6 volume 1
0.1,1373795654025336.8,3540173632894849.0,759959875137435.1,1406418103732074.5,0.0,0.0,0.0,-1.66771727949885e-108
0.202,2058059658022411.8,5305426234073403.0,1138482910446042.5,2106931711427419.8,305470262.3556455,1286744588.59745,58617447654.3485,1891744515021.5977
0.30604000000000003,2581617786475701.5,6657709601597178.0,1428106197282796.5,2642922711865548.5,774020302.9247841,3260553783.159154,148872596671.73056,4909998802373.465
0.41216080000000005,3024643153368859.5,7803372436325592.0,1673180151952706.5,3096468509128662.0,1373911463.7485328,5787673962.202908,264502717193.74234,8808957572739.46
0.5204040160000001,3417972035551121.5,8821771666122791.0,1890762871517908.2,3499137677700204.5,2090926240.8933942,8808204913.12242,402745191363.9824,13485437031043.635
0.6308120963200001,3777061097414544.5,9752682882325376.0,2089404715574444.8,3866753936390758.5,2917394353.834513,12289831998.167046,562113734704.658,18885811984563.254
0.7434283382464002,4110915989941180.5,1.0619281649383672e+16,2274087454398567.5,4208536794094978.5,3848894079.1471167,16213926877.823904,741752268652.7947,24979595859337.445
0.8582969050113283,4425313173500695.5,1.1436435586555508e+16,2448006525839020.5,4530399884542281.0,4882893279.089655,20569821894.714523,941170612606.1827,31749379345731.22
0.9754628431115548,4724213738558432.0,1.2214342791365044e+16,2613353136524393.5,4836398361769327.0,6018078894.245067,25351985203.874447,1160114424212.256,39186070024588.66
1.094972099973786,5010470856978563.0,1.2960352234332206e+16,2771705611694174.0,5129453151468852.0,7253985224.199646,30558454738.614586,1398493193819.3247,47286308556846.15
1.2168715419732616,5286218791267841.0,1.3679964628341424e+16,2924244588382024.0,5411749198086007.0,8590770334.681814,36189896236.81946,1656336967203.131,56050932971755.234
1.3412089728127268,5553102590458543.0,1.437742333686449e+16,3071880079202283.0,5684970615296529.0,10029073236.449059,42249001555.07435,1933768716493.9033,65484005115854.41
1.4680331522689813,5812421497326506.0,1.5056083257718542e+16,3215330802739726.5,5950447498710638.0,11569918389.532324,48740086360.30947,2230985873082.402,75592163063839.81
1.597393815314361,6065222596338604.0,1.571865168712309e+16,3355175987972094.5,6209251797670363.0,13214649543.203362,55668811409.29921,2548247536952.133,86384174144111.22
1.729341691620648,6312364271778933.0,1.6367351519959948e+16,3491890478206203.0,6462262280308225.0,14964882606.78466,63041984002.35623,2885865367098.1143,97870617432879.89
1.863928525453061,6554560562213891.0,1.7004035310654694e+16,3625869267199538.0,6710209941291341.0,16822471339.571095,70867413441.86234,3244196950812.544,110063653114325.97
2.001207095962122,6792412990493007.0,1.7630267121378036e+16,3757445106965166.0,6953710587683858.0,18789481954.108627,79153804041.20036,3623640896186.5913,122976852053829.02
2.1412312378813647,7026433930350175.0,1.8247382604844188e+16,3886901433770629.0,7193288760430593.0,20868174088.25915,87910674964.18532,4024633155665.453,136625068288077.11
2.284055862638992,7257064102274344.0,1.885653399091343e+16,4014482046550372.0,7429395645698678.0,23060986437.298054,97148299696.29387,4447644250230.402,151024342853678.12
2.4297369798917723,7484685902970716.0,1.9458724360720396e+16,4140398480532707.0,7662422720870761.0,25370525868.16926,106877660185.50806,4893177166481.19,166191830993661.97
2.578331719489608,7709633717828943.0,2.005483416452586e+16,4264835711918421.5,7892712311901034.0,27799559185.24908,117110412153.4088,5361765766049.722,182145747140072.16
2.7298983538794,7932202009315345.0,2.0645642022442852e+16,4387956632239199.0,8120565873780789.0,30351006949.991066,127858859058.81932,5853973591834.959,198905323649682.38
2.884496320956988,8152651739402861.0,2.1231841243227284e+16,4509905601134551.0,8346250565480275.0,33027938916.78708,139135932870.214,6370392986477.535,216490780351332.16
3.0421862473761276,8371215526030947.0,2.18140530896355e+16,4630811298816016.0,8570004528857836.0,35833570759.43748,150955180275.17224,6911644460154.192,234923302719515.56
3.2030299723236504,8588101824962412.0,2.2392837539485304e+16,4750789039397909.0,8792041169822298.0,38771261842.55228,163330753291.8861,7478376260222.301,254225027027342.88
3.3670905717701234,8803498352427412.0,2.2968702096171384e+16,4869942664244622.0,9012552662253668.0,41844513850.156204,176277403491.87787,8071264106444.988,274419031221858.38
3.5344323832055258,9017574909928666.0,2.3542109063485224e+16,4988366104603913.0,9231712839888260.0,45056970126.417366,189810479222.7229,8691011063768.827,295529330551231.44
3.7051210308696363,9230485733602882.0,2.41134815993642e+16,5106144681232902.0,9449679601469854.0,48412415615.221375,203945925353.57394,9338347530771.703,317580877186804.7
3.879223451487029,9442371462019890.0,2.4683208789881036e+16,5223356192950476.0,9666596925277652.0,51914777309.33031,218700285167.44952,10014031326539.215,340599563244016.9
4.0568079205167695,9653360795180084.0,2.525164993048613e+16,5340071834365914.0,9882596567519516.0,55568125138.205925,234090704101.51337,10718847862271.6,364612226729093.1
4.237944078927105,9863571901643842.0,2.5819138160826428e+16,5456356974278425.0,1.009779950287603e+16,59376673237.728775,250134935096.19254,11453610386656.977,389646660033131.2
4.422702960505647,1.007311361873947e+16,2.6385983568652784e+16,5572271819611450.0,1.0312317153209732e+16,63344781556.07322,266851345360.4513,12219160296177.951,415731620669014.44
4.61115701971576,1.028208648162769e+16,2.6952475854756956e+16,5687871984673253.0,1.052625244106615e+16,67476957758.66863,284258924397.0417,13016367503192.96,442896844004519.44
4.803380160110075,1.0490583609920668e+16,2.751888663268678e+16,5803208981619195.0,1.0739700697347466e+16,71777859402.0484,302377293160.5246,13846130855961.852,471173057790944.3
4.9994477633122765,1.069869147504255e+16,2.8085471422819812e+16,5918330644942321.0,1.095275044689524e+16,76252296351.88136,321226714243.9833,14709378605845.281,500591998323254.5
5.199436718578522,1.0906490567190416e+16,2.8652471389255904e+16,6033281500424556.0,1.116548409128947e+16,80905233424.89932,340828103008.9538,15607068917762.219,531186428097258.44
5.403425452950093,1.1114055977332622e+16,2.922011485919494e+16,6148103087088122.0,1.1377978504667504e+16,85741793238.01045,361203039588.2099,16540190420680.02,562990154853214.0
5.611493962009095,1.1321457906955044e+16,2.978861865745982e+16,6262834239178319.0,1.159030555557525e+16,90767259250.81677,382373781703.29645,17509762795476.666,596038051914783.1
5.823723841249277,1.1528762116080292e+16,3.0358189283208864e+16,6377511333999971.0,1.1802532565625148e+16,95987078990.13724,404363278248.84106,18516837397976.957,630366079748214.9
6.040198318074262,1.1736030318320078e+16,3.0929023951349696e+16,6492168510453529.0,1.201472271392989e+16,101406867447.12207,427195183603.94934,19562497915345.44,666011308679813.1
6.261002284435747,1.1943320530289748e+16,3.150131151748771e+16,6606837862325238.0,1.2226935394814384e+16,107032410639.17743,450893872637.9266,20647861054335.78,703011942720727.9
6.486222330124463,1.2150687381545142e+16,3.2075233302239412e+16,6721549609738682.0,1.2439226535112554e+16,112869669330.2849,475484456383.2895,21774077260159.867,741407344457147.5
6.715946776726952,1.2358182390242068e+16,3.265096382827794e+16,6836332251644946.0,1.2651648876372986e+16,118924782904.4416,500992798353.8486,22942331464960.445,781238060971682.0
6.950265712261491,1.2565854208928648e+16,3.3228671481445028e+16,6951212701790627.0,1.286425222648771e+16,125204073387.90883,527445531489.71185,24153843865056.195,822545850768076.1
7.18927102650672,1.2773748844223816e+16,3.380851910558015e+16,7066216410240142.0,1.3077083684587726e+16,131714049616.76338,554870075714.415,25409870726284.832,865373711676864.2
7.433056447036854,1.2981909853590734e+16,3.4390664539315856e+16,7181367472227508.0,1.3290187842488932e+16,138461411546.9357,583294656092.3447,26711705216903.06,909765909724127.5
7.681717575977592,1.3190378521956718e+16,3.497526110191553e+16,7296688725859233.0,1.3503606965506218e+16,145453054704.49686,612748321577.0028,28060678267613.125,955768008949478.1
7.935351927497144,1.339919402054792e+16,3.5562458034247104e+16,7412201839979019.0,1.371738115506e+16,152696074774.45425,643260964342.8114,29458159458383.52,1003426902162650.2
8.194058966047088,1.3608393549984964e+16,3.615240090015556e+16,7527927393325813.0,1.3931548495169878e+16,160197772326.7439,674863339694.893,30905557931811.156,1052790842631024.2
8.45794014536803,1.3818012469411406e+16,3.674523195279605e+16,7643884945965330.0,1.4146145184649492e+16,167965657678.4567,707587086552.8141,32404323332844.27,1103909476692757.0
8.72709894827539,1.4028084413195462e+16,3.734109046989401e+16,7760093103847506.0,1.4361205656579532e+16,176007455891.66333,741464748505.5789,33955946774743.91,1156833877292382.0
9.0016409272409,1.423864139654771e+16,3.79401130613897e+16,7876569577232386.0,1.457676268643357e+16,184331111906.44888,776529795436.2732,35561961831213.695,1211616578437476.2
9.281673745785717,1.4449713911228306e+16,3.854243395249251e+16,7993331233633628.0,1.4792847490057818e+16,192944795809.01663,812816645715.7178,37223945554671.85,1268311610576575.0
9.567307220701432,1.4661331012372192e+16,3.914818524479722e+16,8110394145848770.0,1.5009489812558484e+16,201856908234.89243,850360688965.3347,38943519520676.94,1326974536899903.8
9.85865336511546,1.4873520397336636e+16,3.975749715779355e+16,8227773635576275.0,1.522671800902135e+16,211076085907.4465,889198309390.0667,40722350898550.13,1387662490565484.0
10.155826432417769,1.5086308477367336e+16,4.037049825282692e+16,8345484313060015.0,1.54445591178799e+16,220611207312.0843,929366909682.8861,42562153548266.55,1450434212854406.0
10.458942961066125,1.5299720442786618e+16,4.098731564132573e+16,8463540113150231.0,1.5663038927651516e+16,230471398506.5709,970904935502.8302,44464689143708.39,1515350092259642.2
10.768121820287448,1.5513780322326622e+16,4.160807517890754e+16,8581954328125625.0,1.588218203767957e+16,240666039068.06818,1013851900529.0024,46431768322396.15,1582472204513716.0
11.083484256693197,1.5728511037159816e+16,4.2232901646792184e+16,8700739637582128.0,1.6102011913447108e+16,251204768177.5352,1058248412093.2964,48465251861824.875,1651864353560982.8
11.405153941827061,1.5943934450118976e+16,4.286191892179655e+16,8819908135660456.0,1.6322550936965398e+16,262097490842.22174,1104136197394.8938,50567051882553.414,1723592113480890.2
11.733257020663602,1.6160071410543714e+16,4.3495250136045816e+16,8939471355854576.0,1.654382045268573e+16,273354384257.03418,1151558130299.8542,52739133078198.22,1797722871368987.5
12.067922161076874,1.6376941795145956e+16,4.413301782741702e+16,9059440293617656.0,1.676584080933514e+16,284985904305.5963,1200558258729.2314,54983513972496.04,1874325871182745.5
12.409280604298411,1.6594564545243808e+16,4.477534408162542e+16,9179825426959210.0,1.6988631398034398e+16,297002792201.86896,1251181832639.3818,57302268203606.6,1953472258559618.2
12.75746621638438,1.681295770067828e+16,4.542235066677065e+16,9300636735207328.0,1.7212210687020418e+16,309416081273.20215,1303475332598.1387,59697525835827.53,2035235126614857.0
13.112615540712067,1.7032138430695418e+16,4.607415916107742e+16,9421883716092048.0,1.7436596253261376e+16,322237103885.72546,1357486498960.636,62171474698900.06,2119689562726889.2
13.474867851526309,1.7252123062047584e+16,4.6730891074496904e+16,9543575401290532.0,1.7661804811225592e+16,335477498512.96027,1413264361648.607,64726361755084.91,2206912696318001.2
13.844365208556836,1.7472927104543854e+16,4.7392667964763256e+16,9665720370561026.0,1.788785223903854e+16,349149216948.56696,1470859270536.8682,67364494494183.016,2296983747638227.5
14.221252512727972,1.7694565274256706e+16,4.805961154845317e+16,9788326764580648.0,1.8114753602240724e+16,363264531664.1187,1530322926450.849,70088242356682.12,2389984077560321.5
14.605677562982532,1.7917051514573206e+16,4.8731843807536696e+16,9911402296590146.0,1.8342523175338492e+16,377836043312.7462,1591708412778.7256,72900038185199.12,2485997238393613.0
14.997791114242183,1.814039901526078e+16,4.940948709186978e+16,1.0034954262941114e+16,1.857117446132303e+16,392876688379.5527,1655070227701.8357,75802379704389.83,2585109025724382.0
15.397746936527026,1.836462022970339e+16,5.009266421803333e+16,1.0158989552630582e+16,1.8800720209315344e+16,408399746979.5699,1720464317046.793,78797831029487.77,2687407531290533.5
15.805701875257567,1.8589726890449144e+16,5.078149856489392e+16,1.0283514655901608e+16,1.9031172430483308e+16,424418850804.0794,1787948107762.6445,81889024203633.8,2792983196897748.0
16.221815912762718,1.881573002319844e+16,5.1476114166224056e+16,1.040853567198144e+16,1.9262542412362216e+16,440947991216.03595,1857580542026.2444,85078660764141.5,2901928869384588.5
16.64625223101797,1.9042639959351212e+16,5.217663580069382e+16,1.0534058316022448e+16,1.949484073169951e+16,458001527495.2979,1929422111978.7563,88369513337844.14,3014339856643326.0
17.079177275638333,1.927046634722144e+16,5.288318907952227e+16,1.0660087925305522e+16,1.972807726593586e+16,475594195234.3245,2003534895096.156,91764427265654.8,3130313984703373.0
17.5207608211511,1.9499218162018176e+16,5.359590053204839e+16,1.0786629464761756e+16,1.996226120342323e+16,493741114884.93524,2079982590196.1829,95266322256459.86,3249951655883625.5
17.97117603757412,1.9728903714685724e+16,5.431489768946811e+16,1.0913687531862436e+16,2.0197401052474964e+16,512457800456.69226,2158830554084.0762,98878194070462.27,3373355908019928.0
18.430599558325603,1.9959530659686908e+16,5.5040309166958136e+16,1.1041266360924754e+16,2.043350464933385e+16,531760168367.3757,2240145838839.1704,102603116232067.2,3500632474773293.5
18.899211549492115,2.019110600180818e+16,5.5772264744395896e+16,1.1169369826876122e+16,2.067057916513865e+16,551664546445.9695,2323997229744.039,106444241772403.36,3631889847024336.5
19.37719578048196,2.0423636102058996e+16,5.6510895445868184e+16,1.1298001448517854e+16,2.0908631111964096e+16,572187683088.5204,2410455283857.742,110404805001549.86,3767239335358769.0
19.864739696091597,2.0657126682733628e+16,5.725633361814594e+16,1.142716439132497e+16,2.114766634800233e+16,593346756567.1318,2499592369234.2754,114488123310530.45,3906795133648635.0
20.36203449001343,2.089158283169785e+16,5.800871300829267e+16,1.1556861469817704e+16,2.1387690081951544e+16,615159384492.2948,2591482704787.1025,118697599003117.98,4050674383733178.0
20.869275179813698,2.1127009005959496e+16,5.876816884056247e+16,1.1687095149536648e+16,2.1628706876671572e+16,637643633428.6824,2686202400800.244,123036721157481.2,4198997241203057.5
21.38666068340997,2.136340903457836e+16,5.953483789273092e+16,1.1817867548652524e+16,2.1870720652162616e+16,660818028664.44,2783829500086.17,127509067517688.31,4351886942290950.5
21.91439389707817,2.1600786120967324e+16,6.03088585719977e+16,1.1949180439238894e+16,2.2113734687921264e+16,684701564133.9329,2884444019790.2046,132118306415062.75,4509469871871167.0
22.452681775019734,2.183914284463319e+16,6.1090370990586744e+16,1.2081035248235358e+16,2.235775162472219e+16,709313712493.8052,2988127993840.9297,136868198719375.1,4671875632570208.0
23.00173541052013,2.207848116240344e+16,6.1879517041165656e+16,1.2213433058126252e+16,2.2602773465874764e+16,734674435352.1422,3094965516045.698,141762599819832.7,4839237114989932.0
23.561770118730532,2.2318802409183456e+16,6.26764404721977e+16,1.2346374607359254e+16,2.284880157799755e+16,760804193650.4115,3205042783829.8555,146805461635818.4,5011690569044023.0
24.133005521105144,2.2560107298284676e+16,6.348128696333304e+16,1.2479860290527138e+16,2.309583669135483e+16,787723958197.7947,3318448142618.0557,152000834657300.38,5189375676408272.0
24.715665631527248,2.2802395921364156e+16,6.429420420094304e+16,1.261389015833429e+16,2.3343878899794144e+16,815455220357.3906,3435272130855.5024,157352870014828.84,5372435624084394.0
25.309978944157795,2.304566774801282e+16,6.51153419538912e+16,1.2748463917368946e+16,2.3592927660325492e+16,844020002883.7,3555607525666.6724,162865821579014.06,5561017179076376.0
25.91617852304095,2.328992162502986e+16,6.594485214963628e+16,1.288358092970157e+16,2.384298179237749e+16,873440870910.7279,3679549389148.5806,168544048089352.56,5755270764177955.0
26.53450209350177,2.3535155775415944e+16,6.6782888950752264e+16,1.3019240212328378e+16,2.409403947676792e+16,903740943089.8909,3807195115295.359,174392015312263.1,5955350534869293.0
27.165192135371807,2.378136779712199e+16,6.7629608831950744e+16,1.3155440436478746e+16,2.434609825442171e+16,934943902876.8534,3938644477550.3496,180414298228172.2,6161414457319740.0
27.808495978079243,2.4028554661582984e+16,6.8485170657686104e+16,1.3292179926804444e+16,2.4599155024870504e+16,967074009966.3479,4073999676981.7217,186615583247460.53,6373624387493700.0
28.464665897640828,2.427671271207102e+16,6.934973576041913e+16,1.3429456660468282e+16,2.485320604456636e+16,1000156111873.8838,4213365391077.037,193000670455075.34,6592146151355398.0
29.133959215593645,2.4525837661895852e+16,7.022346801961532e+16,1.3567268266149036e+16,2.510824692503995e+16,1034215655663.1776,4356848823151.981,199574475883599.94,6817149626167957.0
29.816638399905518,2.477592459248517e+16,7.110653394154699e+16,1.370561202297908e+16,2.5364272630934356e+16,1069278699818.1073,4504559752367.869,206342033814527.75,7048808822881657.0
30.51297116790363,2.5026967951371224e+16,7.199910273997068e+16,1.3844484859431022e+16,2.5621277477944856e+16,1105371926257.794,4656610584352.44,213308499107507.84,7287301969605430.0
31.223230591261704,2.527896155011467e+16,7.290134641774414e+16,1.3983883352168926e+16,2.5879255130693216e+16,1142522652493.4204,4813116402417.906,220479149557287.75,7532811596155072.0
31.947695203086937,2.553189856219214e+16,7.381343984944939e+16,1.4123803724879866e+16,2.6138198600564636e+16,1180758843925.2937,4974195019369.794,227859388278060.72,7785524619671418.0
32.686649107148675,2.578577152087509e+16,7.473556086508394e+16,1.4264241847100578e+16,2.639810024353668e+16,1220109126278.5037,5139967029900.235,235454746114935.1,8045632431300439.0
33.44038208929165,2.6040572317127868e+16,7.566789033488114e+16,1.4405193233054594e+16,2.665895175802725e+16,1260602798175.686,5310555863558.403,243270884082199.12,8313330983927601.0
34.20918973107749,2.6296292197550336e+16,7.661061225532011e+16,1.4546653040514202e+16,2.692074418278828e+16,1302269843844.9182,5486087838291.045,251313595828062.8,8588820880957191.0
34.993373525699035,2.6552921762391964e+16,7.756391383638123e+16,1.468861606970196e+16,2.7183467894873004e+16,1345140945961.2153,5666692214545.62,259588810125533.78,8872307466128164.0
35.793240996213015,2.6810450963663936e+16,7.85279855901064e+16,1.4831076762246098e+16,2.7447112607702716e+16,1389247498619.628,5852501249928.161,268102593389077.0,9164000914356110.0
36.60910581613728,2.7068869103373064e+16,7.950302142051931e+16,1.4974029200203896e+16,2.7711667369259228e+16,1434621620438.1267,6043650254408.083,276861152216705.22,9464116323591712.0
37.44128793246003,2.7328164831905016e+16,8.048921871495739e+16,1.5117467105167016e+16,2.7977120560429224e+16,1481296167788.3267,6240277646061.651,285870835957127.25,9772873807685190.0
38.29011369110923,2.7588326146580256e+16,8.148677843687218e+16,1.5261383837462732e+16,2.8243459893526332e+16,1529304748152.064,6442525007346.116,295138139301576.4,1.009049859024576e+16
39.15591596493141,2.784934039040841e+16,8.249590522014947e+16,1.5405772395465074e+16,2.8510672411015624e+16,1578681733601.927,6650537141895.851,304669704899956.2,1.041722109948476e+16
40.03903428423004,2.8111194251065532e+16,8.351680746500006e+16,1.5550625415028742e+16,2.8778744484466748e+16,1629462274403.6458,6864462131832.322,314472326000896.94,1.0753277064031918e+16
