t(s),Total solute volume 1,Total retention volume 1,Total 1 volume 1,Total 2 volume 1,Total 3 volume 1,Total 4 volume 1,Total 5 volume 1,Total 6 volume 1
0.1,1383945849202658.0,3981468685541325.0,887646190648165.1,1709876645690502.0,0.0,0.0,0.0,-3.740371093031155e-123
0.202,2058462811928761.8,5976874456359200.0,1320273372815734.8,2543249555019894.0,8584589407.473049,38449941638.156105,1880005835209.7742,52961676228554.88
0.30604000000000003,2565544777075988.5,7523757788545726.0,1645509683824402.2,3169754146409066.0,21612560339.66694,96806983552.46123,4751290156480.046,138079471535901.22
0.41216080000000005,2986634228569227.0,8848397556689883.0,1915591419591555.2,3690014110099997.0,38118277231.40356,170743305696.66708,8393238042051.657,247555698804119.53
0.5204040160000001,3353420649163003.0,1.0038328647780386e+16,2150843839864773.0,4143182155462535.5,57640162025.69371,258190986454.638,12702836130318.012,377863336011273.1
0.6308120963200001,3681879579718918.0,1.1137471569112932e+16,2361513466473707.0,4548996225874068.0,79905735426.33449,357929368140.33856,17619581548661.78,527024880394012.75
0.7434283382464002,3981363483904827.0,1.2171430818330186e+16,2553598858025341.5,4919011381639083.0,104736174989.81377,469157383497.9112,23103853598048.234,693779347604396.1
0.8582969050113283,4257897662472517.5,1.3156648808901034e+16,2730964570428090.5,5260671939512358.0,132006778891.85052,591316420241.5824,29128061935404.54,877263251353519.4
0.9754628431115548,4515630723714388.0,1.4104424568053038e+16,2896271471429618.0,5579103544255047.0,161627337342.71286,724002383772.4114,35672271773220.76,1076860927159647.4
1.094972099973786,4757562256379731.0,1.5022923821118378e+16,3051443461364098.0,5878012215891293.0,193531175244.89392,866916609139.012,42721767293642.84,1292123672405233.5
1.2168715419732616,4985943971607038.0,1.591828345684787e+16,3197924760804459.5,6160179964525413.0,227668509571.38562,1019836103170.7365,50265576529305.086,1522721678768926.8
1.3412089728127268,5202517152761814.0,1.679526308173563e+16,3336832208053835.0,6427758161921398.0,264002167807.59912,1182594364032.087,58295521407246.24,1768413441059498.2
1.4680331522689813,5408661267345017.0,1.7657651410700494e+16,3469050577048194.5,6682451152941479.0,302504694323.8889,1355068418517.9607,66805576134305.83,2029025264118657.2
1.597393815314361,5605491248257597.0,1.850853138443942e+16,3595294972396558.0,6925636447473868.0,343156319673.78754,1537169725093.4897,75791417126959.2,2304436973139679.0
1.729341691620648,5793923571011484.0,1.9350459643005668e+16,3716153210513924.0,7158446359451478.0,385943491183.0926,1728837591389.0493,85250097453053.0,2594571623493138.5
1.863928525453061,5974722547322375.0,2.0185591851851864e+16,3832115511777926.0,7381825203021315.0,430857782466.9504,1930034289194.8882,95179805290791.36,2899387892367791.0
2.001207095962122,6148533623622540.0,2.101577256017672e+16,3943595857796509.0,7596570433169013.0,477895066871.712,2140741351764.2625,105579680883364.27,3218874328286649.5
2.1412312378813647,6315907881482829.0,2.184260111401509e+16,4050947705685400.5,7803362916219164.0,527054879695.35474,2360956716787.521,116449675320731.48,3553044923710467.5
2.284055862638992,6477320423636627.0,2.266748097502337e+16,4154475780643778.0,8002789645939194.0,578339918571.7816,2590692488296.447,127790439925904.61,3901935652471001.5
2.4297369798917723,6633184412534029.0,2.3491657273676932e+16,4254445080114903.0,8195361088303663.0,631755647021.8124,2829973160721.1973,139603238488429.02,4265601725428158.0
2.578331719489608,6783861954922421.0,2.43162458510184e+16,4351087855025717.0,8381524629494562.0,687309976411.7434,3078834194186.1694,151889876858606.4,4644115390546468.0
2.7298983538794,6929672657051956.0,2.514225603212543e+16,4444609096993281.0,8561675145937086.0,745013008446.1797,3337320860978.2534,164652645942813.56,5037564152330874.0
2.884496320956988,7070900431811495.0,2.597060870902081e+16,4535190904340232.0,8736163414579129.0,804876825059.2535,3605487304342.7407,177894275190402.78,5446049318970145.0
3.0421862473761276,7207798975044760.0,2.6802150862906444e+16,4622995994538323.0,8905302878930471.0,866915315893.8612,3883395765659.839,191617894399681.75,5869684808911639.0
3.2030299723236504,7340596215446945.0,2.7637667348149092e+16,4708170558318916.0,9069375146951302.0,931144035935.6045,4171115946703.196,205827002197138.66,6308596165252161.0
3.3670905717701234,7469497963407999.0,2.8477890545536156e+16,4790846599997316.0,9228634499231768.0,997580087594.9994,4468724481417.595,220525439926656.1,6762919738403394.0
3.5344323832055258,7594690927906110.0,2.9323508339630484e+16,4871143872472099.0,9383311616391770.0,1066242022804.7545,4776304497356.725,235717369967448.72,7232802006372894.0
3.7051210308696363,7716345229902952.0,3.0175170764942464e+16,4949171489286761.0,9533616684403946.0,1137149761650.2856,5093945251183.804,251407257710168.38,7718399008625784.0
3.879223451487029,7834616510917222.0,3.1033495585141156e+16,5025029277043525.0,9679741999755830.0,1210324524771.3203,5421741825861.695,267599856579979.84,8219875874493991.0
4.0568079205167695,7949647713369643.0,3.189907300994219e+16,5098808917295278.0,9821864169082430.0,1285788777323.0525,5759794879625.686,284300195617296.94,8737406430920609.0
4.237944078927105,8061570592723781.0,3.2772469709686876e+16,5170594916414600.0,9960145977430264.0,1363566182710.895,6108210438738.591,301513569221112.56,9271172877275688.0
4.422702960505647,8170507008882973.0,3.3654232253856956e+16,5240465433880295.0,1.0094737983790186e+16,1443681564645.0417,6467099727515.98,319245528733363.94,9821365517277974.0
4.61115701971576,8276570034680731.0,3.4544890073950052e+16,5308492993249845.0,1.0225779890647484e+16,1526160876322.7065,6836579030281.015,337501875600677.3,1.0388182539864704e+16
4.803380160110075,8379864911863731.0,3.5444958031224212e+16,5374745095315459.0,1.0353401725107688e+16,1611031175753.5425,7216769580839.118,356288655895816.3,1.0971829842284924e+16
4.9994477633122765,8480489879167728.0,3.635493865431919e+16,5439284749222022.0,1.0477724861992062e+16,1698320606410.0332,7607797475806.961,375612156017918.4,1.1572520889837252e+16
5.199436718578522,8578536892528732.0,3.727532409960313e+16,5502170934401997.0,1.0598862913665174e+16,1788058382518.6733,8009793608731.283,395478899420285.44,1.2190476607595676e+16
5.403425452950093,8674092253862855.0,3.820659787748236e+16,5563459003867164.0,1.0716922506898172e+16,1880274778416.4849,8422893622419.476,415895644238533.94,1.2825925300214768e+16
5.611493962009095,8767237161969442.0,3.914923638026123e+16,5623201037551414.0,1.0832003963514772e+16,1975001121486.3828,8847237877303.043,436869381711589.06,1.34791025965153e+16
5.823723841249277,8858048196801740.0,4.010371024100938e+16,5681446152916082.0,1.0944201898712096e+16,2072269788257.9443,9282971433981.645,458407335304171.2,1.4150251416053036e+16
6.040198318074262,8946597746481791.0,4.1070485547946536e+16,5738240778832215.0,1.1053605748641582e+16,2172114203320.6196,9730244048366.758,480516960452781.2,1.4839621955286488e+16
6.261002284435747,9032954384919278.0,4.2050024934851e+16,5793628897780785.0,1.1160300236960604e+16,2274568840746.685,10189210178069.14,503205944868324.2,1.5547471691303202e+16
6.486222330124463,9117183206653750.0,4.30427885647184e+16,5847652260616438.0,1.1264365788533028e+16,2379669227763.3286,10660028998862.557,526482209337796.2,1.6274065401350762e+16
6.715946776726952,9199346124520308.0,4.4049235021220744e+16,5900350577486799.0,1.1365878897198106e+16,2487451950448.6377,11142864430214.94,550353908975292.56,1.7019675196659556e+16
6.950265712261491,9279502134897950.0,4.506982212030117e+16,5951761687959461.0,1.1464912453487196e+16,2597954661256.1167,11637885169011.82,574829434879188.0,1.7784580569247088e+16
7.18927102650672,9357707554600596.0,4.610500765240924e+16,6001921712961158.0,1.1561536037304804e+16,2711216088197.861,12145264730711.254,599917416157954.8,1.8569068450565884e+16
7.433056447036854,9434016232889154.0,4.715525006435796e+16,6050865190759701.0,1.165581617987151e+16,2827276045538.0967,12665181497265.768,625626722291902.4,1.9373433281002868e+16
7.681717575977592,9508479741594876.0,4.822100908850849e+16,6098625198906878.0,1.1747816598623248e+16,2946175445867.497,13197818771231.04,651966465802170.1,2.019797708936418e+16
7.935351927497144,9581147545934962.0,4.930274632592498e+16,6145233463797468.0,1.1837598408255402e+16,3067956313444.6733,13743364835552.418,678946005201931.9,2.10430095815862e+16
8.194058966047088,9652067158254336.0,5.040092578923622e+16,6190720459277472.0,1.192522031067232e+16,3192661798705.166,14302013018582.86,706574948207750.8,2.1908848238007052e+16
8.45794014536803,9721284276635000.0,5.151601441018399e+16,6235115495546348.0,1.2010738766240438e+16,3320336193850.3877,14873961763939.88,734863155191753.1,2.2795818418612636e+16
8.72709894827539,9788842910063782.0,5.264848251619074e+16,6278446799438324.0,1.2094208148434332e+16,3451024949439.408,15459414704856.87,763820742857599.6,2.370425347574239e+16
9.0016409272409,9854785491637466.0,5.379880427973074e+16,6320741587030586.0,1.217568088370251e+16,3584774691915.9756,16058580742724.79,793458088125269.4,2.463449487380021e+16
9.281673745785717,9919152981100090.0,5.4967458143816456e+16,6362026129409627.0,1.2255207578153378e+16,3721633242011.1265,16671674129558.305,823785832211494.8,2.558689231557027e+16
9.567307220701432,9981984957851716.0,5.615492722651345e+16,6402325812325888.0,1.2332837132468362e+16,3861649633969.117,17298914554151.482,854814884894258.0,2.656180387478514e+16
9.85865336511546,1.0043319705431566e+16,5.7361699707047464e+16,6441665190380263.0,1.2408616846281664e+16,4004874135550.8867,17940527231718.336,886556428951235.1,2.75595961346354e+16
10.155826432417769,1.0103194288361966e+16,5.858826919577062e+16,6480068036310885.0,1.2482592513121672e+16,4151358268774.8784,18596742996837.883,919021924763245.5,2.8580644331947228e+16
10.458942961066125,1.0161644622137384e+16,5.9835135089997784e+16,6517557385883231.0,1.2554808506883094e+16,4301154831360.3335,19267798399548.33,952223115075015.1,2.962533250678818e+16
10.768121820287448,1.0218705537054924e+16,6.110280291749607e+16,6554155578830281.0,1.2625307860690068e+16,4454317918842.82,19953935804453.797,986172029906489.1,3.069405365729102e+16
11.083484256693197,1.0274410836505024e+16,6.239178466922118e+16,6589884296239412.0,1.2694132338914916e+16,4610902947335.841,20655403492727.418,1020880991608917.1,3.1787209899512828e+16
11.405153941827061,1.0328793350273702e+16,6.370259912272222e+16,6624764594739901.0,1.27613225030336e+16,4770966676916.252,21372455766910.8,1056362620060731.1,3.2905212632170492e+16
11.733257020663602,1.0381884983348598e+16,6.503577215748995e+16,6658816937806452.0,1.2826917771926e+16,4934567235614.71,22105353058425.582,1092629837999016.4,3.4048482706115824e+16
12.067922161076874,1.0433716760668654e+16,6.639183706339379e+16,6692061224461165.0,1.289095647716456e+16,5101764143995.391,22854362037726.832,1129695876483060.5,3.5217450598434668e+16
12.409280604298411,1.0484318868211408e+16,6.777133484324109e+16,6724516815626421.0,1.295347591377805e+16,5272618340312.236,23619755727040.625,1167574280487112.0,3.6412556591070664e+16
12.75746621638438,1.053372069077108e+16,6.917481451038909e+16,6756202558355303.0,1.301451238692675e+16,5447192206231.401,24401813615641.12,1206278914620020.2,3.763425095389405e+16
13.112615540712067,1.0581950846745124e+16,7.060283338225866e+16,6787136808143198.0,1.3074101254881512e+16,5625549593112.467,25200821777631.39,1245823968970045.2,3.8882994132148056e+16
13.474867851526309,1.0629037220213888e+16,7.205595737051311e+16,6817337449503448.0,1.3132276968658526e+16,5807755848842.405,26017072992203.88,1286223965073484.2,4.015925693822267e+16
13.844365208556836,1.0675006990570868e+16,7.35347612686057e+16,6846821914971708.0,1.3189073108627716e+16,5993877845219.283,26850866866365.023,1327493762006384.0,4.146352074771744e+16
14.221252512727972,1.0719886659934362e+16,7.503982903733323e+16,6875607202687534.0,1.3244522418380204e+16,6183984005883.778,27702509960115.984,1369648562598837.0,4.279627769976625e+16
14.605677562982532,1.0763702078549794e+16,7.657175408898131e+16,6903709892687086.0,1.3298656836112936e+16,6378144334798.792,28572315914091.91,1412703919771906.0,4.415803090161075e+16
14.997791114242183,1.0806478468370666e+16,7.81311395706016e+16,6931146162027684.0,1.3351507523763348e+16,6576430445278.935,29460605579665.684,1456675742997514.0,4.554929463741735e+16
15.397746936527026,1.0848240444988668e+16,7.971859864691331e+16,6957931798853511.0,1.340310489410399e+16,6778915589573.073,30367707151532.535,1501580304881907.8,4.6970594581344184e+16
15.805701875257567,1.088901203806652e+16,8.13347547832931e+16,6984082215501010.0,1.3453478635987782e+16,6985674689004.618,31293956302795.227,1547434247873738.2,4.842246801487234e+16
16.221815912762718,1.0928816710412932e+16,8.298024202927214e+16,7009612460733324.0,1.3502657737915052e+16,7196784364675.475,32239696322577.51,1594254591097984.8,4.99054640484257e+16
16.64625223101797,1.0967677375825444e+16,8.465570530294154e+16,7034537231184436.0,1.3550670510078528e+16,7412322968740.841,33205278256196.316,1642058737317241.0,5.142014384731106e+16
17.079177275638333,1.1005616415814848e+16,8.636180067663067e+16,7058870882086129.0,1.3597544605026706e+16,7632370616263.021,34191061047931.504,1690864480022159.5,5.29670808620167e+16
17.5207608211511,1.1042655695314758e+16,8.809919566420611e+16,7082627437343765.0,1.3643307037072922e+16,7857009217653.376,35197411686433.016,1740690010653008.8,5.4546861062917496e+16
17.97117603757412,1.107881657746918e+16,8.986856951031386e+16,7105820599020948.0,1.368798420056564e+16,8086322511712.959,36224705352812.41,1791553925954638.8,5.616008317943887e+16
18.430599558325603,1.1114119937582888e+16,9.167061348187011e+16,7128463756287122.0,1.373160188712427e+16,8320396099282.546,37273325571468.07,1843475235467133.2,5.780735894373795e+16
18.899211549492115,1.1148586176310954e+16,9.350603116208955e+16,7150569993877175.0,1.3774185301934966e+16,8559317477514.315,38343664363697.055,1896473369154899.0,5.948931333897038e+16
19.37719578048196,1.1182235232156878e+16,9.537553874732243e+16,7172152100107550.0,1.3815759079191948e+16,8803176074777.55,39436122404152.32,1950568185176819.5,6.120658485221037e+16
19.864739696091597,1.1215086593341586e+16,9.727986534696235e+16,7193222574488857.0,1.3856347296762e+16,9052063286211.992,40551109180202.79,2005779977800483.0,6.295982573210302e+16
20.36203449001343,1.1247159309100194e+16,9.921975328667016e+16,7213793634971641.0,1.3895973490141676e+16,9306072509942.818,41689043154261.57,2062129485463534.0,6.474970225132878e+16
20.869275179813698,1.127847200045804e+16,1.0119595841515296e+17,7233877224857763.0,1.3934660665770956e+16,9565299183971.871,42850351929147.35,2119637898985346.8,6.657689497396767e+16
21.38666068340997,1.1309042870531506e+16,1.032092504147239e+17,7253485019407439.0,1.3972431313760384e+16,9829840823760.385,44035472416546.75,2178326869932395.5,6.844209902785166e+16
21.91439389707817,1.133888971439657e+16,1.0526041311586203e+17,7272628432168624.0,1.4009307420083116e+16,10099797060519.219,45244851008650.125,2238218519140754.8,7.034602438200373e+16
22.452681775019734,1.1368029928561582e+16,1.0735024481598546e+17,7291318621052934.0,1.4045310478279426e+16,10375269680222.404,46478943753031.88,2299335445399337.5,7.228939612925898e+16
23.00173541052013,1.1396480520079552e+16,1.094795586026395e+17,7309566494179937.0,1.408046150071425e+16,10656362663361.346,47738216530851.945,2361700734297504.0,7.427295477417418e+16
23.561770118730532,1.1424258115329668e+16,1.1164918268130091e+17,7327382715509683.0,1.4114781029427244e+16,10943182225456.324,49023145238455.09,2425337967240944.5,7.629745652632949e+16
24.133005521105144,1.145137896849626e+16,1.1385996070799163e+17,7344777710280949.0,1.414828914660851e+16,11235836858343.342,50334215972447.59,2490271230639523.0,7.836367359913558e+16
24.715665631527248,1.1477858969769904e+16,1.1611275212689072e+17,7361761670271282.0,1.4181005484731002e+16,11534437372254.012,51671925218330.914,2556525125271251.0,8.047239451425643e+16
25.309978944157795,1.1503713653292902e+16,1.1840843251313032e+17,7378344558893233.0,1.4212949236367424e+16,11839096938706.889,53036780042775.37,2624124775826311.0,8.262442441176893e+16
25.91617852304095,1.152895820486952e+16,1.2074789392095832e+17,7394536116139527.0,1.4244139163716094e+16,12149931134229.273,54429298289619.305,2693095840635323.5,8.482058536617413e+16
26.53450209350177,1.1553607469458548e+16,1.2313204523744458e+17,7410345863388747.0,1.4274593607858202e+16,12467057984928.018,55850008779675.875,2763464521586021.5,8.706171670838843e+16
27.165192135371807,1.1577675958464934e+16,1.2556181254190968e+17,7425783108082024.0,1.4304330497766502e+16,12790598011929.111,57299451514438.625,2835257574232682.0,8.93486753538371e+16
27.808495978079243,1.1601177856844038e+16,1.2803813947125128e+17,7440856948279747.0,1.4333367359082914e+16,13120674277705.424,58778177883769.81,2908502318102578.5,9.168233613678056e+16
28.464665897640828,1.162412703003256e+16,1.3056198759133765e+17,7455576277106839.0,1.4361721322681358e+16,13457412433312.838,60286750877664.65,2983226647203954.0,9.406359215100197e+16
29.133959215593645,1.1646537030716236e+16,1.33134336774645e+17,7469949787093609.0,1.4389409133029766e+16,13800940766554.82,61825745302180.945,3059459040739954.0,9.64933550969967e+16
29.816638399905518,1.1668421105446178e+16,1.3575618558430477e+17,7483985974419261.0,1.4416447156364158e+16,14151390251095.969,63395747999625.01,3137228574033057.5,9.897255563579152e+16
30.51297116790363,1.168979220111146e+16,1.3842855166473562e+17,7497693143063391.0,1.4442851388685878e+16,14508894596545.39,64997358073090.4,3216564929664687.5,1.0150214374954051e+17
31.223230591261704,1.1710662971277128e+16,1.4115247213902488e+17,7511079408871176.0,1.4468637463592078e+16,14873590299530.889,66631187115440.62,3297498408834568.0,1.0408308910903496e+17
31.947695203086937,1.1731045782394454e+16,1.4392900401323416e+17,7524152703536410.0,1.4493820659948592e+16,15245616695785.459,68297859442834.13,3380059942944657.5,1.0671638144827142e+17
32.686649107148675,1.1750952719889708e+16,1.4675922458779478e+17,7536920778506881.0,1.4518415909412666e+16,15625116013267.432,69998012332887.516,3464281105412388.0,1.0940303094622704e+17
33.44038208929165,1.177039559413744e+16,1.4964423187616566e+17,7549391208815542.0,1.4542437803812902e+16,16012233426336.168,71732296267574.62,3550194123718095.5,1.1214406861598755e+17
34.20918973107749,1.1789385946322942e+16,1.5258514503092157e+17,7561571396840595.0,1.4565900602392468e+16,16407117111005.727,73501375180962.36,3637831891691546.0,1.1494054670138219e+17
34.993373525699035,1.180793505419857e+16,1.555831047774485e+17,7573468575997534.0,1.4588818238921084e+16,16809918301298.258,75305926711881.94,3727227982042527.0,1.177935390812756e+17
35.793240996213015,1.1826053937737798e+16,1.5863927385540883e+17,7585089814365597.0,1.4611204328680458e+16,17220791346720.395,77146642461638.78,3818416659140521.5,1.2070414168167627e+17
36.60910581613728,1.1843753364690254e+16,1.6175483746816093e+17,7596442018250671.0,1.4633072175327788e+16,17639893770885.117,79024228256862.98,3911432892048600.0,1.2367347289581587e+17
37.44128793246003,1.1861043856041032e+16,1.6493100374029635e+17,7607531935686919.0,1.4654434777640698e+16,18067386331302.312,80939404417605.23,4006312367816664.0,1.2670267401236195e+17
38.29011369110923,1.1877935691376974e+16,1.681690041834796e+17,7618366159878467.0,1.4675304836147202e+16,18503433080362.0,82892906030783.47,4103091505039237.5,1.2979290965192664e+17
39.15591596493141,1.1894438914161924e+16,1.714700941707626e+17,7628951132583081.0,1.4695694759643556e+16,18948201427532.707,84885483229085.7,4201807467683114.5,1.3294536821203448e+17
40.03903428423004,1.1910563336923676e+16,1.7483555341955216e+17,7639293147438907.0,1.4715616671602506e+16,19401862202800.715,86917901475439.45,4302498179190250.0,1.3616126232071861e+17
