t(s),Total solute volume 1,Total retention volume 1,Total 1 volume 1,Total 2 volume 1,Total 3 volume 1,Total 4 volume 1,Total 5 volume 1,Total 6 volume 1
0.1,941999071437344.5,1111941895936827.4,80338108873842.89,89604715625638.98,0.0,0.0,0.0,0.0
0.202,1419168830311847.8,1675197518116817.5,121033389215363.25,134993997708574.84,2009981.0130376176,3886957.8327653245,56927622.68733387,1238056470.392125
0.30604000000000003,1782610434540386.8,2104208377139940.5,152029397758376.44,169565244081251.5,5099843.377581369,9862222.269114599,144440696.63541862,3141357162.856696
0.41216080000000005,2090033491364568.2,2467095136978655.5,178247881223502.25,198807901211613.88,9058815.467665333,17518196.373731945,256569373.10769272,5580032586.594693
0.5204040160000001,2363050732965494.5,2789369548310646.0,201532075022819.16,224777812722799.94,13793372.679870216,26674019.478193287,390664751.20076853,8496467389.927849
0.6308120963200001,2612430361537818.5,3083742435354480.0,222800342062774.88,248499270192393.38,19253366.71815104,37232713.33089947,545306484.8418373,11859768926.54156
0.7434283382464002,2844430965049800.0,3357601457951866.0,242586444147375.7,270567602236761.62,25410143.828063667,49138866.46201699,719683017.1216832,15652285903.197931
0.8582969050113283,3063061874992160.0,3615679246902344.0,261232315914090.03,291364183980055.7,32247555.10772879,62361249.65323731,913336964.6072829,19864070267.883827
0.9754628431115548,3271070521355124.5,3861218881404334.5,278972271108116.53,311150356110783.4,39757527.593413025,76884251.17186634,1126039677.3688066,24490148853.88698
1.094972099973786,3470435236056655.0,4096555595874872.5,295975031175492.9,330114301267617.2,47937611.76244499,92703134.05977158,1357721777.1485314,29529012585.21988
1.2168715419732616,3662635791934694.5,4323436125001126.0,312366798100185.7,348396778215351.6,56789508.0230639,109821186.6162395,1608431423.332627,34981708768.95214
1.3412089728127268,3848812963665519.5,4543207049889095.0,328244862509310.7,366106299578469.9,66318126.753764726,128247904.67457399,1878307690.5952485,40851262066.745995
1.4680331522689813,4029868062383732.0,4756932288977391.0,343686092453433.25,383328599760704.1,76530960.86146377,147997778.2367596,2167562797.97361,47142287983.82625
1.597393815314361,4206527890869639.0,4965469771286741.0,358752473090313.8,400132813604173.0,87437652.03890333,169089452.6893912,2476469824.0577817,53860725679.60463
1.729341691620648,4379388735463655.0,5169523364565511.0,373494858522163.5,416575660982703.56,99049682.68916449,191545133.0383306,2805353981.4291363,61013648190.80287
1.863928525453061,4548947101230194.0,5369679155134726.0,387955593034912.06,432704370388204.5,111380152.52412944,215390151.88832015,3154586289.303922,68609124814.60385
2.001207095962122,4715621760530047.0,5566431474061282.0,402170391504103.0,448558776232182.9,124443614.07140282,240652651.34149244,3524578914.629962,76656119779.9289
2.1412312378813647,4879769934269177.0,5760201997531361.0,416169719407870.25,464172858036451.25,138255950.31028754,267363346.3662781,3915781706.3962574,85164416870.52177
2.284055862638992,5041699404792859.0,5951354044930949.0,429979825871479.0,479575892634303.2,152834283.1739042,295555347.8561527,4328679604.158057,94144563061.76953
2.4297369798917723,5201677742486389.0,6140203469941691.0,443623530555213.4,494793331822061.94,168196905.1577361,325264030.37227356,4763790701.00038,103607826391.20506
2.578331719489608,5359939442980687.0,6327027085312622.0,457120832348826.44,509847481263453.4,184363228.56586868,356526933.99439925,5221664806.050131,113566164693.9057
2.7298983538794,5516691524516560.0,6512069270001630.0,470489386741070.9,524758032921379.2,201353748.4634833,389383692.6773537,5702882395.187397,124032202780.99597
2.884496320956988,5672117972170802.0,6695547215152177.0,483744884844190.56,539542487801021.3,219190016.4594456,423875983.5510643,6208053868.495234,135019216289.5204
3.0421862473761276,5826383306015737.0,6877655135961027.0,496901357703354.6,554216495359880.7,237894623.18209898,460047493.0317537,6737819053.924931,146541120887.35202
3.2030299723236504,5979635474992880.0,7058567687618952.0,509971423099789.8,568794128778443.6,257491187.8387191,497943896.6317299,7292846911.590334,158612465841.64612
3.3670905717701234,6132008225631996.0,7238442761359279.0,522966487566285.2,583288110277183.9,278004353.63152546,537612850.0947613,7873835403.935965,171248431194.9453
3.5344323832055258,6283623057325878.0,7417423792477312.0,535896913142217.75,597709997105962.8,299459788.08467805,579103990.0284444,8481511504.997778,184464827966.44687
3.7051210308696363,6434590848872307.0,7595641680314145.0,548772156092695.25,612070336263751.0,321884187.5467169,622468942.6111883,9116631327.924238,198278100925.3503
3.879223451487029,6585013221249680.0,7773216396891070.0,561600883132464.5,626378794128389.5,345305285.2916864,667761339.2584214,9779980354.421677,212705333580.9925
4.0568079205167695,6734983686901372.0,7950258343621684.0,574391069445944.6,640644265793434.8,369751862.8593948,715036839.7566669,10472374152.530485,227764318088.0608
4.237944078927105,6884588625318767.0,8126869502578824.0,587150081874828.6,654874967808034.2,395253763.6993762,764353153.8543143,11194657183.742596,243473313091.47372
4.422702960505647,7033908115000571.0,8303144419044541.0,599884749893677.0,669078517404181.0,421841910.26031387,815770081.4701604,11947705645.766823,259851428463.77295
4.61115701971576,7183016647887764.0,8479171044520516.0,612601426525398.0,683262000394850.5,449548322.39257926,869349543.5271534,12732426427.841156,276918388222.61633
4.803380160110075,7331983745099191.0,8655031463641282.0,625306040857825.4,697432029759111.4,478406138.3010565,925155623.6551905,13549758094.051224,294694605282.52057
4.9994477633122765,7480874490410804.0,8830802523911048.0,638004143541315.6,711594796387652.5,508449637.3328261,983254612.258627,14400671528.741817,313201195494.7276
5.199436718578522,7629749994448388.0,9006556383656134.0,650700946377317.4,725756113237686.6,539714264.5755404,1043715054.0853745,15286170633.210005,332459992799.5934
5.403425452950093,7778667800266206.0,9182360990789512.0,663401356908004.1,739921453912333.4,572236657.1722997,1106607799.1154003,16207293071.0143,352493565436.3539
5.611493962009095,7927682239097485.0,9358280502759062.0,676110008756350.1,754095986500284.6,606054672.2787576,1172006056.6250262,17165111059.796255,373325233164.4846
5.823723841249277,8076844743551666.0,9534375656266952.0,688831288337064.6,768284603367696.0,641207416.6046503,1239985452.3152487,18160732207.977196,394979085461.05743
6.040198318074262,8226204124313046.0,9710704093906504.0,701569358454764.0,782491947478305.1,677735277.4957083,1310624088.418877,19195300395.083103,417480000666.9863
6.261002284435747,8375806815406190.0,9887320653696356.0,714328179221344.2,796722435723514.6,715679955.5234636,1384002606.7236881,20269996694.77693,440853666062.11176
6.486222330124463,8525697092284532.0,1.0064277626535496e+16,727111526655609.5,810980279667404.4,755084498.5602596,1460204254.4677331,21386040339.95607,465126598855.1698
6.715946776726952,8675917266336140.0,1.0241624985822314e+16,739923009271634.2,825269504048467.4,795993337.3251058,1539314953.0789757,22544689729.50835,490326168079.7995
6.950265712261491,8826507858853413.0,1.0419410592833638e+16,752766082915724.1,839593963327953.8,838452322.3932554,1621423369.7455628,23747243476.52442,516480617392.1914
7.18927102650672,8977507757060507.0,1.0597680380925158e+16,765644064073158.5,853957356531475.0,882508762.6685561,1706620991.8148096,24995041497.940495,543619088769.80005
7.433056447036854,9128954354414926.0,1.0776478521170376e+16,778560141833778.4,868363240594761.9,928211465.3231466,1795002204.0298045,26289466145.73911,571771647113.9302
7.681717575977592,9280883677084116.0,1.0955847571681268e+16,791517388678496.8,882815042394350.9,975610777.2138033,1886664368.6216376,27631943379.97461,600969305761.9369
7.935351927497144,9433330498233436.0,1.1135828612542074e+16,804518770226325.9,897316069618878.9,1024758627.7886149,1981707908.2835865,29023943984.006485,631244052917.4557
8.194058966047088,9586328441538484.0,1.1316461368025004e+16,817567154062377.1,911869520615355.5,1075708573.5013754,2080236392.061074,30466984822.437935,662628879009.3826
8.45794014536803,9739910075145490.0,1.1497784317531176e+16,830665317751263.0,926478493326863.0,1128515843.7546859,2182356624.1978316,31962630142.349583,695157804992.531
8.72709894827539,9894106997144038.0,1.167983479651419e+16,843815956126611.0,941145993422885.1,1183237388.3958561,2288178735.9848924,33512492918.513855,728865911604.7882
9.0016409272409,1.004894991347901e+16,1.1862649088479184e+16,857021687935734.6,955874941710419.5,1239931926.7925518,2397816280.664661,35118236243.35226,763789369597.4191
9.281673745785717,1.020446870911167e+16,1.2046262509015322e+16,870285061908620.6,970668180902966.1,1298659998.5180604,2511386331.4475746,36781574762.48083,799965470956.8544
9.567307220701432,1.036069251314049e+16,1.2230709482698062e+16,883608562311726.2,985528481814943.4,1359484015.6782997,2629009582.703718,38504276156.754524,837432661137.8032
9.85865336511546,1.0517649758505372e+16,1.2416023613599818e+16,896994614039818.2,1000458549040860.5,1422468316.915344,2750810454.3964586,40288162671.79543,876230572329.0774
10.155826432417769,1.0675368236824696e+16,1.2602237750055936e+16,910445587292767.4,1015461026171531.0,1487679223.1243386,2876917199.8295937,42135112696.04873,916400057774.8553
10.458942961066125,1.0833875148850816e+16,1.2789384044259558e+16,923963801878595.2,1030538500593463.0,1555185094.9229958,3007462016.783596,44047062388.47681,957983227175.5417
10.768121820287448,1.099319715097267e+16,1.2977494007192546e+16,937551531179461.9,1045693507912320.1,1625056391.9148912,3142581162.120829,46026007357.05836,1001023483193.5785
11.083484256693197,1.115336039814721e+16,1.3166598559341148e+16,951211005813051.0,1060928536036603.8,1697365733.789852,3282415069.943349,48074004389.31882,1045565559090.8948
11.405153941827061,1.1314390583597528e+16,1.3356728077596774e+16,964944417018210.2,1076246028953830.8,1772187963.3067372,3427108473.3909707,50193173236.176865,1091655557525.9121
11.733257020663602,1.1476312975579528e+16,1.3547912438697662e+16,978753919790581.1,1091648390227834.2,1849600211.205861,3576810530.170925,52385698450.441666,1139340990539.1897
12.067922161076874,1.1639152451485918e+16,1.374018105952888e+16,992641635791166.2,1107137986242825.4,1929681963.1002693,3731674951.914308,54653831281.35833,1188670820758.0435
12.409280604298411,1.1802933529528698e+16,1.3933562934564824e+16,1006609656048338.4,1122717149217048.8,2012515128.3970127,3891860137.458118,56999891626.64727,1239695503851.5852
12.75746621638438,1.196768039821482e+16,1.4128086670708858e+16,1020660043471684.0,1138388180006612.0,2098184111.3013496,4057529310.155498,59426270043.53957,1292467032268.9211
13.112615540712067,1.2133416943809626e+16,1.432378051975828e+16,1034794835194193.2,1154153350717813.0,2186775883.959,4228850659.320407,61935429820.36551,1347038980294.2747
13.474867851526309,1.2300166775960712e+16,1.4520672408700014e+16,1049016044757605.6,1170014907144575.2,2278380061.793091,4405997485.916634,64529909110.30552,1403466550454.108
13.844365208556836,1.246795325164017e+16,1.4718789968022076e+16,1063325664154294.2,1185975071045827.8,2373088981.094762,4589148352.604946,67212323128.969025,1461806621312.4392
14.221252512727972,1.2636799497545214e+16,1.49181605582074e+16,1077725665737719.6,1202036042276341.8,2470997778.928018,4778487238.26552,69985366417.52002,1522117796691.7263
14.605677562982532,1.2806728431085886e+16,1.5118811294561014e+16,1092218004012340.6,1218200000783098.2,2572204475.4115357,4974203697.117142,72851815173.12392,1584460456357.9438
14.997791114242183,1.2977762780074828e+16,1.532076907050685e+16,1106804617312864.4,1234469108478205.2,2676810058.442029,5176493022.557925,75814529648.54816,1648896808209.645
15.397746936527026,1.3149925101223918e+16,1.5524060579477576e+16,1121487429381708.4,1250845510998359.8,2784918570.925845,5385556415.856501,78876456622.79935,1715490942012.0576
15.805701875257567,1.332323779754259e+16,1.572871233551021e+16,1136268350852843.0,1267331339359793.2,2896637200.5873647,5601601159.826382,82040631944.74654,1784308884718.496
16.221815912762718,1.3497723134724762e+16,1.593475069264886e+16,1151149280649304.2,1283928711517015.8,3012076372.424998,5824840797.620199,85310183151.72806,1855418657422.61
16.64625223101797,1.3673403256602182e+16,1.6142201863247482e+16,1166132107301166.8,1300639733832793.2,3131349843.8874717,6055495316.784709,88688332165.20738,1928890333986.3503
17.079177275638333,1.3850300199736264e+16,1.635109193525798e+16,1181218710189979.2,1317466502466127.2,3254574802.8453264,6293791338.721138,92178398065.59567,2004796101389.7437
17.5207608211511,1.4028435907213726e+16,1.6561446888579664e+16,1196410960725327.5,1334411104684537.8,3381871968.4347324,6539962313.700228,95783799948.42545,2083210321849.9297
17.97117603757412,1.4207832241705694e+16,1.6773292610541554e+16,1211710723458577.5,1351475620106258.5,3513365694.85285,6794248721.584876,99508059864.1223,2164209596758.3164
18.430599558325603,1.4388510997844626e+16,1.6986654910581338e+16,1227119857138450.0,1368662121877560.5,3649184078.186123,7056898278.418309,103354805843.6756,2247872832485.98
18.899211549492115,1.4570493913969548e+16,1.7201559534180578e+16,1242640215712679.2,1385972677789976.5,3789459066.3554883,7328166149.039362,107327775012.58792,2334281308108.918
19.37719578048196,1.4753802683284996e+16,1.7418032176110132e+16,1258273649279724.8,1403409351341760.2,3934326572.2643075,7608315165.891878,111430816795.53687,2423518745106.2065
19.864739696091597,1.4938458964475784e+16,1.7636098493035318e+16,1274022004994043.5,1420974202747583.5,4083926590.2376842,7897616054.198548,115667896214.25484,2515671379085.3716
20.36203449001343,1.5124484391816568e+16,1.785578411552692e+16,1289887127928287.5,1438669289900191.2,4238403315.8439174,8196347663.675639,120043097281.1998,2610828033591.1304
20.869275179813698,1.5311900584811632e+16,1.8077114659519376e+16,1305870861895397.0,1456496669287321.8,4397905269.191427,8504797206.968465,124560626491.66185,2709080196054.7417
21.38666068340997,1.55007291573969e+16,1.8300115737255684e+16,1321975050233450.2,1474458396867053.0,4562585421.796933,8823260504.993185,129224816417.0152,2810522095943.1313
21.91439389707817,1.5690991726735404e+16,1.8524812967753684e+16,1338201536555722.2,1492556528904437.5,4732601327.123249,9152042239.37513,134040129401.9018,2915250785168.0967
22.452681775019734,1.5882709921632864e+16,1.8751231986826964e+16,1354552165468440.2,1510793122771978.2,4908115254.887721,9491456212.178513,139011161368.20947,3023366220817.985
23.00173541052013,1.6075905390599376e+16,1.8979398456690164e+16,1371028783258304.0,1529170237716513.5,5089294329.244632,9841825613.128304,144142645728.7685,3134971350275.338
23.561770118730532,1.6270599809580288e+16,1.920933807517688e+16,1387633238551846.0,1547689935594578.0,5276310670.948117,10203483294.529331,149439457413.78577,3250172198786.048
24.133005521105144,1.6466814889378138e+16,1.9441076584594972e+16,1404367382948352.8,1566354281578364.2,5469341543.604262,10576772054.093388,154906617013.09106,3369077959546.8745
24.715665631527248,1.6664572382784516e+16,1.967463978024269e+16,1421233071628152.8,1585165344834161.8,5668569504.124061,10962044925.889984,160549295037.36234,3491801086380.137
25.309978944157795,1.686389409144059e+16,1.9910053518606624e+16,1438232163937690.0,1604125199174917.8,5874182557.491797,11359665479.6425,166372816301.56723,3618457389065.846
25.91617852304095,1.706480187244132e+16,2.0147343725260796e+16,1455366523952766.0,1623235923688434.5,6086374315.965627,11770008128.595383,172382664433.9364,3749166131403.2417
26.53450209350177,1.7267317644698664e+16,2.0386536402483784e+16,1472638021021233.2,1642499603342672.2,6305344162.8303385,12193458446.184635,178584486513.85876,3884050132075.5244
27.165192135371807,1.7471463395075734e+16,2.062765763660821e+16,1490048530286129.0,1661918329569226.5,6531297420.824944,12630413491.748386,184984097842.1715,4023235868392.9717
27.808495978079243,1.767726118430258e+16,2.0870733605116364e+16,1507599933190218.2,1681494200826055.5,6764445525.36968,13081282145.519043,191587486847.38242,4166853582991.3003
28.464665897640828,1.7884733152683016e+16,2.111579058349138e+16,1525294117962680.0,1701229323140313.5,7005006202.7206,13546485453.14419,198400820131.4359,4315037393563.853
29.133959215593645,1.809390152559808e+16,2.1362854951832456e+16,1543132980088485.5,1721125810631852.8,7253203653.18123,14026456979.987505,205430447658.70947,4467925405707.24
29.816638399905518,1.8304788618811388e+16,2.1611953201239096e+16,1561118422760851.8,1741185786017894.5,7509268739.503873,14521643175.464876,212682908091.97208,4625659828961.746
30.51297116790363,1.8517416843577572e+16,2.1863111939966816e+16,1579252357316921.2,1761411381098933.5,7773439180.614065,15032503747.675337,220164934279.10892,4788387096128.879
31.223230591261704,1.873180871155302e+16,2.2116357899352068e+16,1597536703656565.8,1781804737225844.8,8045959750.794576,15559512048.589174,227883458894.44952,4956257985949.35
31.947695203086937,1.8947986839504052e+16,2.237171793950313e+16,1615973390643920.5,1802368005747777.2,8327082484.465297,16103155470.05806,235845620238.57822,5129427749225.545
32.686649107148675,1.916597395380491e+16,2.2629219054745348e+16,1634564356491016.0,1823103348439980.5,8617066886.697203,16663935850.913399,244058768200.52545,5308056238473.177
33.44038208929165,1.9385792894713596e+16,2.288888837880813e+16,1653311549122392.5,1844012937910503.8,8916180149.59776,17242369895.419617,252530470386.24277,5492308041186.485
34.20918973107749,1.9607466620407148e+16,2.3150753189732804e+16,1672216926519305.0,1865098957984095.0,9224697374.705915,17838989603.348194,261268518417.25195,5682352616801.709
34.993373525699035,1.9831018210756412e+16,2.3414840914475696e+16,1691282457041614.8,1886363604061225.0,9542901801.531624,18454342711.93509,270280934403.31778,5878364437441.872
35.793240996213015,2.005647087081029e+16,2.3681179133173068e+16,1710510119724950.0,1907809083449518.0,9871085042.374897,19088993149.98063,279575977592.9266,6080523132525.055
36.60910581613728,2.028384793395538e+16,2.3949795583027268e+16,1729901904550186.5,1929437615664323.5,10209547323.553463,19743521504.343647,289162151205.2674,6289013637316.335
37.44128793246003,2.0513172864709492e+16,2.4220718161763796e+16,1749459812681671.8,1951251432694408.5,10558597733.165531,20418525499.07209,299048209447.2575,6504026345499.87
38.29011369110923,2.074446926109798e+16,2.449397493060147e+16,1769185856669913.2,1973252779228023.5,10918554475.5063,21114620487.40223,309243164719.0054,6725757265844.6875
39.15591596493141,2.0977760856554536e+16,2.4769594116664996e+16,1789082060613666.8,1995443912833683.5,11289745132.25044,21832439956.840916,319756295010.8499,6954408183032.426
40.03903428423004,2.1213071521278148e+16,2.5047604114760292e+16,1809150460275667.0,2017827104089267.5,11672506930.50171,22572636047.52799,330597151494.87494,7190186822709.215
40.93981496991464,2.1450425262967212e+16,2.532803348841848e+16,1829393103145245.8,2040404636651821.5,12067187017.80017,23335880084.053997,341775566313.43445,7433307020816.898
41.85861126931294,2.1689846226841524e+16,2.5610910970105132e+16,1849812048440200.5,2063178807259694.2,12474142744.162775,24122863120.878452,353301660566.8452,7683988897250.139
42.7957834946992,2.193135869485142e+16,2.589626546047281e+16,1870409367039341.8,2086151925657231.0,12893741951.217295,24934296501.465527,365185852501.9276,7942459033875.55
43.751699164593184,2.2174987083960656e+16,2.618412602652677e+16,1891187141336062.2,2109326314431515.0,13326363268.469149,25770912431.214035,377438865902.54315,8208950656937.428
44.72673314788505,2.2420755943378628e+16,2.6474521898553504e+16,1912147465002263.5,2132704308749050.2,13772396416.7204,26633464564.217754,390071738682.633,8483703823861.134
