t(s),Total solute volume 1,Total retention volume 1,Total 1 volume 1,Total 2 volume 1,Total 3 volume 1,Total 4 volume 1,Total 5 volume 1,Total 6 volume 1
0.1,988500314890707.8,1201179625827040.0,98333854761724.14,114345456174609.27,0.0,0.0,0.0,0.0
0.202,1488979537503168.0,1809536398846855.8,148120436392594.72,172238737594039.0,244954587.60101047,505078860.6635156,8144048576.415081,188793275029.02722
0.30604000000000003,1870140486857505.5,2273009343751294.0,186037496239053.4,216329794208762.28,621461625.0627872,1281409879.0074751,20661978811.161083,479001595655.2291
0.41216080000000005,2192495414175324.0,2665109380265408.0,218104661261505.66,253618423434767.44,1103817550.1928709,2275994016.2704515,36699153329.92275,850802428918.7114
0.5204040160000001,2478718926917598.5,3013380421541608.5,246577551968858.1,286727526257535.7,1680605959.4014351,3465291465.938817,55875996566.671745,1295394503621.4885
0.6308120963200001,2740109648303614.0,3331547081063726.5,272580130757601.6,316964078752594.7,2345696751.3028965,4836662416.489754,77988695035.84544,1808052195711.6758
0.7434283382464002,2983234726854551.0,3627586618518012.5,296765683239095.94,345087740373965.0,3095579080.433791,6382867781.563185,102920520719.39113,2386069082820.8706
0.8582969050113283,3212301166897427.0,3906609585762123.5,319552713027591.5,371585159259665.8,3928265513.910214,8099809646.616711,130605396041.86467,3027913106239.535
0.9754628431115548,3430191764728438.0,4172118212434756.5,341227994410624.4,396789804866408.56,4842752077.663672,9985417921.952707,161009941408.0249,3732810317878.0576
1.094972099973786,3638982193977030.0,4426634502664397.0,361998010873291.5,420941782177557.5,5838719210.782796,12039033731.614584,194123532526.4186,4500514351053.812
1.2168715419732616,3840224888879317.0,4672045051766204.0,382017195187125.44,444220670097463.56,6916352053.663012,14261038860.296732,229952325360.09833,5331167886032.777
1.3412089728127268,4035116482118845.0,4909804416360696.0,401404585761291.6,466764889939643.1,8076225774.135396,16652619304.028759,268515443462.77405,6225214252375.351
1.4680331522689813,4224602256535932.5,5141061977423013.0,420254217270810.4,488683787950573.2,9319228988.288382,19215607369.45255,309842431886.4743,7183338397468.385
1.597393815314361,4409444311055142.5,5366744729594658.0,438641901654331.5,510065520450529.75,10646510791.47365,21952372455.64708,353971496079.0314,8206426055327.536
1.729341691620648,4590267728211218.0,5587613351423030.0,456629820758916.9,530982394294098.8,12059443105.791182,24865743417.463,400948250022.38873,9295534722249.342
1.863928525453061,4767592829940565.0,5804301379037348.0,474269735075817.56,551494598081182.0,13559593346.39006,27958952205.53569,450824807449.6581,10451872586769.777
2.001207095962122,4941858317360288.0,6017343308263104.0,491605285635223.1,571652878866948.2,15148704265.21281,31235592305.688805,503659111696.86774,11676782992362.475
2.1412312378813647,5113438253021312.0,6227195218539373.0,508673683363746.06,591500506595699.8,16828678926.259848,34699587759.17829,559514436166.7646,12971732855758.877
2.284055862638992,5282654773480552.0,6434250211551706.0,525506973703393.44,611074744636478.1,18601569438.94947,38355169931.87337,618459009741.2526,14338303982180.56
2.4297369798917723,5449787772678527.0,6638850171198040.0,542132999892829.0,630407969914443.5,20469568503.217846,42206860081.05599,680565735678.1697,15778186547982.963
2.578331719489608,5615082392423802.0,6841294860583862.0,558576148104435.44,649528539377853.8,22435003099.293694,46259456344.39836,745911981813.9448,17293174236504.88
2.7298983538794,5778754896722070.0,7041849056484479.0,574857931809760.5,668461469515151.1,24500329842.489933,50518024162.09858,814579426124.5862,18885160657380.684
2.884496320956988,5940997335788250.0,7240748214147073.0,590997455745261.8,687228975867778.4,26668131652.001812,54987889408.41509,886653945974.6193,20556136778740.684
3.0421862473761276,6101981290529157.0,7438203015572986.0,607011788405275.1,705850906175806.9,28941115472.813843,59674633694.65078,962225542379.8112,22308189171188.855
3.2030299723236504,6261860909267806.0,7634403058456703.0,622916264128729.1,724345091653116.0,31322110854.1023,64584091438.18109,1041388292746.6229,24143498911999.45
3.3670905717701234,6420775393228655.0,7829519875854699.0,638724730349790.0,742727634497626.4,33814069234.129475,69722348388.23346,1124240327101.2024,26064341033904.55
3.5344323832055258,6578851048028272.0,8023709428961283.0,654449751675683.6,761013145198895.9,36420063815.93471,75095741369.86015,1210883823961.258,28073084429289.64
3.7051210308696363,6736202990081781.0,8217114180958134.0,670102779636277.8,779214939927864.8,39143289943.719696,80710859060.32506,1301425022855.1848,30172192140343.418
3.879223451487029,6892936576111499.0,8409864834737565.0,685694294888491.5,797345205896252.5,41987065909.162384,86574543651.98383,1395974251135.5554,32364221980612.215
4.0568079205167695,7049148608596761.0,8602081798661840.0,701233927131817.0,815415140797817.4,44954834131.66623,92693893286.21404,1494645963225.4915,34651827444798.72
4.237944078927105,7204928358504486.0,8793876430556286.0,716730556847312.5,833435071113402.6,48050162667.966194,99076265166.47052,1597558790815.6255,37037758872441.625
4.422702960505647,7360358437932497.0,8985352099560411.0,732192402106266.4,851414553054564.8,51276747015.41155,105729279276.89885,1704835602825.506,39524864837972.266
4.61115701971576,7515515548637304.0,9176605097373518.0,747627093032106.2,869362459150039.1,54638412180.25637,112660822647.39636,1816603574176.2349,42116093745051.12
4.803380160110075,7670471127277124.0,9367725424188652.0,763041735987767.4,887287052884676.6,58139114987.852264,119879054117.48122,1932994262606.1782,44814495607372.04
4.9994477633122765,7825291904197919.0,9558797469748476.0,778442969162504.1,905196053337401.9,61782946616.10093,127392409560.5237,2054143692909.8733,47623224001565.39
5.199436718578522,7980040389448740.0,9749900606141336.0,793837010919638.1,923096691401378.5,65574135337.11742,135209607537.32027,2180192448099.9197,50545538180599.086
5.403425452950093,8134775297227268.0,9941109705939010.0,809229702019490.5,940995758882035.8,69517049454.9861,143339655354.01733,2311285767088.873,53584805338336.54
5.611493962009095,8289551902103336.0,1.0132495597577126e+16,824626541060550.0,958899649724821.2,73616200309.0672,151791855535.08926,2447573755315.0127,56744522877259.34
5.823723841249277,8444422430082713.0,1.0324125463664386e+16,840032723362150.4,976814405166013.2,77876246056.65073,160575812509.71994,2589211069737.136,60028241925215.11
6.040198318074262,8599436251796202.0,1.0516063197277936e+16,855453160211899.5,994745736209220.6,82301994432.91014,169701439965.34286,2736357668439.948,63439687957772.34
6.261002284435747,8754640202645000.0,1.0708369715167176e+16,870892510693347.8,1012699060571876.4,86898406868.20833,179178968235.1963,2889178511150.7905,66982685370698.12
6.486222330124463,8910078794096669.0,1.0901103237175898e+16,886355202710191.2,1030679527148775.9,91670602177.40712,189018952180.35913,3047843790476.2017,70661179875432.69
6.715946776726952,9065794416299248.0,1.1094319535654492e+16,901845453141895.9,1048692039449618.1,96623860528.81374,199232279374.08582,3212529063872.4595,74479241559937.6
6.950265712261491,9221827519091862.0,1.1288072158748136e+16,917367285850221.9,1066741276537523.4,101763627573.0221,209830178615.8677,3383415390931.889,78441068071404.88
7.18927102650672,9378216774133016.0,1.1482412630868652e+16,932924547807401.5,1084831711783338.6,107095518730.60858,220824228773.07574,3560689475951.255,82550987921425.16
7.433056447036854,9534999220472334.0,1.1677390633175e+16,948520923577296.1,1102967629704747.2,112625323638.2683,232226367949.33682,3744543815768.7114,86813463913289.89
7.681717575977592,9692210395560242.0,1.1873054166487236e+16,964159948347965.4,1121153141120918.4,118359010753.52242,244048902979.90503,3935176852873.469,91233096691530.95
7.935351927497144,9849884453412782.0,1.2069449698719836e+16,979845019686418.8,1139392196821281.5,124302732118.59479,256304519255.27213,4132793133808.144,95814628414159.94
8.194058966047088,1.000805427141305e+16,1.2266622298636364e+16,995579408163012.1,1157688599919872.0,130462828284.47272,269006290875.11536,4337603472897.781,100562946548389.62
8.45794014536803,1.0166751547033864e+16,1.2464615757487634e+16,1011366266973202.4,1176046017043786.5,136845833396.54787,282167691135.442,4549825121351.546,105483087790908.9
8.72709894827539,1.0326006885596856e+16,1.2663472699888912e+16,1027208640667625.0,1194467988484773.0,143458480443.54477,295802603352.4899,4769681941794.504,110580242114039.17
9.0016409272409,1.0485849880040542e+16,1.2863234685120576e+16,1043109473087250.5,1212957937426473.2,150307706671.76535,309925332027.5217,4997404588296.35,115859756939321.02
9.281673745785717,1.0646309183546192e+16,1.3063942299885506e+16,1059071614588059.5,1231519178345455.8,157400659166.92584,324550614357.2602,5233230691973.373,121327141440302.25
9.567307220701432,1.0807412575766694e+16,1.3265635243429704e+16,1075097828629316.0,1250154924672283.0,164744700606.13165,339693632095.1702,5477405052247.761,126988070976474.0
9.85865336511546,1.096918702331122e+16,1.3468352405823144e+16,1091190797790486.6,1268868295788130.5,172347415182.73355,355370023769.2826,5730179833856.126,132848391660487.44
10.155826432417769,1.1131658735062188e+16,1.3672131940102442e+16,1107353129274026.5,1287662323423610.5,180216614707.05118,371595897262.6916,5991814769706.037,138914125060933.52
10.458942961066125,1.129485321283226e+16,1.3877011328895892e+16,1123587359944627.5,1306539957518544.2,188360344886.11087,388387842763.2381,6262577369685.614,145191473043131.5
10.768121820287448,1.1458795297810864e+16,1.4083027446079102e+16,1139895960949628.8,1325504071594709.5,196786891785.75357,405762946089.2909,6542743135537.525,151686822750498.4
11.083484256693197,1.1623509213199012e+16,1.4290216613948944e+16,1156281341960243.0,1344557467687649.5,205504788478.61716,423738802398.8612,6832595781914.296,158406751729212.62
11.405153941827061,1.1789018603386602e+16,1.4498614656348824e+16,1172745855068787.2,1363702880878511.0,214522821881.68314,442333530289.64374,7132427463737.155,165358033199004.5
11.733257020663602,1.195534656998661e+16,1.4708256948131462e+16,1189291798373335.8,1382942983462383.8,223850039787.1993,461565786297.8874,7442539009985.938,172547641473025.72
12.067922161076874,1.212251570500869e+16,1.4919178461303832e+16,1205921419277732.5,1402280388785600.0,233495758090.97205,481454779804.28595,7763240164052.103,179982757529867.47
12.409280604298411,1.229054812142199e+16,1.5131413808163352e+16,1222636917531913.5,1421717654781179.8,243469568222.13208,502020288355.38367,8094849830791.982,187670774740896.72
12.75746621638438,1.2459465481333304e+16,1.5344997281701408e+16,1239440448035014.0,1441257287228314.0,253781344778.63077,523282673409.28345,8437696330421.569,195619304756185.03
13.112615540712067,1.2629289021981266e+16,1.555996289352345e+16,1256334123421211.2,1460901742759284.5,264441253372.84686,545262896514.6565,8792117659398.602,203836183552418.22
13.474867851526309,1.2800039579728716e+16,1.5776344409509246e+16,1273320016446426.8,1480653431634780.2,275459758691.8106,567982535932.4028,9158461758441.902,212329477646252.0
13.844365208556836,1.297173761221537e+16,1.599417538341487e+16,1290400162192044.5,1500514720306436.0,286847632776.67346,591463803709.4557,9537086787841.938,221107490476688.44
14.221252512727972,1.3144403218818326e+16,1.6213489188599274e+16,1307576560100247.8,1520487933783610.0,298615963526.1777,615729563214.5902,9928361410220.602,230178768960131.38
14.605677562982532,1.3318056159552602e+16,1.6434319048039898e+16,1324851175854241.8,1540575357819716.2,310776163428.9778,640803347146.2075,10332665080902.104,239552110221875.0
14.997791114242183,1.3492715872531738e+16,1.6656698062787354e+16,1342225943115154.0,1560779240931992.2,323339978529.81274,666709376022.4138,10750388346060.52,249236568507862.75
15.397746936527026,1.3668401490096666e+16,1.688065923899466e+16,1359702765126533.2,1581101796267228.0,336319497634.59204,693472577163.8678,11181933148812.977,259241462280633.28
15.805701875257567,1.3845131853711222e+16,1.7106235513644938e+16,1377283516196102.2,1601545203324788.0,349727161759.61395,721118604180.1201,11627713143432.018,269576381503471.3
16.221815912762718,1.4022925527713446e+16,1.7333459779089976e+16,1394970043063725.2,1622111609547329.2,363575773830.207,749673856970.396,12088154017853.107,280251195116845.9
16.64625223101797,1.420180081200355e+16,1.7562364906502414e+16,1412764166163550.5,1642803131788474.2,377878508634.19995,779165502249.953,12563693824657.025,291276058711300.8
17.079177275638333,1.4381775753742242e+16,1.7792983768335486e+16,1430667680787767.0,1663621857666048.0,392648923035.74097,809621494613.4092,13054783320710.797,302661422401050.8
17.5207608211511,1.4562868158126672e+16,1.802534925987668e+16,1448682358158557.5,1684569846808544.8,407900966455.0581,841070598146.5895,13561886315653.426,314418038902611.75
17.97117603757412,1.4745095598304892e+16,1.82594943199737e+16,1466809946414340.5,1705649132002034.5,423648991619.87683,873542408598.6528,14085480029416.455,326556971822835.94
18.430599558325603,1.492847542448439e+16,1.8495451951005676e+16,1485052171515936.5,1726861720243791.5,439907765594.2898,907067376126.5066,14626055458972.197,339089604160868.3
18.899211549492115,1.5113024772286734e+16,1.8733255238165764e+16,1503410738077591.0,1748209593708697.5,456692481090.9686,941676828623.6238,15184117754505.5,352027647028528.94
19.37719578048196,1.529876057039348e+16,1.8972937368117496e+16,1521887330127618.2,1769694710633720.5,474018768072.72314,977402995645.6418,15760186605208.965,365383148593751.75
19.864739696091597,1.5485699547527072e+16,1.9214531647080604e+16,1540483611802855.0,1791319006125413.0,491902705649.43896,1014279032945.2502,16354796634902.393,379168503251760.3
20.36203449001343,1.5673858238805516e+16,1.945807151839962e+16,1559201227980767.2,1813084392895001.8,510360834276.6056,1052339047629.1008,16968497807682.803,393396461028727.4
20.869275179813698,1.5863252991506488e+16,1.9703590579643284e+16,1578041804852881.2,1834992761925154.5,529410168261.62103,1091618123949.5936,17601855843811.31,408080137222717.9
21.38666068340997,1.6053899970274092e+16,1.9951122599280256e+16,1597006950442733.8,1857045983072274.8,549068208584.2435,1132152349744.6,18255452646048.438,423233022286816.75
21.91439389707817,1.6245815161798202e+16,2.020070153297288e+16,1616098255071372.5,1879245905607792.0,569352956037.5597,1173978843538.3462,18929886736650.21,438868991959332.8
22.452681775019734,1.6439014378994552e+16,2.0452361539527732e+16,1635317291773163.0,1901594358701680.2,590282924695.954,1217135782316.754,19625773705240.027,455002317646106.8
23.00173541052013,1.6633513264710536e+16,2.070613699653956e+16,1654665616664447.2,1924093151851156.8,611877155716.626,1261662429990.8699,20343746667775.73,471647677059942.9
23.561770118730532,1.6829327294981186e+16,2.0962062515763052e+16,1674144769267432.8,1946744075257279.8,634155231481.2714,1307599166561.8665,21084456736829.6,488820165122261.44
24.133005521105144,1.7026471781855904e+16,2.1220172958242916e+16,1693756272791393.8,1969548900151986.8,657137290084.5927,1354987518001.5608,21848573503405.94,506535305132119.44
24.715665631527248,1.7224961875816868e+16,2.148050344923332e+16,1713501634373264.2,1992509379077796.0,680844040176.3887,1403870186862.244,22636785530518.49,524809060207796.6
25.309978944157795,1.7424812567807228e+16,2.17430893929337e+16,1733382345279360.0,2015627246122439.8,705296776164.0093,1454291083629.88,23449800858754.2,543657845006138.25
25.91617852304095,1.7626038690885774e+16,2.2007966487067696e+16,1753399881070029.0,2038904217110274.0,730517393782.013,1506295358834.7869,24288347524052.523,563098537724964.4
26.53450209350177,1.7828654921524454e+16,2.2275170737329196e+16,1773555701728684.5,2062341989752353.2,756528406035.9193,1559929435934.0251,25153174087926.117,583148492393811.9
27.165192135371807,1.803267578056244e+16,2.2544738471719188e+16,1793851251756738.5,2085942243756815.2,783352959526.9755,1615241044979.7673,26045050180356.83,603825551458344.9
27.808495978079243,1.823811563383053e+16,2.2816706354794964e+16,1814287960235700.8,2109706640901084.8,811014851164.8918,1672279257088.0237,26964767055596.24,625148058663772.9
28.464665897640828,1.8444988692457972e+16,2.3091111401851816e+16,1834867240857724.2,2133636825067381.0,839538545275.5254,1731094519722.1064,27913138161103.4,647134872242656.0
29.133959215593645,1.86533090128727e+16,2.33679909930572e+16,1855590491925586.0,2157734422242744.8,868949191110.4985,1791738692805.2795,28890999719852.637,669805378412430.0
29.816638399905518,1.886309049650515e+16,2.3647382887553936e+16,1876459096323280.8,2182001040484766.0,899272640765.7444,1854265085677.037,29899211326244.33,693179505188057.4
30.51297116790363,1.9074346889205044e+16,2.3929325237550544e+16,1897474421457952.5,2206438269854131.5,930535467515.985,1918728494907.4395,30938656555850.25,717277736515156.4
31.223230591261704,1.9287091780378776e+16,2.421385660241336e+16,1918637819174099.8,2231047682314827.8,962764984572.0659,1985185242983.8223,32010243589225.918,742121126728911.8
31.947695203086937,1.9501338601854604e+16,2.4501015962774508e+16,1939950625640708.0,2255830831602884.5,995989264268.1084,2053693217884.306,33114905850020.45,767731315344121.5
32.686649107148675,1.9717100626481868e+16,2.479084273466851e+16,1961414161211872.5,2280789253064335.0,1030237157685.3102,2124311913552.1003,34253602657611.246,794130542181605.6
33.44038208929165,1.9934390966468396e+16,2.5083376783709384e+16,1983029730261428.0,2305924463462879.0,1065538314719.2108,2197102471284.804,35427319894490.45,821341662836174.0
34.20918973107749,2.0153222571459932e+16,2.5378658439316052e+16,2004798620991888.0,2331237960757752.0,1101923204597.0547,2272127722052.2935,36637070688623.88,849388164491235.0
34.993373525699035,2.0373608226363532e+16,2.567672850899603e+16,2026722105217911.8,2356731223851893.0,1139423136851.7917,2349452229756.85,37883896111001.34,878294182085093.2
35.793240996213015,2.0595560548915172e+16,2.5977628292690604e+16,2048801438124342.0,2382405712310618.0,1178070282759.1184,2429142335448.5186,39168865888587.6,908084514833703.4
36.60910581613728,2.0819091986989988e+16,2.6281399597186384e+16,2071037857998650.8,2408262866050477.5,1217897697243.5947,2511266202508.511,40493079132880.445,938784643114616.5
37.44128793246003,2.1044214815652228e+16,2.658808475059257e+16,2093432585937434.5,2434304104997979.5,1258939341259.7888,2595893862812.6,41857665084268.7,970420745716564.1
38.29011369110923,2.1270941133938468e+16,2.6897726616882188e+16,2115986825526449.2,2460530828717491.5,1301230104653.9097,2683097263886.043,43263783872375.86,1003019717458875.6
39.15591596493141,2.149928286136581e+16,2.7210368610490104e+16,2138701762493244.2,2486944416007363.0,1344805829511.0923,2772950317060.6553,44712627292558.04,1036609187184621.6
40.03903428423004,2.1729251734154044e+16,2.752605471095861e+16,2161578564331363.8,2513546224462864.5,1389703333992.968,2865528946643.478,46205419598713.38,1071217536131013.5
40.93981496991464,2.196085930114695e+16,2.7844829477615336e+16,2184618379894561.2,2540337590004399.5,1435960436669.5762,2960911140105.7236,47743418312536.36,1106873916680144.1
41.85861126931294,2.219411691941361e+16,2.816673806426416e+16,2207822338959277.0,2567319826368705.0,1483615981349.0938,3059176999298.886,49327915049331.97,1143608271492606.0
42.7957834946992,2.2429035749508176e+16,2.8491826233863264e+16,2231191551753075.8,2594494224560489.5,1532709862407.9019,3160408792703.4873,50960236360477.71,1181451353025971.0
43.751699164593184,2.2665626750360628e+16,2.882014037315981e+16,2254727108446367.5,2621862052261424.5,1583283050622.7869,3264691008714.1206,52641744592588.13,1220434743439372.2
