t(s),Total solute volume 1,Total retention volume 1,Total 1 volume 1,Total 2 volume 1,Total 3 volume 1,Total 4 volume 1,Total 5 volume 1,Total 6 volume 1
0.1,1323473711248431.8,2617890617675497.5,487117646595586.6,807299259831480.0,0.0,0.0,0.0,-8.892789209081686e-83
0.202,1985635938306172.8,3937068190334109.5,730833056417089.5,1211208577279502.0,1955637564.158856,6954070123.736785,251893506916.10004,9129815116739.707
0.30604000000000003,2489127624373842.5,4947547248724162.0,916148182289089.1,1518331091961170.2,4952036731.121809,17609192381.50525,638213330591.7728,23279575540352.285
0.41216080000000005,2913366264643721.5,5805342666283244.0,1072293434870823.4,1777110406339319.2,8781220244.328375,31225718868.973938,1131983340782.1997,41400570149489.336
0.5204040160000001,3288519083109623.0,6569656294203373.0,1210372162065804.5,2005948090738633.8,13348877740.42237,47468271754.89327,1721019686201.7534,63035121453612.68
0.6308120963200001,3629667989662772.5,7270063683567180.0,1335935411086336.5,2214043889718699.0,18602925595.928574,66151638631.83978,2398598470088.1,87933040065051.3
0.7434283382464002,3945591436339573.5,7923775562703939.0,1452214178613051.0,2406752530156438.0,24512168813.844738,87164888996.23344,3160693617373.435,115945046919690.39
0.8582969050113283,4241916181563340.5,8541828166704438.0,1561279449091157.2,2587506251919928.0,31057509123.201714,110440109077.4804,4004840690124.7744,146979945821686.06
0.9754628431115548,4522497767514118.0,9131792342139434.0,1664550293189794.2,2758656878957217.0,38227602117.5177,135936958234.16068,4929576020786.507,180983661897169.22
1.094972099973786,4790110724604705.0,9699126889904660.0,1763047904435805.8,2921896833929234.5,46016445101.65963,163634091177.26364,5934125294702.713,217927651103929.78
1.2168715419732616,5046827961863906.0,1.0247921849911078e+16,1857535237622431.2,3078490560778718.0,54421922217.66047,193523984361.44022,7018215758673.355,257801927980772.03
1.3412089728127268,5294244756813047.0,1.0781336976031122e+16,1948599450513374.5,3229411155263935.5,63444871632.95534,225609618866.58197,8181955832277.791,300610603117979.9
1.4680331522689813,5533618603206767.0,1.1301875282126734e+16,2036703376195811.2,3375425670023560.0,73088458622.31912,259902251055.07312,9425754205775.514,346368887785135.6
1.597393815314361,5765960544544875.0,1.1811561557920268e+16,2122219139288451.8,3517150826674350.0,83357738234.4064,296419857401.25525,10750263407693.248,395101006409259.4
1.729341691620648,5992097074300292.0,1.2312063268913076e+16,2205450938936415.2,3655090774038434.5,94259340891.1538,335186016475.47797,12156339237915.275,446838697042652.6
1.863928525453061,6212713410586799.0,1.2804775020535784e+16,2286650976483326.5,3789663485052928.5,105801240723.93246,376229085143.2435,13645010877895.08,501620107208966.56
2.001207095962122,6428384558796203.0,1.3290879148369052e+16,2366030888383998.0,3921219704520634.5,117992581358.95274,419581579055.92615,15217458414250.916,559488964093552.4
2.1412312378813647,6639598120999274.0,1.3771390184077794e+16,2443770141431413.5,4050056862508366.0,130843542667.38608,465279698813.37866,16874995648313.893,620493940248950.6
2.284055862638992,6846771379598154.0,1.4247188142129278e+16,2520022320564941.5,4176429495122858.5,144365237402.7216,513362962406.453,18619056762091.48,684688161881424.1
2.4297369798917723,7050264316833557.0,1.4719043876505082e+16,2594919920829506.5,4300557186218136.0,158569630083.28998,563873916764.0264,20451185854492.99,752128823222537.9
2.578331719489608,7250389690871475.0,1.5187638697781494e+16,2668578055979536.0,4422630713659723.5,173469472725.6011,616857909221.9904,22373028651741.207,822876881237065.1
2.7298983538794,7447420941691052.0,1.5653579760988274e+16,2741097368319688.0,4542816871799629.0,189078253543.01376,672362905097.3677,24386325890613.434,896996812128651.4
2.884496320956988,7641598471101864.0,1.611741228698089e+16,2812566340127593.0,4661262302194120.0,205410155760.42056,730439341235.268,26492908006865.76,974556416053437.5
3.0421862473761276,7833134687063541.0,1.657962937869913e+16,2883063150265991.5,4778096570564363.0,222480024421.6829,791140007978.3176,28694690854882.23,1055626659917958.6
3.2030299723236504,8022218096570644.0,1.7040679986730676e+16,2952657180609637.0,4893434663395644.0,240303339584.61105,854519953850.4319,30993672251440.85,1140281550609854.5
3.3670905717701234,8209016657277862.0,1.7500975433892126e+16,3021410249644338.0,5007379032379396.0,258896194674.0168,920636408582.8772,33391929184967.574,1228598032802298.8
3.5344323832055258,8393680545362218.0,1.7960894805696062e+16,3089377631206164.0,5120021282768183.0,278275279039.92883,989548721094.0636,35891615567334.414,1320655906792017.0
3.7051210308696363,8576344459099569.0,1.842078943937878e+16,3156608902335694.0,5231443578523425.0,298457863974.401,1061318309768.2648,38494960431882.89,1416537762814482.8
3.879223451487029,8757129549817362.0,1.8880986689908524e+16,3223148653984378.0,5341719820168020.0,319461791596.1968,1136008622932.6772,41204266501460.11,1516328929022772.2
4.0568079205167695,8936145051278857.0,1.934179311121472e+16,3289037090725623.0,5450916638686668.0,341305466131.72235,1213685107855.6287,44021909065619.48,1620117430883971.2
4.237944078927105,9113489663109838.0,1.9803497160781388e+16,3354310539938739.0,5559094239395773.0,364007847212.4526,1294415186915.6812,46950335117997.41,1727993960184935.2
4.422702960505647,9289252732180530.0,2.0266371512957304e+16,3419001886628331.0,5666307122568931.0,387588444880.83386,1378268239846.132,49992062714120.92,1840051852180636.5
4.61115701971576,9463515266904622.0,2.0730675048907184e+16,3483140946747121.0,5772604702144373.0,412067316052.938,1465315591159.9185,53149680517178.0,1956387069686645.5
4.803380160110075,9636350812506658.0,2.1196654577678388e+16,3546754789346823.5,5878031839625142.0,437465062230.9323,1555630502018.9998,56425847505047.84,2077098193130437.2
4.9994477633122765,9807826209926252.0,2.166454633238303e+16,3609868015900363.5,5982629306999385.0,463802828294.1448,1649288165939.3694,59823292816505.1,2202286415746296.0
5.199436718578522,9978002256801436.0,2.2134577277279624e+16,3672503003583452.5,6086434189930605.0,491102302226.3661,1746365707825.489,63344815718230.234,2332055543235857.0
5.403425452950093,1.014693428563115e+16,2.2606966255038584e+16,3734680118072965.0,6189480240428050.0,519385715660.37225,1846942185910.888,66993285677272.28,2466511997327591.5
5.611493962009095,1.0314672671551996e+16,2.308192499830122e+16,3796417900439241.0,6291798186583153.0,548675845139.79614,1951098596249.83,70771642526078.34,2605764822759356.5
5.823723841249277,1.048126328002928e+16,2.355965902549271e+16,3857733231923257.5,6393416005654411.0,578996014014.148,2058917879460.6272,74682896709227.55,2749925697283061.0
6.040198318074262,1.0646747863037594e+16,2.4040368437503096e+16,3918641479754788.0,6494359165731644.0,610370094895.8416,2170484929467.5608,78730129602687.86,2899108944352022.0
6.261002284435747,1.0811164410906088e+16,2.452424862913309e+16,3979156626652603.5,6594650840356531.0,642822512618.8235,2285886604026.752,82916493897808.0,3053431548203432.0
6.486222330124463,1.097454746586132e+16,2.5011490926986264e+16,4039291386226985.5,6694312099778968.0,676378247647.5747,2405211736853.6484,87245214043425.92,3213013171091082.0
6.715946776726952,1.1136928402360848e+16,2.550228316366824e+16,4099057306159328.0,6793362081956515.0,711062839892.7866,2528551151196.8394,91719586740462.97,3377976172460007.5
6.950265712261491,1.129833567853803e+16,2.5996810196656096e+16,4158464860748891.0,6891818145931979.0,746902392896.54,2655997674726.079,96342981484203.39,3548445629885406.5
7.18927102650672,1.1458795062435656e+16,2.649525437895704e+16,4217523534180350.0,6989696009832624.0,783923578355.3298,2787646155621.768,101118841150172.62,3724549361624265.0
7.433056447036854,1.1618329836172086e+16,2.6997795987641116e+16,4276241895669116.0,7087009875408368.0,822153640953.9529,2923593479770.125,106050682620135.19,3906417950650683.0
7.681717575977592,1.177696098073579e+16,2.7504613615469304e+16,4334627667476886.0,7183772540753889.0,861620403487.4005,3063938588982.6836,111142097445258.17,4094184770065018.0
7.935351927497144,1.1934707343729402e+16,2.8015884530110972e+16,4392687786651432.5,7279995502629869.0,902352272251.365,3208782500171.2207,116396752543940.95,4287986009783928.5
8.194058966047088,1.209158579206685e+16,2.8531785004834456e+16,4450428461228402.0,7375689049606163.0,944378242685.0919,3358228325420.133,121818390932205.62,4487960704432710.0
8.45794014536803,1.2247611351359748e+16,2.905249062403591e+16,4507855221533720.0,7470862347085157.0,987727905252.9443,3512381292908.069,127410832484892.9,4694250762374263.0
8.72709894827539,1.240279733349984e+16,2.957817656653366e+16,4564972967141706.0,7565523515125508.0,1032431451553.4746,3671348768638.5864,133177974726211.3,4907000995820197.0
9.0016409272409,1.2557155453752548e+16,3.010901786917967e+16,4621786009972463.0,7659679699867205.0,1078519680646.8228,3835240278947.639,139123793648457.64,5126359151979388.0
9.281673745785717,1.2710695938507168e+16,3.0645189673021164e+16,4678298113950415.0,7753337139257736.0,1126024005593.2336,4004167533761.85,145252344557971.62,5352475945208573.0
9.567307220701432,1.2863427624689404e+16,3.1186867453971084e+16,4734512531594073.0,7846501223692196.0,1174976460197.026,4178244450587.7344,151567762947596.72,5585505090137006.0
9.85865336511546,1.3015358051717168e+16,3.1734227239708572e+16,4790432037861291.0,7939176552105019.0,1225409705951.987,4357587179217.447,158074265395123.94,5825603335744767.0
10.155826432417769,1.3166493546775118e+16,3.2287445814330936e+16,4846058961535402.0,8031366983986128.0,1277357039185.4548,4542314127141.226,164776150487360.84,6072930500380576.0
10.458942961066125,1.3316839304091536e+16,3.2846700912098532e+16,4901395214403859.0,8123075687738685.0,1330852398399.6028,4732545985661.551,171677799769633.88,6327649507710774.0
10.768121820287448,1.3466399458820562e+16,3.3412171401464336e+16,4956442318451325.0,8214305185746168.0,1385930371809.5964,4928405756707.454,178783678720682.34,6589926423597057.0
11.083484256693197,1.3615177156064214e+16,3.3984037460446132e+16,5011201431263946.0,8305057396474764.0,1442626205079.3457,5130018780351.937,186098337753028.5,6859930493904784.0
11.405153941827061,1.3763174615506736e+16,3.4562480744284828e+16,5065673369818618.0,8395333673899377.0,1500975809256.4934,5337512763038.146,193626413239039.75,7137834183248759.0
11.733257020663602,1.391039319208151e+16,3.5147684546229144e+16,5119858632812064.0,8485134844509537.0,1561015768909.247,5551017806523.471,201372628563012.44,7423813214687646.0
12.067922161076874,1.4056833433043132e+16,3.5739833952201876e+16,5173757421666793.0,8574461242122481.0,1622783350468.4072,5770666437553.981,209341795199712.2,7718046610381768.0
12.409280604298411,1.4202495131777088e+16,3.633911599002206e+16,5227369660336284.0,8663312740706385.0,1686316510778.8271,5996593638283.574,217538813819910.53,8020716733233284.0
12.75746621638438,1.4347377378642488e+16,3.694571977379155e+16,5280695014018070.0,8751688785393458.0,1751653905865.1396,6228936877455.645,225968675423542.22,8332009329530668.0
13.112615540712067,1.4491478609110932e+16,3.755983664399376e+16,5333732906871954.0,8839588421844214.0,1818834899917.4124,6467836142367.09,234636462501214.22,8652113572623142.0
13.474867851526309,1.4634796649438e+16,3.818166030379825e+16,5386482538829591.0,8927010324106149.0,1887899574502.8628,6713433971636.721,243547350224850.38,8981222107653527.0
13.844365208556836,1.477732876007574e+16,3.8811386952019864e+16,5438942901573037.0,9013952821094936.0,1958888738010.6003,6965875488802.408,252706607668368.88,9319531097380944.0
14.221252512727972,1.4919071677015226e+16,3.9449215413137976e+16,5491112793751237.0,9100413921812486.0,2031843935336.6309,7225308436773.432,262119599059337.1,9667240269127612.0
14.605677562982532,1.506002165122527e+16,4.009534726474567e+16,5542990835495935.0,9186391339404390.0,2106807457817.23,7491883213166.007,271791785062622.47,1.0024552962886442e+16
14.997791114242183,1.5200174486338712e+16,4.07499869627646e+16,5594575482292294.0,9271882514147570.0,2183822353418.999,7765752906552.395,281728724097141.6,1.0391676180628924e+16
15.397746936527026,1.5339525574718542e+16,4.141334196473462e+16,5645865038253537.0,9356884635450324.0,2262932437194.603,8047073333655.055,291936073686842.7,1.076882063685456e+16
15.805701875257567,1.547806993202448e+16,4.20856228514579e+16,5696857668843546.0,9441394662937454.0,2344182302013.5273,8336003077519.337,302419591847140.06,1.1156200810425816e+16
16.221815912762718,1.5615802230386312e+16,4.276704344725694e+16,5747551413086479.0,9525409346685292.0,2427617329577.7134,8632703526699.537,313185138508054.8,1.1554034997734624e+16
16.64625223101797,1.5752716830279284e+16,4.345782093908439e+16,5797944195299014.0,9608925246665490.0,2513283701732.167,8937338915494.63,324238676975395.3,1.1962545367247998e+16
17.079177275638333,1.5888807811186852e+16,4.4158175994702536e+16,5848033836375919.0,9691938751448640.0,2601228412081.2026,9250076365271.24,335586275431310.6,1.2381958015482498e+16
17.5207608211511,1.6024069001126074e+16,4.486833288013737e+16,5897818064657280.0,9774446096214374.0,2691499277921.2007,9571085926912.73,347234108475654.9,1.2812503024459154e+16
17.97117603757412,1.6158494005103162e+16,4.558851957659226e+16,5947294526401800.0,9856443380108958.0,2784144952501.145,9900540624434.543,359188458709595.8,1.3254414520691848e+16
18.430599558325603,1.6292076232559324e+16,4.63189678969982e+16,5996460795888491.0,9937926582986642.0,2879214937622.4365,10238616499806.48,371455718362964.75,1.3707930735763272e+16
18.899211549492115,1.6424808923859482e+16,4.705991360236116e+16,6045314385166196.0,1.0018891581567558e+16,2976759596589.874,10585492659024.393,384042390966862.75,1.4173294068545442e+16
19.37719578048196,1.655668517587137e+16,4.7811596518060936e+16,6093852753468131.0,1.009933416504048e+16,3076830167525.786,10941351319474.12,396955093073102.3,1.4650751149120798e+16
19.864739696091597,1.6687697966676008e+16,4.8574260650239816e+16,6142073316306826.0,1.0179250050135864e+16,3179478777059.711,11306377858631.293,410200556022040.8,1.5140552904463328e+16
20.36203449001343,1.6817840179446558e+16,4.934815430241938e+16,6189973454263118.0,1.0258634895691766e+16,3284758454406.0527,11680760864141.61,423785627760458.56,1.5642954625938868e+16
20.869275179813698,1.6947104625527582e+16,5.0133530192466856e+16,6237550521480532.0,1.0337484316731526e+16,3392723145842.4756,12064692185326.99,437717274711085.2,1.6158216038685016e+16
21.38666068340997,1.707548406674269e+16,5.093064557003364e+16,6284801853875875.0,1.0415793898071448e+16,3503427729601.818,12458366986162.84,452002583695456.2,1.668660137293227e+16
21.91439389707817,1.7202971236955552e+16,5.173976233457439e+16,6331724777075055.0,1.0493559207472464e+16,3616928031190.554,12861983799772.963,466648763911775.75,1.7228379437328578e+16
22.452681775019734,1.7329558862905124e+16,5.256114715405881e+16,6378316614081620.0,1.0570775808349402e+16,3733280839146.962,13275744584489.084,481663148969465.06,1.7783823694329632e+16
23.00173541052013,1.7455239684334262e+16,5.339507158447306e+16,6424574692685314.0,1.0647439272049104e+16,3852543921252.069,13699854781521.086,497053198982120.5,1.835321233771941e+16
23.561770118730532,1.7580006473427242e+16,5.424181219020979e+16,6470496352616249.0,1.0723545189707138e+16,3974776041206.7812,14134523374286.086,512826502720582.56,1.8936828372323068e+16
24.133005521105144,1.7703852053570412e+16,5.510165066544335e+16,6516078952449970.0,1.0799089183691388e+16,4100036975788.466,14579962949443.387,528990779827848.94,1.953495969597854e+16
24.715665631527248,1.782676931744724e+16,5.597487395657333e+16,6561319876267513.0,1.0874066918639874e+16,4228387532500.2964,15036389759682.77,545553883097546.8,2.0147899183828988e+16
25.309978944157795,1.7948751244478694e+16,5.6861774385828824e+16,6606216540074436.0,1.0948474112098996e+16,4359889567726.7915,15504023788313.547,562523800817701.9,2.077594477500293e+16
25.91617852304095,1.8069790917616452e+16,5.776264977611345e+16,6650766397981875.0,1.102230654476729e+16,4494606005408.94,15983088815702.898,579908659181530.8,2.1419399561745216e+16
26.53450209350177,1.818988153949735e+16,5.867780357717346e+16,6694966948152189.0,1.1095560070349384e+16,4632600856252.095,16473812487609.244,597716724766971.5,2.2078571881063748e+16
27.165192135371807,1.83090164479644e+16,5.960754499316671e+16,6738815738511772.0,1.1168230625023448e+16,4773939237480.053,16976426385459.639,615956407086681.2,2.275377540895742e+16
27.808495978079243,1.8427189130960296e+16,6.055218911170955e+16,6782310372232619.0,1.1240314236526192e+16,4918687393148.476,17491166098616.96,634636261210209.8,2.3445329257288508e+16
28.464665897640828,1.8544393240797372e+16,6.1512057034477e+16,6825448512984637.0,1.1311807032857268e+16,5066912715030.835,18018271298684.484,653764990460038.0,2.4153558073363984e+16
29.133959215593645,1.866062260780873e+16,6.2487476009428024e+16,6868227889959984.0,1.1382705250606212e+16,5218683764089.805,18557985815893.934,673351449183185.5,2.4878792142289956e+16
29.816638399905518,1.877587125338279e+16,6.347877956472874e+16,6910646302670698.0,1.1453005242903402e+16,5374070292547.307,19110557717622.72,693404645600053.6,2.5621367492161748e+16
30.51297116790363,1.8890133402385784e+16,6.448630764444495e+16,6952701625520819.0,1.1522703486997688e+16,5533143266565.549,19676239389086.94,713933744732152.5,2.6381626002152984e+16
31.223230591261704,1.900340349497447e+16,6.551040674607164e+16,6994391812154121.0,1.1591796591461584e+16,5695974889552.303,20255287616254.02,734948071410379.0,2.7159915513565284e+16
31.947695203086937,1.911567619780105e+16,6.655143005997018e+16,7035714899578333.0,1.16602813030267e+16,5862638626102.366,20847963671020.55,756457113365444.1,2.79565899439016e+16
32.686649107148675,1.9226946414614972e+16,6.7609737610781176e+16,7076669012067187.0,1.172815451305017e+16,6033209226588.09,21454533398699.28,778470524402055.4,2.8772009404021604e+16
33.44038208929165,1.9337209296262796e+16,6.868569640087945e+16,7117252364840854.0,1.1795413263614624e+16,6207762752410.816,22075267307857.38,800998127658444.5,2.9606540318442416e+16
34.20918973107749,1.944646025008969e+16,6.977968055593822e+16,7157463267526509.0,1.1862054753263174e+16,6386376601925.386,22710440662551.402,824049918952804.1,3.0460555548841544e+16
34.993373525699035,1.9554694948746644e+16,7.089207147267186e+16,7197300127399657.0,1.192807634237124e+16,6569129537049.487,23360333576998.066,847636070218136.4,3.1334434520822212e+16
35.793240996213015,1.9661909338405576e+16,7.202325796882024e+16,7236761452407946.0,1.1993475558158152e+16,6756101710569.693,24025231112725.1,871766933027072.4,3.2228563353998144e+16
36.60910581613728,1.9768099646387536e+16,7.317363643544154e+16,7275845853978707.0,1.2058250099339744e+16,6947374694155.392,24705423378241.375,896453042208115.8,3.3143334995455076e+16
37.44128793246003,1.9873262388207372e+16,7.4343610991584e+16,7314552049611906.0,1.2122397840425968e+16,7143031507092.057,25401205631266.54,921705119554777.4,3.407914935664563e+16
38.29011369110923,1.9977394374040636e+16,7.553359364139546e+16,7352878865260273.0,1.2185916835665218e+16,7343156645744.927,26112878383560.68,947534077629061.9,3.503641345377111e+16
39.15591596493141,2.0080492714617116e+16,7.674400443374469e+16,7390825237498529.0,1.2248805322639658e+16,7547836113763.944,26840747508392.52,973951023660684.1,3.601554155170657e+16
40.03903428423004,2.018255482654763e+16,7.79752716244141e+16,7428390215483925.0,1.2311061725514172e+16,7757157453040.596,27585124350682.84,1000967263543455.9,3.701695531152136e+16
40.93981496991464,2.028357843708977e+16,7.9227831840937e+16,7465572962710392.0,1.2372684657943694e+16,7971209775427.466,28346325839862.926,1028594305930141.1,3.804108394164776e+16
