t(s),Total solute volume 1,Total retention volume 1,Total 1 volume 1,Total 2 volume 1,Total 3 volume 1,Total 4 volume 1,Total 5 volume 1,Total 6 volume 1
0.1,898666397951953.1,1036126891881881.2,66325422320955.914,71135071608968.8,0.0,0.0,0.0,0.0
0.202,1353730455856865.2,1561323439489316.5,99911095543074.61,107156241415735.81,999074351.5949988,1819089382.4089494,24340696811.39678,498487813095.1157
0.30604000000000003,1700102195669019.8,1961484214843974.2,125474810881268.36,134573733366514.4,2534440615.773751,4614647830.770152,61747374057.2433,1264578464668.6338
0.41216080000000005,1992904800937563.5,2300108774991288.0,147084895042978.4,157750892874527.03,4501014146.186641,8195340649.390312,109659771457.0617,2245830009968.422
0.5204040160000001,2252775993953404.0,2600966999297502.0,166264500178161.78,178321324903391.53,6852042229.004091,12476042529.413858,166938840084.81747,3418913337696.1704
0.6308120963200001,2489997854106300.5,2875900471299351.5,183772487708964.6,197098920421178.6,9562345878.78678,17410909054.288574,232971144587.676,4771264663382.519
0.7434283382464002,2710546193860960.0,3131791440969402.0,200049898145680.44,214556702402196.38,12617431364.340517,22973551258.09133,307403579887.21,6295651998050.074
0.8582969050113283,2918248865508633.0,3373048912963058.0,215379243353765.2,230997669322988.78,16009015933.896347,29148888992.437378,390034362147.1782,7987942510595.346
0.9754628431115548,3115728545557188.0,3602694479596180.0,229954088072962.56,246629422450565.7,19732822784.98314,35929136073.0487,480759306677.758,9846002249928.23
1.094972099973786,3304873307939727.0,3822904230427984.0,243913780232119.0,261601414658471.9,23787359476.682316,43311576051.16434,579542065936.3025,11869086596208.404
1.2168715419732616,3487094970280185.5,4035306228879670.0,257362518008190.5,276025400151373.06,28173183496.78158,51297224983.02185,686396236303.2457,14057473795135.379
1.3412089728127268,3663481470861429.0,4241155950133194.5,270380595897989.1,289987496056175.06,32892433331.74507,59889977619.43585,801373933416.2202,16412230973236.611
1.4680331522689813,3834891926391216.0,4441445714074292.5,283031420387743.56,303555706839403.2,37948515043.79456,69096036738.38521,924558156187.8656,18935057747962.44
1.597393815314361,4002018668475225.5,4636976096694350.0,295366088510047.56,316784834882468.44,43345885218.88818,78923517947.08347,1056057498746.9777,21628177924693.715
1.729341691620648,4165429260546663.0,4828404292637900.0,307426488872914.2,329719806384727.8,49089896422.396324,89382168296.39905,1196002385280.277,24494262383614.797
1.863928525453061,4325595854266929.5,5016277902811606.0,319247468287657.6,342397995106408.9,55186684755.302536,100483161550.84906,1344542330587.1067,27536372973720.027
2.001207095962122,4482916249624900.0,5201059172086497.0,330858386094270.6,354850889407325.06,61643086682.27883,112238946756.14716,1501843913797.9717,30757921012757.023
2.1412312378813647,4637729351062806.0,5383142776845316.0,342284254889585.9,367105315696018.75,68466576775.41939,124663134889.5678,1668089261671.553,34162636223555.574
2.284055862638992,4790326737659978.0,5562869140244713.0,353546594456316.9,379184354282244.3,75665220763.12872,137770413377.69626,1843474904779.5999,37754543307242.23
2.4297369798917723,4940961476295318.0,5740534574759113.0,364664082212122.56,391108036993961.1,83247640017.34459,151576481440.9914,2028210912371.2168,41537944223897.54
2.578331719489608,5089854938889965.0,5916399128091768.0,375653056351271.06,402893886804777.9,91222984752.60927,166098001300.8727,2222520239490.5034,45517404820212.31
2.7298983538794,5237202148617410.0,6090692736594854.0,386527910417793.56,414557341019945.75,99600913975.68022,181352561678.24268,2426638238563.4785,49697744825501.375
2.884496320956988,5383176024440432.0,6263620111300641.0,397301406570463.25,426112087258044.25,108391580749.59679,197358650968.6984,2640812300466.982,54084030499511.27
3.0421862473761276,5527930788630430.0,6435364661138133.0,407984927072294.4,437570333177465.4,117605621704.03157,214135638149.5391,2865301599055.399,58681569399034.54
3.2030299723236504,5671604719213236.0,6606091675752973.0,418588677435448.2,448943024359614.2,127254149775.37213,231703759902.34457,3100377007214.1465,63495919827775.945
3.3670905717701234,5814322454904507.0,6775950928689414.0,429121856524654.4,460240026719095.06,137348750820.49931,250084113120.07568,3346320644337.5913,68532837032884.836
3.5344323832055258,5956196795661542.0,6945078830269302.0,439592789461793.4,471470269089073.5,147901480491.8601,269298651219.617,3603426353733.2837,73798349571456.89
3.7051210308696363,6097330299106670.0,7113600216483593.0,450009045437884.1,482641869547484.4,158924865171.1891,289370184523.38916,3871999357630.5103,79298707984220.97
3.879223451487029,6237816569390270.0,7281629848849914.0,460377532839427.06,493762237448895.4,170431903552.3465,310322383479.88745,4152356387558.039,85040398496729.11
4.0568079205167695,6377741353234577.0,7449273679816088.0,470704580141140.7,504838160183248.94,182436069885.12613,332179784578.28534,4444825763494.38,91030144639155.89
4.237944078927105,6517183469597186.0,7616629927000455.0,480996004519085.56,515875876764534.06,194951318487.4801,354967798572.95374,4749747503926.522,97274909498672.97
4.422702960505647,6656215602658075.0,7783789990438814.0,491257170376511.44,526881140600686.1,207992089376.78275,378712720745.93994,5067473463178.7,103781898530238.97
4.61115701971576,6794904981773392.0,7950839240033327.0,501493039527342.06,537859273316177.25,221573314899.22336,403441742987.2843,5398367493065.479,110558562865477.84
4.803380160110075,6933313967358098.0,8117857695015068.0,511708214436826.6,548815211128301.8,235710427259.0116,429182967514.1549,5742805626474.232,117612603070586.98
4.9994477633122765,7071500558017292.0,8284920613040170.0,521906975649994.75,559753544989794.75,250419366867.09613,455965422082.66705,6101176280921.272,124951973313215.14
5.199436718578522,7209518831385037.0,8452099003250475.0,532093314327454.7,570678555483981.5,265716591443.6545,483819076572.67456,6473880480479.874,132584885905507.56
5.403425452950093,7347419328868573.0,8619460075027244.0,542270960641153.4,581594243279697.1,281619085820.36914,512774860847.26746,6861332094765.626,140519816196380.6
5.611493962009095,7485249392693762.0,8787067632095069.0,552443408649769.4,592504355810536.9,298144372398.1079,542864683806.2329,7263958093898.183,148765507790891.12
5.823723841249277,7623053462203155.0,8954982419971493.0,562613938166792.4,603412410728707.8,315310522223.54,574121453567.0432,7682198818551.125,157330978078497.47
6.040198318074262,7760873335193204.0,9123262433418006.0,572785634048304.2,614321716591507.4,333136166654.69995,606579098718.8615,8116508264360.136,166225524055262.03
6.261002284435747,7898748399130088.0,9291963189459320.0,582961403257712.1,625235391163496.2,351640509590.92957,640272590604.8314,8567354380090.999,175458728427732.66
6.486222330124463,8036715836312444.0,9461137970650948.0,593143990007634.6,636156377656421.2,370843340247.1508,675237966596.1814,9035219379079.582,185040465988499.38
6.715946776726952,8174810806415020.0,9630838042545746.0,603335989232393.6,647087459178681.6,390765046456.1725,711512354328.5112,9520600063547.436,194980910255315.66
6.950265712261491,8313066609324907.0,9801112848709852.0,613539858606033.0,658031271624840.8,411426628485.94794,749133996876.4752,10024008161474.455,205290540367235.47
7.18927102650672,8451514830748948.0,9972010186139674.0,623757929288762.5,668990315201366.6,432849713361.36597,788142278847.9552,10545970675775.756,215980148232595.44
7.433056447036854,8590185472710313.0,1.0143576363518158e+16,633992415558167.9,679966964756236.5,455056569682.4697,828577753382.9496,11087030245585.564,227060845924786.03
7.681717575977592,8729107070750737.0,1.0315856344401436e+16,644245423459241.5,690963479056256.9,478070122932.9218,870482170046.0216,11647745519497.96,238544073322738.47
7.935351927497144,8868306799402197.0,1.0488893877136004e+16,654518958588622.0,701982009135778.6,501913971274.2088,913898503604.1102,12228691540655.893,250441605993880.9
8.194058966047088,9007810567277762.0,1.066273161306141e+16,664814933112736.8,713024605823751.5,526612401822.504,958870983684.1641,12830460143613.469,262765563318034.94
8.45794014536803,9147643102951982.0,1.0837411214346752e+16,675135172106108.1,724093226541684.6,552190407406.3285,1005445125307.2363,13453660362927.344,275528416851327.4
8.72709894827539,9287828032646526.0,1.101297345263171e+16,685481419284916.6,735189741452958.4,578673703804.2377,1053667760297.6833,14098918853458.27,288742998929726.56
9.0016409272409,9428387950607736.0,1.1189458299494224e+16,695855342201147.2,746315939033639.6,606088747462.5778,1103587069567.6516,14766880322386.385,302422511512263.44
9.281673745785717,9569344482949908.0,1.1366905009637844e+16,706258536954497.1,757473531126084.4,634462753694.3228,1155252616278.6367,15458207972962.717,316580535264386.25
9.567307220701432,9710718345642926.0,1.1545352197581582e+16,716692532472117.0,768664157529022.5,663823715360.4131,1208715379882.911,16173583960036.45,331231038882254.3
9.85865336511546,9852529397240758.0,1.1724837908541822e+16,727158794400199.0,779889390171344.8,694200422035.9247,1264027791048.9763,16913709857411.076,346388388659039.8
10.155826432417769,9994796686875890.0,1.1905399684112038e+16,737658728646170.0,791150736911169.8,725622479663.623,1321243767475.829,17679307137095.65,362067358294586.75
10.458942961066125,1.0137538497983564e+16,1.2087074623277976e+16,748193684605718.5,802449644996865.6,758120330698.0208,1380418750601.8142,18471117660527.82,378283138949978.94
10.768121820287448,1.0280772388165958e+16,1.226989943924207e+16,758764958104955.9,813787504222591.1,791725274743.4944,1441609743214.479,19289904181853.746,395051349548766.5
11.083484256693197,1.0424515225561166e+16,1.2453910512480612e+16,769373794084601.4,825165649807096.5,826469489690.1342,1504875347968.3508,20136450863358.785,412388047326732.9
11.405153941827061,1.0568783222040368e+16,1.2639143940407504e+16,780021389050060.4,836585365021496.8,862386053351.479,1570275806818.1868,21011563803149.574,430309738632256.0
11.733257020663602,1.0713591963521454e+16,1.2825635583980526e+16,790708893308712.9,848047883588786.1,899508965608.3966,1637873041375.4731,21916071575191.07,448833389979401.2
12.067922161076874,1.0858956437657118e+16,1.3013421111549094e+16,801437413013411.9,859554391875524.9,937873171063.5814,1707730694196.5295,22850825781811.434,467976439355988.56
12.409280604298411,1.100489105912767e+16,1.3202536040211722e+16,812208012029195.2,871106030893917.0,977514582211.2437,1779914171010.5654,23816701618785.652,487756807788939.5
12.75746621638438,1.1151409692745068e+16,1.3393015774923614e+16,823021713638465.8,882703898130647.1,1018470103126.8215,1854490683896.5308,24814598453117.13,508192911169294.0
13.112615540712067,1.1298525674553806e+16,1.3584895645571314e+16,833879502098330.5,894349049217145.6,1060777653681.4293,1931529295417.5178,25845440413633.06,529303672339278.3
13.474867851526309,1.1446251831095696e+16,1.3778210942209074e+16,844782324062419.6,906042499454511.6,1104476194285.9934,2011100963721.743,26910176994517.31,551108533443909.6
13.844365208556836,1.159460049698897e+16,1.3972996948633516e+16,855731089878291.5,917785225205017.9,1149605751169.9402,2093278588619.1646,28009783671898.06,573627468549542.2
14.221252512727972,1.1743583530957694e+16,1.416928897445546e+16,866726674770494.0,929578165160933.4,1196207442199.3232,2178137058642.673,29145262533613.51,596880996531872.2
14.605677562982532,1.1893212330434912e+16,1.4367122385814068e+16,877769919918311.4,941422221500448.0,1244323503239.3638,2265753299102.9805,30317642922276.188,620890194235789.2
14.997791114242183,1.2043497844850394e+16,1.4566532634863932e+16,888861633436483.0,953318260939497.2,1293997315066.1506,2356206321146.075,31527982091754.676,645676709909574.1
15.397746936527026,1.2194450587705312e+16,1.4767555288154812e+16,900002591266347.6,965267115687534.1,1345273430832.358,2449577271822.1523,32777365877191.457,671262776915766.2
15.805701875257567,1.234608064752521e+16,1.4970226054013014e+16,911193537984226.9,977269584314532.6,1398197604091.6455,2545949485174.5527,34066909378674.246,697671227721127.1
16.221815912762718,1.249839769777593e+16,1.5174580809023452e+16,922435187533258.2,989326432535888.2,1452816817386.3442,2645408534357.448,35397757658672.83,724925508167974.6
16.64625223101797,1.2651411005819022e+16,1.5380655623703368e+16,933728223884355.4,1001438393921300.8,1509179311402.9297,2748042284790.318,36771086453353.484,753049692029116.4
17.079177275638333,1.2805129440977304e+16,1.5588486787451486e+16,945073301631459.8,1013606170533214.6,1567334614699.5977,2853940948357.4204,38188102897879.01,782068495848590.0
17.5207608211511,1.2959561481774322e+16,1.5798110832848846e+16,956471046525870.0,1025830433499866.1,1627333574010.077,2963197138659.9175,39650046265797.555,812007294070295.4
17.97117603757412,1.3114715222408052e+16,1.6009564559381342e+16,967922055953996.4,1038111823527708.0,1689228385127.7683,3075905927328.134,41158188722618.47,842892134456524.4
18.430599558325603,1.327059837851202e+16,1.6222885056649794e+16,979426899362591.2,1050450951357459.4,1753072624373.9297,3192164901400.955,42713836093673.74,874749753798270.1
18.899211549492115,1.3427218292255454e+16,1.6438109727126312e+16,990986118635136.6,1062848398167789.6,1818921280653.49,3312074221779.151,44318328646349.55,907607593919169.9
19.37719578048196,1.358458193682762e+16,1.665527630851306e+16,1002600228422815.2,1075304715930305.8,1886830788101.9092,3435736682758.7847,45973041886776.84,941493817974703.4
19.864739696091597,1.3742695920350558e+16,1.6874422895754382e+16,1014269716433294.5,1087820427719245.6,1956859059326.0867,3563257772650.639,47679387371054.88,976437327048254.2
20.36203449001343,1.3901566489259064e+16,1.7095587962749534e+16,1025995043680169.4,1100396027979049.2,2029065519242.1946,3694745735490.8657,49438813531081.99,1012467777045413.0
20.869275179813698,1.4061199531185748e+16,1.7318810383810564e+16,1037776644695896.8,1113031982752702.5,2103511139512.955,3830311633847.699,51252806515055.93,1049615595887812.4
21.38666068340997,1.4221600577384866e+16,1.754412945490581e+16,1049614927710698.6,1125728729873632.2,2180258473586.5515,3970069412728.4946,53122891042701.414,1087912001007618.8
21.91439389707817,1.438277480472793e+16,1.777158491472716e+16,1061510274799827.5,1138486679123634.2,2259371692339.0483,4114135964590.722,55050631275272.73,1127389017143594.8
22.452681775019734,1.4544727037300078e+16,1.8001216965616408e+16,1073463042001396.4,1151306212359265.2,2340916620321.814,4262631195459.6567,57037631700372.79,1168079494439507.0
23.00173541052013,1.4707461747625846e+16,1.8233066294383376e+16,1085473559406834.4,1164187683608846.0,2424960772615.0977,4415678092155.359,59085538031615.25,1210017126845461.0
23.561770118730532,1.4870983057549762e+16,1.8467174093046336e+16,1097542131225901.1,1177131419142196.0,2511573392288.331,4573402790630.116,61196038123153.03,1253236470822455.8
24.133005521105144,1.503529473879653e+16,1.8703582079522784e+16,1109669035828004.4,1190137717514943.8,2600825488467.4814,4735934645417.108,63370862899080.14,1297772964350343.8
24.715665631527248,1.5200400213232924e+16,1.8942332518295644e+16,1121854525761542.5,1203206849589278.0,2692789875009.0566,4903406300189.981,65611787297703.51,1343662946238979.2
25.309978944157795,1.5366302552852228e+16,1.9183468241079816e+16,1134098827752755.8,1216339058532706.5,2787541209780.0166,5075953759432.097,67920631230666.836,1390943675742224.2
25.91617852304095,1.553300447950071e+16,1.9427032667509304e+16,1146402142685542.0,1229534559796404.5,2885156034541.9375,5253716461212.926,70299260556895.695,1439653352473983.2
26.53450209350177,1.5700508364363386e+16,1.9673069825864508e+16,1158764645563487.8,1242793541074515.5,2985712815437.5293,5436837351068.108,72749588071315.11,1489831136625317.0
27.165192135371807,1.5868816227224994e+16,1.9921624373856444e+16,1171186485455347.5,1256116162245655.8,3089291984076.3145,5625462956978.078,75273574508272.45,1541517169481079.2
27.808495978079243,1.603792973552041e+16,2.0172741619481624e+16,1183667785424939.5,1269502555297730.5,3195975979215.9917,5819743465438.758,77873229559579.6,1594752594234313.2
28.464665897640828,1.620785020318652e+16,2.0426467541960744e+16,1196208642446430.5,1282952824237068.0,3305849289034.5415,6019832798616.246,80550612907062.83,1649579577096018.5
29.133959215593645,1.6378578589326358e+16,2.0682848812768252e+16,1208809127305719.2,1296467044982678.8,3418998493987.462,6225888692575.085,83307835269486.48,1706041328697438.8
29.816638399905518,1.6550115496693476e+16,2.0941932816760184e+16,1221469284488593.0,1310045265246266.8,3535512310243.2036,6438072776567.97,86147059463687.27,1764182125781400.2
30.51297116790363,1.6722461170002902e+16,2.1203767673402984e+16,1234189132056063.2,1323687504398552.8,3655481633688.371,6656550653372.277,89070501479717.06,1824047333178658.2
31.223230591261704,1.6895615494072668e+16,2.14684022581012e+16,1246968661507209.5,1337393753322150.0,3778999584493.0464,6881491980655.799,92080431569767.2,1885683426064244.2
31.947695203086937,1.7069577991797412e+16,2.173588622362257e+16,1259807837629607.5,1351163974251159.5,3906161552224.6733,7113070553351.108,95179175350597.48,1949138012488234.2
32.686649107148675,1.7244347821952688e+16,2.200627002160924e+16,1272706598337291.8,1364998100597391.8,4037065241497.0786,7351464387014.867,98369114919146.52,2014459856174196.5
33.44038208929165,1.7419923776826572e+16,2.227960492416426e+16,1285664854495952.8,1378896036762845.8,4171810718139.287,7596855802144.017,101652689980958.31,2081698899577634.0
34.20918973107749,1.7596304279671516e+16,2.2555943045496212e+16,1298682489734869.0,1392857657938063.0,4310500455865.999,7849431509416.877,105032398990987.97,2150906287195521.5
34.993373525699035,1.7773487381967126e+16,2.2835337363599724e+16,1311759360244901.5,1406882809885413.2,4453239383429.495,8109382695822.253,108510800306300.77,2222134389116729.5
35.793240996213015,1.795147076048117e+16,2.311784174194494e+16,1324895294561564.8,1420971308706486.2,4600134932229.353,8376905111634.325,112090513350095.86,2295436824801742.5
36.60910581613728,1.8130251714112776e+16,2.340351095114429e+16,1338090093332055.5,1435122940592191.5,4751297084353.456,8652199158185.576,115774219786415.08,2370868487078277.5
37.44128793246003,1.8309827160500092e+16,2.369240069055947e+16,1351343529064871.0,1449337461554228.2,4906838421020.171,8935469976383.178,119564664704811.2,2448485566338029.0
38.29011369110923,1.8490193632368984e+16,2.398456760980432e+16,1364655345860344.2,1463614597136092.0,5066874171387.779,9226927535907.662,123464657814153.73,2528345574917476.5
39.15591596493141,1.867134727360002e+16,2.4280069330097336e+16,1378025259120362.0,1477954042101723.2,5231522261692.933,9526786725025.22,127477074644654.67,2610507371643831.5
40.03903428423004,1.885328383498522e+16,2.4578964465407804e+16,1391452955235182.8,1492355460099635.0,5400903364675.824,9835267440936.467,131604857757086.19,2695031186525084.5
40.93981496991464,1.903599866964521e+16,2.4881312643338784e+16,1404938091245218.5,1506818483300144.8,5575140949244.601,10152594680576.473,135851017958042.78,2781978645560385.5
41.85861126931294,1.9219486728074908e+16,2.5187174525680564e+16,1418480294475389.2,1521342712003234.8,5754361330326.716,10478998631771.064,140218635519985.9,2871412795644946.5
42.7957834946992,1.9403742552784756e+16,2.5496611828567424e+16,1432079162139600.8,1535927714214332.5,5938693718849.682,10814714764645.248,144710861404671.97,2963398129540534.0
43.751699164593184,1.9588760272501788e+16,2.58096873421635e+16,1445734260912783.2,1550573025185327.2,6128270271787.497,11159983923168.71,149330918488428.97,3058000610880202.5
44.72673314788505,1.9774533595896416e+16,2.6126464949801636e+16,1459445126467880.2,1565278146917981.0,6323226142204.362,11515052416713.982,154082102787614.7,3155287699172804.0
