t(s),Total solute volume 1,Total retention volume 1,Total 1 volume 1,Total 2 volume 1,Total 3 volume 1,Total 4 volume 1,Total 5 volume 1,Total 6 volume 1
0.1,1252217186918146.0,2056959543180943.2,321479351742078.75,483263004520719.3,0.0,0.0,0.0,0.0
0.202,1880226082252997.0,3098524968464873.0,482706896715303.06,725627942603523.1,3233637887.1033173,9896976085.569466,287942488566.2397,9662973790511.156
0.30604000000000003,2356510279684765.0,3896203183763841.0,604982441668356.5,909438357653059.5,8186484270.699708,25055920404.279785,729097413022.8014,24509764939961.742
0.41216080000000005,2757164046209165.5,4573898272074215.0,707841528187297.1,1064061026805419.2,14511514563.455843,44414669439.8274,1292501223934.2412,43480243464395.89
0.5204040160000001,3110923997505303.5,5178323079695960.0,798661653795097.6,1200586157010419.2,22050737441.62034,67489661717.6542,1964073473981.686,66097657511998.9
0.6308120963200001,3432141184756074.5,5732778540383439.0,881127136892770.5,1324552191279850.0,30716221810.85829,94011769880.35152,2735979233321.195,92097320229730.25
0.7434283382464002,3729165697976008.0,6250815701436494.0,957381680377183.2,1439181645854523.0,40454661790.755,123817843554.49481,3603469222219.167,121318935501217.05
0.8582969050113283,4007348861056242.5,6741121830411039.0,1028799119554654.4,1546539735327052.0,51232778299.08642,156806027996.09457,4563578638051.508,153662497028745.1
0.9754628431115548,4270357081892076.5,7209656202101835.0,1096320724417951.1,1648041421516593.5,63030106106.339005,192913687537.85428,5614484378288.731,189066546103280.16
1.094972099973786,4520828489931802.0,7660716285003054.0,1160623776969916.8,1744704826934195.0,75834985677.10785,232105137909.8817,6755147890774.123,227496103152771.84
1.2168715419732616,4760733809257622.0,8097523026690107.0,1222214217490638.5,1837290505062812.0,89642144095.10855,274364242244.80634,7985099633096.531,268935388859604.44
1.3412089728127268,4991589400102909.0,8522565993842874.0,1281481338285190.0,1926383658601880.8,104451142706.50642,319689659829.7458,9304300762442.09,313383155287906.2
1.4680331522689813,5214590269867271.0,8937818625749803.0,1338731931351063.8,2012445471865568.2,120265332666.0448,368091649384.0066,10713050080720.963,360849545603123.1
1.597393815314361,5430696944662595.0,9344878673066374.0,1394212590746596.5,2095846636763828.2,137091125306.81671,419589835909.04517,12211919030178.664,411353900901957.2
1.729341691620648,5640694349411790.0,9745063289349966.0,1448124828767792.5,2176890076158282.0,154937466675.09616,474211602420.6001,13801704879436.541,464923181063577.6
1.863928525453061,5845232974883005.0,1.013947545215359e+16,1500635644683455.0,2255826831287400.0,173815449486.03262,531990902280.78735,15483396153028.111,521590798794924.56
2.001207095962122,6044858430770353.0,1.0529051602174896e+16,1551885111841921.8,2332867467066109.5,193738020505.741,592967363598.882,17258146562803.46,581395740549611.9
2.1412312378813647,6240033149464536.0,1.0914596599579334e+16,1601991949639200.8,2408190448133188.0,214719755980.7768,657185601902.676,19127255001834.65,644381891982695.8
2.284055862638992,6431152644047698.0,1.1296809888631494e+16,1651057697403357.5,2481948413232668.0,236776686714.3641,724694684762.1891,21092149961420.914,710597512614875.2
2.4297369798917723,6618557900654150.0,1.1676305426912582e+16,1699169895861900.8,2554272957746905.0,259926160093.98978,795547709509.3634,23154377240116.64,780094821539909.9
2.578331719489608,6802544971006710.0,1.2053627102106322e+16,1746404549815588.8,2625278335704859.0,284186730108.30884,869801466623.9043,25315590146329.81,852929667236095.9
2.7298983538794,6983372500490498.0,1.2429260824294292e+16,1792828060806621.0,2695064365060815.5,309578068897.8228,947516169027.0367,27577541619355.89,929161262079072.0
2.884496320956988,7161267709462334.0,1.2803644129491638e+16,1838498762688900.2,2763718736036554.5,336120895105.3244,1028755232793.9565,29942077847090.715,1008851967328862.0
3.0421862473761276,7336431198898647.0,1.3177173893087954e+16,1883468155372998.5,2831318865745462.5,363836915498.59863,1113585098488.4614,32411133066154.59,1092067117990688.8
3.2030299723236504,7509040850764769.0,1.3550212589077522e+16,1927781906160582.2,2897933403445996.0,392748777198.86487,1202075084958.542,34986725306870.777,1178874879537143.0
3.3670905717701234,7679255023029224.0,1.3923093417159558e+16,1971480669994429.8,2963623463580524.0,422880028473.0714,1294297269343.2476,37670952901184.93,1269346130356385.8
3.5344323832055258,7847215189145589.0,1.4296124538913358e+16,2014600767087619.0,3028443644419712.5,454255086507.90356,1390326388448.66,40465991612578.37,1363554365172899.2
3.7051210308696363,8013048135663785.0,1.466959260591834e+16,2057174747112146.5,3092442876177672.5,486899210926.5916,1490239757700.899,43374092277599.94,1461575615718507.2
3.879223451487029,8176867805175536.0,1.5043765720031444e+16,2099231862334825.8,3155665132252316.5,520838482068.7751,1594117204677.6113,46397578871734.36,1563488385710292.8
4.0568079205167695,8338776852197229.0,1.5418895934449566e+16,2140798467056166.2,3218150029680889.0,556099783251.8347,1702041014825.7913,49538846929976.63,1669373597787252.0
4.237944078927105,8498867964901970.0,1.5795221380525894e+16,2181898356936158.2,3279933339230575.0,592710786385.0432,1814095887441.7654,52800362266108.38,1779314550517250.8
4.422702960505647,8657224994483363.0,1.6172968087396456e+16,2222553058933695.8,3341047421249280.0,630699940427.1946,1930368900354.5874,56184659945301.07,1893396883944031.0
4.61115701971576,8813923925417832.0,1.6552351547776512e+16,2262782080400203.5,3401521600114933.0,670096462272.2479,2050949482041.0925,59694343473031.234,2011708552426193.8
4.803380160110075,8969033713317298.0,1.6933578072715364e+16,2302603124179973.0,3461382487584578.0,710930329721.9526,2175929390129.027,63332084169930.42,2134339803743737.0
4.9994477633122765,9122617011941974.0,1.7316845969870084e+16,2342032275254782.0,3520654263367424.0,753232276264.1078,2305402695426.977,67100620707501.06,2261383163626727.0
5.199436718578522,9274730806921698.0,1.7702346573401058e+16,2381084163437969.0,3579358919694335.5,797033787423.0015,2439465770766.7573,71002758783905.58,2392933425004947.0
5.403425452950093,9425426970552962.0,1.8090265148487284e+16,2419772105806464.0,3637516475428372.5,842367098487.6686,2578217284063.2446,75041370922508.97,2529087641394435.0
5.611493962009095,9574752749503210.0,1.848078168939347e+16,2458108231908149.0,3695145164282489.0,889265193455.3562,2721758195094.175,79219396378693.03,2669945123932394.0
5.823723841249277,9722751195221482.0,1.8874071626762228e+16,2496103594260387.0,3752261600926169.0,937761805053.8497,2870191755582.348,83539841142792.77,2815607441650775.0
6.040198318074262,9869461545212406.0,1.92703064571757e+16,2533768266233795.5,3808880928128940.5,987891415727.8943,3023623512229.2944,88005778028932.47,2966178424643652.0
6.261002284435747,1.0014919561998472e+16,1.9669654305897536e+16,2571111429073364.0,3865016947574674.5,1039689259493.0758,3182161312404.4375,92620346841152.02,3121764169837984.5
6.486222330124463,1.0159157835506942e+16,2.007228043196585e+16,2608141449529696.5,3920682236560549.0,1093191324575.5027,3345915312239.9346,97386754609551.05,3282473049122281.0
6.715946776726952,1.0302206053724624e+16,2.047834768337829e+16,2644865949343671.5,3975888252449722.0,1148434356768.424,3514997986920.4546,102308275890312.23,3448415719626231.0
6.950265712261491,1.0444091245726314e+16,2.088801690893442e+16,2681291867638724.0,4030645426462290.0,1205455863447.5886,3689524142989.762,107388253124424.69,3619705135976249.0
7.18927102650672,1.0584838000571972e+16,2.130144733232413e+16,2717425517117840.0,4084963248153412.5,1264294118196.3083,3869610932524.1016,112630097050733.64,3796456564379476.0
7.433056447036854,1.0724468665058318e+16,2.1718796893238036e+16,2753272634832031.0,4138850341730760.0,1324988165998.9634,4055377869046.0156,118037287169647.38,3978787598412249.0
7.681717575977592,1.086300352288512e+16,2.214022255959909e+16,2788838428177266.0,4192314535199363.0,1387577828968.4014,4246946845073.0464,123613372254417.12,4166818176408888.5
7.935351927497144,1.1000460957438344e+16,2.2565880614443436e+16,2824127616685568.0,4245362923183967.5,1452103712578.4277,4444442151213.076,129361970907430.88,4360670600364361.0
8.194058966047088,1.1136857600091186e+16,2.299592692049874e+16,2859144470098003.5,4298001924162135.5,1518607212377.6016,4647990496733.474,135286772159396.55,4560469556278920.0
8.45794014536803,1.127220846566849e+16,2.343051716510289e+16,2893892843142208.5,4350237332743507.0,1587130521164.8596,4857721031544.699,141391536109685.34,4766342135886298.0
8.72709894827539,1.1406527076502402e+16,2.3869807087760504e+16,2928376207381032.0,4402074367546155.5,1657716636611.3145,5073765369550.253,147680094606437.66,4978417859718292.0
9.0016409272409,1.1539825576324244e+16,2.4313952692342256e+16,2962597680451636.0,4453517715150250.0,1730409369315.9006,5296257613325.304,154156351965334.8,5196828701468175.0
9.281673745785717,1.1672114835075686e+16,2.47631104456795e+16,2996560052973650.0,4504571570547608.0,1805253351285.407,5525334380095.407,160824285726195.78,5421709113625028.0
9.567307220701432,1.1803404545591318e+16,2.521743746409379e+16,3030265813370180.0,4555239674453824.0,1882294044832.1577,5761134828994.036,167687947446797.47,5653196054357852.0
9.85865336511546,1.1933703312983136e+16,2.567709168921358e+16,3063717170815351.0,4605525347804185.0,1961577751884.6382,6003800689585.306,174751463533501.47,5891429015635947.0
10.155826432417769,1.2063018737460028e+16,2.6142232054273796e+16,3096916076496409.0,4655431523715725.0,2043151623708.6938,6253476291644.368,182019036108479.88,6136550052577789.0
10.458942961066125,1.2191357491226004e+16,2.6613018641953028e+16,3129864243355648.0,4704960777164419.0,2127063671038.5405,6510308596192.825,189494943913463.38,6388703814026239.0
10.768121820287448,1.2318725390026244e+16,2.7089612834686124e+16,3162563164458318.5,4754115352596459.0,2213362774618.462,6774447227792.622,197183543250102.28,6648037574352553.0
11.083484256693197,1.2445127459843328e+16,2.7572177458284744e+16,3195014130115357.0,4802897189668241.0,2302098696157.589,7046044508105.201,205089268957151.7,6914701266496407.0
11.405153941827061,1.2570567999188706e+16,2.806087691960816e+16,3227218243875449.5,4851307947286120.0,2393322089701.3604,7325255490727.221,213216635424797.75,7188847516252669.0
11.733257020663602,1.2695050637384548e+16,2.8555877338947776e+16,3259176437487561.5,4899349026098941.0,2487084513424.5454,7612237997317.756,221570237646564.7,7470631677819376.0
12.067922161076874,1.2818578389186384e+16,2.9057346677719344e+16,3290889484924075.5,4947021589578316.0,2583438441851.6274,7907152655034.792,230154752309320.78,7760211870624407.0
12.409280604298411,1.2941153706058198e+16,2.956545486199703e+16,3322358015544667.0,4994326583807067.0,2682437278511.2695,8210162935301.778,238974938921990.06,8057749017451282.0
12.75746621638438,1.3062778524378842e+16,3.008037390236785e+16,3353582526472117.0,5041264756083215.0,2784135369032.6733,8521435193927.949,248035640983646.22,8363406883887097.0
13.112615540712067,1.3183454310826534e+16,3.0602278010542036e+16,3384563394243857.0,5087836672435147.0,2888588014692.017,8841138712607.588,257341787191751.3,8677352119117502.0
13.474867851526309,1.3303182105163428e+16,3.113134371310854e+16,3415300885795964.0,5134042734133243.0,2995851486418.135,9169445741826.63,266898392691326.28,8999754298096326.0
13.844365208556836,1.342196256061825e+16,3.166774996279244e+16,3445795168830510.0,5179883193274560.0,3105983039267.0913,9506531545205.748,276710560365937.62,9330785965118686.0
14.221252512727972,1.353979598204363e+16,3.221167824753662e+16,3476046321611599.0,5225358167508764.0,3219040927375.8423,9852574445311.582,286783482171399.7,9670622678828512.0
14.605677562982532,1.3656682362007324e+16,3.2763312697701068e+16,3506054342231070.0,5270467653966671.0,3335084419405.6313,10207755870968.393,297122440513143.5,1.0019443058692526e+16
14.997791114242183,1.377262141495947e+16,3.3322840191648828e+16,3535819157380105.0,5315211542446289.0,3454173814486.284,10572260406104.756,307732809668258.6,1.037742883297409e+16
15.397746936527026,1.388761260960398e+16,3.389045045996338e+16,3565340630659924.0,5359589627905688.0,3576370458672.7886,10946275840170.129,318620057253208.2,1.0744764888241788e+16
15.805701875257567,1.4001655199588224e+16,3.446633618852447e+16,3594618570460697.0,5403601622307075.0,3701736761926.068,11329993220157.32,329789745738296.44,1.1121639320448068e+16
16.221815912762718,1.4114748252615576e+16,3.5050693120647824e+16,3623652737435514.5,5447247165851984.0,3830336215629.8853,11723606904268.44,341247534009951.9,1.1508243487614896e+16
16.64625223101797,1.4226890678072638e+16,3.5643720158481396e+16,3652442851593136.0,5490525837643396.0,3962233410656.313,12127314617261.344,352999178981923.94,1.1904772064162422e+16
17.079177275638333,1.4338081253256268e+16,3.624561946383489e+16,3680988599031105.0,5533437165807364.0,4097494055992.1724,12541317507515.805,365050537256523.7,1.2311423096920168e+16
17.5207608211511,1.4448318648275222e+16,3.6856596558605864e+16,3709289638328819.0,5575980637103307.0,4236184997939.1353,12965820205857.018,377407566837023.1,1.2728398062857608e+16
17.97117603757412,1.4557601449695922e+16,3.747686042495511e+16,3737345606617959.0,5618155706049367.0,4378374239900.3296,13401030886177.354,390076328892365.4,1.3155901928573464e+16
18.430599558325603,1.4665928182993348e+16,3.810662360537533e+16,3765156125346349.5,5659961803586972.0,4524130962766.273,13847161327894.176,403062989575344.3,1.3594143211582698e+16
18.899211549492115,1.4773297333864472e+16,3.874610230278221e+16,3792720805749657.5,5701398345306137.0,4673525545913.084,14304426980284.637,416373821895394.25,1.4043334043440326e+16
19.37719578048196,1.4879707368454598e+16,3.9395516480755944e+16,3820039254044068.0,5742464739251298.0,4826629588825.973,14773047028736.787,430015207647156.25,1.4503690234741282e+16
19.864739696091597,1.4985156752543116e+16,4.005508996404909e+16,3847111076351862.0,5783160393325712.0,4983515933361.049,15253244462956.908,443993639396000.94,1.4975431342036128e+16
20.36203449001343,1.5089643969732036e+16,4.072505053947058e+16,3873935883370873.0,5823484722310801.0,5144258686658.351,15745246147173.299,458315722521632.75,1.5458780736701424e+16
20.869275179813698,1.5193167538675146e+16,4.140563005725096e+16,3900513294797658.5,5863437154515322.0,5308933244719.048,16249282892375.531,472988177320974.56,1.5953965675804684e+16
21.38666068340997,1.5295726029384082e+16,4.209706453298758e+16,3926842943513841.0,5903017138068351.0,5477616316659.911,16765589530629.629,488017841171454.75,1.6461217375002568e+16
21.91439389707817,1.5397318078643982e+16,4.2799594250264424e+16,3952924479543637.5,5942224146868556.0,5650385949657.404,17294404991507.865,503411670755857.5,1.6980771083511242e+16
22.452681775019734,1.5497942404569058e+16,4.3513463864034856e+16,3978757573790745.5,5981057686201618.0,5827321554594.829,17835972380672.523,519176744349876.4,1.751286616118833e+16
23.00173541052013,1.5597597820326364e+16,4.423892250485486e+16,4004341921561572.5,6019517298036486.0,6008503932424.438,18390539060652.71,535320264173501.4,1.8057746157763876e+16
23.561770118730532,1.5696283247053746e+16,4.497622388404765e+16,4029677245881671.5,6057602566010834.0,6194015301257.49,18958356733852.105,551849558807351.06,1.8615658894258916e+16
24.133005521105144,1.5793997725996444e+16,4.572562639987961e+16,4054763300611541.5,6095313120114915.0,6383939324194.556,19539681527825.95,568772085675071.9,1.918685654662958e+16
24.715665631527248,1.5890740429885906e+16,4.648739324482344e+16,4079599873367870.5,6132648641082827.0,6578361137908.118,20134774082865.273,586095433592894.5,1.9771595731673164e+16
25.309978944157795,1.5986510673581748e+16,4.72617925139825e+16,4104186788255676.0,6169608864499682.0,6777367381989.838,20743899641924.93,603827325387431.0,2.0370137595234044e+16
25.91617852304095,1.6081307923998372e+16,4.804909731474722e+16,4128523908416680.5,6206193584632356.0,6981046229074.285,21367328142932.863,621975620582784.9,2.0982747902745096e+16
26.53450209350177,1.6175131809335194e+16,4.884958587775465e+16,4152611138399014.5,6242402657991866.0,7189487415750.957,22005334313515.875,640548318158044.1,2.160969713214126e+16
27.165192135371807,1.6267982127630116e+16,4.96635416692158e+16,4176448426353091.0,6278236006634227.0,7402782274276.242,22658197768179.133,659553559376166.2,2.225126056917977e+16
27.808495978079243,1.6359858854653554e+16,5.049125350468039e+16,4200035766058305.5,6313693621207051.0,7621023765096.835,23326203107973.55,678999630685325.6,2.2907718405203188e+16
28.464665897640828,1.6450762151161878e+16,5.133301566430135e+16,4223373198785122.0,6348775563748815.0,7844306510195.744,24009640022686.344,698894966693738.6,2.3579355837378876e+16
29.133959215593645,1.6540692369526278e+16,5.2189128009661576e+16,4246460814996913.0,6383481970247093.0,8072726827272.495,24708803395589.01,719248153218891.4,2.4266463171449492e+16
29.816638399905518,1.6629650059754738e+16,5.305989610222937e+16,4269298755895970.0,6417813052962641.0,8306382764767.915,25423993410776.87,740067930412298.8,2.4969335927028172e+16
30.51297116790363,1.6717635974923056e+16,5.394563132349841e+16,4291887214817813.5,6451769102525310.0,8545374137744.867,26155515663133.344,761363195960613.2,2.5688274945470784e+16
31.223230591261704,1.6804651076031542e+16,5.484665099687697e+16,4314226438478025.5,6485350489808406.0,8789802564635.46,26903681270952.184,783143008364183.6,2.6423586500359216e+16
31.947695203086937,1.6890696536303362e+16,5.5763278511383224e+16,4336316728075736.5,6518557667587553.0,9039771504865.254,27668806991249.77,805416590293912.2,2.7175582410626572e+16
32.686649107148675,1.6975773744940402e+16,5.669584344720901e+16,4358158440257936.0,6551391171990140.0,9295386297364.979,28451215337800.93,828193332027411.1,2.7944580156357916e+16
33.44038208929165,1.7059884310352524e+16,5.7644681703205704e+16,4379751987948433.0,6583851623741602.0,9556754199980.123,29251234701928.13,851482794965353.9,2.873090299729585e+16
34.20918973107749,1.714303006287638e+16,5.8610135626356664e+16,4401097841045884.0,6615939729214662.0,9823984429788.496,30069199476078.082,875294715228974.5,2.953488009408492e+16
34.993373525699035,1.7225213056998858e+16,5.959255414328776e+16,4422196526994623.5,6647656281287451.0,10097188204336.09,30905450180214.477,899639007339578.2,3.0356846632282732e+16
35.793240996213015,1.730643557310176e+16,6.059229289387821e+16,4443048631232549.0,6679002160016766.0,10376478783801.043,31760333591059.85,924525767981020.5,3.119714394917127e+16
36.60910581613728,1.7386700118742536e+16,6.1609714367026296e+16,4463654797519953.5,6709978333132457.0,10661971514095.799,32634202874216.223,949965279846008.2,3.205611966339698e+16
37.44128793246003,1.74660094294881e+16,6.264518803862831e+16,4484015728153548.5,6740585856359020.0,10953783870917.326,33527417719195.88,975968015567146.5,3.2934127807470264e+16
38.29011369110923,1.7544366469316218e+16,6.36990905118276e+16,4504132184069545.0,6770825873570722.0,11252035504755.393,34440344477391.805,1002544641733609.5,3.38315289631553e+16
39.15591596493141,1.7621774430601242e+16,6.477180565959052e+16,4524004984840013.0,6800699616785991.0,11556848286868.578,35373356303019.56,1029706022994317.8,3.474869039977904e+16
40.03903428423004,1.769823673369989e+16,6.586372476966571e+16,4543635008566430.0,6830208406007532.0,11868346356237.734,36326833297060.125,1057463226248510.4,3.5685986215490104e+16
40.93981496991464,1.7773757026152678e+16,6.697524669198566e+16,4563023191674815.0,6859353648914171.0,12186656167507.188,37301162654233.99,1085827524924618.4,3.664379748149767e+16
41.85861126931294,1.7848339181517178e+16,6.810677798856484e+16,4582170528616091.0,6888136840410660.0,12511906539923.098,38296738813037.43,1114810403348309.9,3.7622512389319624e+16
