t(s),Total solute volume 1,Total retention volume 1,Total 1 volume 1,Total 2 volume 1,Total 3 volume 1,Total 4 volume 1,Total 5 volume 1,Total 6 volume 1
0.1,898666397951953.1,1036126891881881.2,66325422320955.914,71135071608968.8,0.0,0.0,0.0,0.0
0.202,1353988828803731.8,1561109143383008.0,99930164571117.06,107176693251748.48,25576694.19560275,46569366.03547915,623130876.3885819,12761479472.830343
0.30604000000000003,1700757798976273.5,1960940768786460.5,125523197208151.08,134625628472190.53,64895340.605100185,118159728.22940178,1581063740.5395503,32380011034.050297
0.41216080000000005,1994069173761280.0,2299143715134087.5,147170830735282.66,157843060272335.8,115273170.02367377,209886365.66926113,2808435843.4018917,57516769815.8589
0.5204040160000001,2254548529073226.5,2599497831172300.0,166395320847957.25,178461632154058.34,175519771.4743129,319581808.9530176,4276244582.3736696,87577750894.27597
0.6308120963200001,2492471391801697.0,2873850058010165.0,183955045365792.78,197294716414018.25,244996760.4163139,446083704.47793263,5968936706.00028,122244411487.55814
0.7434283382464002,2713809790205441.0,3129085716587364.5,200290765508504.9,214815036482930.38,323339289.6398551,588727748.4106965,7877623286.815208,161334700155.2478
0.8582969050113283,2922389400426589.0,3369615552281569.0,215684832532440.75,231325418581512.62,410341640.98035777,747139374.9973845,9997292329.5298,204745967679.8286
0.9754628431115548,3120831759203537.0,3598462039327265.0,230330727057482.84,247033373756884.88,505900860.5478877,921131129.0403596,12325435528.744738,252426841843.7636
1.094972099973786,3311024520364236.5,3817801551572240.0,244367766006922.97,262088321628641.6,609985546.7188697,1110645835.8821023,14861287836.642643,304361653219.17633
1.2168715419732616,3494379610644973.0,4029261996081907.0,257900155610673.5,276602025038370.0,722617097.0230101,1315722456.2251184,17605370572.763386,360561077764.02893
1.3412089728127268,3671985485018073.5,4234098351229246.5,271008228499439.2,290660642012185.56,843857745.0995574,1536474304.1349015,20559199963.344646,421056167539.0434
1.4680331522689813,3844702103113106.5,4433302166558529.5,283755453370681.44,304332243739148.06,973802574.8095711,1773074506.5456815,23725092577.866337,485894365943.4509
1.597393815314361,4013222909313335.5,4627673020485754.0,296193009384736.0,317671720683982.06,1112573999.3693087,2025745951.0128453,27106030821.96198,555136752941.3425
1.729341691620648,4178116809501027.0,4817866915766061.0,308362884228098.2,330724105309291.94,1260317839.7074008,2294754145.2905617,30705567392.891186,628856088263.0428
1.863928525453061,4339857498177140.0,5004430091008864.0,320300038580237.3,343526893500712.9,1417200480.353886,2580402038.8516054,34527755987.367935,707135392268.5258
2.001207095962122,4498844496857972.5,5187823276017044.0,332033958837225.2,356111709887732.9,1583406774.9605427,2883026209.31639,38577100272.962326,790066900857.8925
2.1412312378813647,4655418593911341.0,5368439492488720.0,343589796637665.75,368505530003397.8,1759138487.9106016,3202994024.9797816,42858515920.466125,877751287876.648
2.284055862638992,4809873402409073.0,5546617379151727.0,354989221881606.56,380731595160700.7,1944613128.6802745,3540701522.4503736,47377302205.03065,970297083493.7275
2.4297369798917723,4962464163914157.0,5722651341724240.0,366251072487694.3,392810109327459.6,2140063080.196734,3896571819.590888,52139120770.057144,1067820239275.9109
2.578331719489608,5113414558597359.0,5896799404369906.0,377391857008886.5,404758778189691.3,2345734951.5925803,4271053937.0341682,57149979858.151085,1170443805229.9802
2.7298983538794,5262922046061664.0,6069289367208758.0,388426148808124.7,416593231911295.1,2561889105.3206496,4664621937.170038,62416222790.08741,1278297693845.8875
2.884496320956988,5411162105861417.0,6240323695292222.0,399366899026790.44,428327360797702.44,2788799322.0227923,5077774313.951138,67944519799.93184,1391518512875.3428
3.0421862473761276,5558291642094416.0,6410083443845234.0,410225687858152.6,439973584790654.9,3026752575.9537864,5511033583.995027,73741862563.66316,1510249453274.3052
3.2030299723236504,5704451744305128.0,6578731441766625.0,421012928316548.7,451543072021171.3,3276048901.1299744,5964946051.658202,79815563374.42113,1634640565455.8806
3.3670905717701234,5849769948787667.0,6746414897360296.0,431738033120220.06,463045917764704.56,3537001328.647226,6440081659.907685,86173243905.66397,1764847360825.2441
3.5344323832055258,5994362102382896.0,6913267549360071.0,442409552264166.56,474491292034638.56,3809935892.9467316,6937034054.057369,92822849877.93756,1901032858543.5356
3.7051210308696363,6138333915628717.0,7079411456257720.0,453035287638050.56,485887562481912.56,4095191684.600692,7456420643.117928,99772642701.07655,2043366253992.3496
3.879223451487029,6281782262704086.0,7244958495494892.0,463622388970465.6,497242397304328.5,4393120952.049709,7998882793.707299,107031204356.29953,2192023307911.9211
4.0568079205167695,6424796278033791.0,7410011627879467.0,474177434763060.25,508562852049695.1,4704089242.587736,8565086086.75816,114607440831.16544,2347186416757.7124
4.237944078927105,6567458286828421.0,7574665970553944.0,484706500968358.56,519855443273874.1,5028475578.635445,9155720638.47799,122510586414.26744,2509044700655.161
4.422702960505647,6709844599223853.0,7739009712716449.0,495215219600655.44,531126211401910.06,5366672665.624842,9771501478.86651,130750208760.08928,2677794107127.5176
4.61115701971576,6852026191631367.0,7903124901314958.0,505708829022561.44,542380774661143.7,5719087128.551802,10413168982.430841,139336214652.31314,2853637529128.16
4.803380160110075,6994069294234164.0,8067088118545936.0,516192217304770.2,553624375585256.0,6086139774.836267,11081489346.801954,148278856408.07602,3036784936199.772
4.9994477633122765,7136035899928822.0,8230971068794760.0,526669959788098.25,564861921300151.8,6468265881.597887,11777255115.805952,157588738877.07565,3227453517816.0347
5.199436718578522,7277984207152173.0,8394841089361089.0,537146351766015.25,576098018576498.2,6865915505.83281,12501285744.233704,167276826998.62808,3425867838150.3945
5.403425452950093,7419969006777331.0,8558761596709072.0,547625437039213.9,587337004454951.5,7279553816.285396,13254428202.112726,177354453887.29742,3632260001670.0093
5.611493962009095,7562042021461665.0,8722792477907869.0,558111032960952.4,598582973107685.8,7709661446.062092,14037557616.745869,187833329423.87537,3846869829079.3535
5.823723841249277,7704252204388609.0,8886990435265142.0,568606752485468.2,609839799485672.8,8156734865.243531,14851577951.162989,198725549333.59543,4069945043242.481
6.040198318074262,7846646003180245.0,9051409290814156.0,579116023645859.8,621111160209014.1,8621286772.926208,15697422717.949781,210043604737.72125,4301741464799.978
6.261002284435747,7989267593813674.0,9216100256226344.0,589642106818110.1,632400552082892.0,9103846508.270802,16576055727.684057,221800392168.21155,4542523217269.821
6.486222330124463,8132159088602671.0,9381112172832168.0,600188110071031.9,643711308560610.1,9604960480.25956,17488471871.43759,234009224038.2041,4792562941483.43
6.715946776726952,8275360721673743.0,9546491725703504.0,610757002855182.5,655046614425191.5,10125192615.969952,18435697936.99214,246683839563.62912,5052142019260.794
6.950265712261491,8418911014843620.0,9712283635149258.0,621351628245335.0,666409518919621.1,10665124827.263262,19418793458.586006,259838416133.481,5321550806274.346
7.18927102650672,8562846926373074.0,9878530828478194.0,631974713919155.9,677802947521644.2,11225357495.866049,20438851600.149826,273487581128.21002,5601088874090.032
7.433056447036854,8707203984711823.0,1.0045274594466102e+16,642628882028132.6,689229712530499.8,11806509976.890226,21497000072.11618,287646424187.3476,5891065261408.96
7.681717575977592,8852016409048022.0,1.0212554722619552e+16,653316658094657.8,700692522609185.8,12409221120.89908,22594402081.997536,302330509928.9906,6191798734563.005
7.935351927497144,8997317218223932.0,1.0380409629035796e+16,664040479050463.6,712193991405797.6,13034149814.67997,23732257319.025517,317555891125.04785,6503618057344.318
8.194058966047088,9143138329365404.0,1.054887647041314e+16,674802700515902.9,723736645360686.4,13681975540.932827,24911802973.23249,333339122337.34467,6826862270273.424
8.45794014536803,9289510647393444.0,1.0717991247558794e+16,685605603406276.2,735322930791852.0,14353398957.126596,26134314789.434074,349697274020.7467,7161880979431.6
8.72709894827539,9436464146432298.0,1.088778889956408e+16,696451399940111.8,746955220338899.1,15049142493.816202,27401108156.646545,366647947100.4107,7509034655003.488
9.0016409272409,9584027943999108.0,1.1058303389667312e+16,707342239114664.8,758635818835617.4,15769950972.748388,28713539233.53493,384209288031.1735,7868694939693.905
9.281673745785717,9732230368747556.0,1.122956778369548e+16,718280211705700.4,770366968672319.8,16516592245.118933,30073006110.554333,402400004347.9125,8241244967199.401
9.567307220701432,9881099022443462.0,1.140161432186611e+16,729267354841549.2,782150854701583.9,17289857850.374756,31480950009.499294,421239380716.45734,8627079690931.553
9.85865336511546,1.003066083676709e+16,1.1574474484635914e+16,740305656195355.4,793989608734530.9,18090563695.985268,32938856521.233604,440747295495.39886,9026606223202.88
10.155826432417769,1.01809421254666e+16,1.1748179053200486e+16,751397057834242.8,805885313669078.9,18919550758.633266,34448256882.423355,460944237819.76587,9440244185100.951
10.458942961066125,1.0331968632325406e+16,1.1922758165179344e+16,762543459759497.5,817840007286873.4,19777685807.305416,36010729292.14307,481851325218.2733,9868426067289.607
10.768121820287448,1.048376557535322e+16,1.2098241365958762e+16,773746723168057.0,829855685751275.2,20665862148.78559,37627900269.27565,503490321776.3839,10311597601988.537
11.083484256693197,1.0636357687563768e+16,1.227465765611072e+16,785008673462075.4,841934306835175.6,21585000396.081604,39301446051.66791,525883656858.12054,10770218146396.264
11.405153941827061,1.0789769254662012e+16,1.2452035535262156e+16,796331103030417.0,854077792904183.0,22536049260.338215,41033094038.05255,549054444400.12683,11244761077831.87
11.733257020663602,1.0944024149928758e+16,1.2630403042744296e+16,807715773823277.9,866288033677947.1,23519986366.8151,42824624273.78726,573026502792.0139,11735714200884.764
12.067922161076874,1.1099145866559036e+16,1.2809787795320162e+16,819164419738896.4,878566888789947.0,24537819095.530544,44677870981.506096,597824375357.6965,12243580166871.717
12.409280604298411,1.1255157547683594e+16,1.2990217022253708e+16,830678748839268.1,890916190163884.0,25590585447.19572,46594724137.82152,623473351452.9001,12768876905913.586
12.75746621638438,1.141208201427912e+16,1.3171717597958296e+16,842260445410049.5,903337744222952.1,26679354935.086834,48577131097.25356,649999488194.6346,13312138071953.992
13.112615540712067,1.1569941791151806e+16,1.33543160724383e+16,853911171878238.5,915833333946591.0,27805229503.52589,50627098264.611084,677429632838.9534,13873913501055.287
13.474867851526309,1.1728759131159632e+16,1.353803869971377e+16,865632570599898.8,928404720787833.6,28969344473.664062,52746692817.08384,705791445823.9296,14454769683317.463
13.844365208556836,1.1888556037823042e+16,1.3722911464402332e+16,877426265528917.9,941053646463099.6,30172869517.28256,54938044477.35319,735113424495.2612,15055290248777.473
14.221252512727972,1.204935428645854e+16,1.3908960106612484e+16,889293863776750.5,953781834625022.8,31417009659.352234,57203347339.065216,765424927532.5562,15676076467657.941
14.605677562982532,1.2211175443956502e+16,1.4096210145290108e+16,901236957072121.2,966590992428011.5,32703006310.11373,59544861746.056564,796756200094.8647,16317747765345.936
14.997791114242183,1.2374040887313846e+16,1.4284686900144604e+16,913257123128798.9,979482811995217.4,34032138327.463535,61964916226.76522,829138399704.6111,16980942252493.68
15.397746936527026,1.2537971821020758e+16,1.4474415512270488e+16,925355926928816.8,992458971794802.0,35405723110.457375,64465909485.296745,862603622889.6464,17666317270645.555
15.805701875257567,1.270298929339196e+16,1.4665420963569018e+16,937534921927798.8,1005521137932662.0,36825117724.76242,67050312450.667915,897184932603.7502,18374549953806.547
16.221815912762718,1.2869114211925046e+16,1.485772809506491e+16,949795651188455.9,1018670965368140.8,38291720060.91669,69720670385.78691,932916386446.4398,19106337806381.06
16.64625223101797,1.3036367357760146e+16,1.5051361624205174e+16,962139648447779.0,1031910099058586.5,39806970026.278435,72479605057.77542,969833065703.6063,19862399297920.418
17.079177275638333,1.320476939930932e+16,1.5246346161218612e+16,974568439122951.2,1045240175038232.5,41372350771.570175,75329816971.2862,1007971105231.0656,20643474475133.285
17.5207608211511,1.337434090511788e+16,1.5442706224608086e+16,987083541260551.4,1058662821436212.4,42989389952.95217,78274087666.51082,1047367724203.696,21450325591622.49
17.97117603757412,1.3545102356013654e+16,1.5640466255841876e+16,999686466433247.0,1072179659438286.9,44659661030.57846,81315282083.62125,1088061257753.5459,22283737755826.21
18.430599558325603,1.371707415659698e+16,1.5839650633303848e+16,1012378720587777.1,1085792304196329.0,46384784604.62435,84456350995.43594,1130091189520.7935,23144519597653.934
18.899211549492115,1.3890276646117692e+16,1.6040283685557514e+16,1025161804847743.1,1099502365689306.8,48166429789.78711,87700333510.14638,1173498185142.1907,24033503954320.17
19.37719578048196,1.4064730108783294e+16,1.6242389703974774e+16,1038037216274383.1,1113311449539245.8,50006315629.30364,91050359645.99304,1218324126702.246,24951548575892.824
19.864739696091597,1.4240454783537228e+16,1.6445992954775516e+16,1051006448588260.9,1127221157785244.5,51906212549.53992,94509652979.82187,1264612148172.9338,25899536851086.01
20.36203449001343,1.441747087334421e+16,1.6651117690520098e+16,1064070992854537.5,1141233089618437.2,53867943856.24777,98081533371.50717,1312406671868.588,26878378553840.027
20.869275179813698,1.459579855401466e+16,1.6857788161093754e+16,1077232338134300.6,1155348842080558.5,55893387273.60142,101769419766.27437,1361753445943.118,27889010611245.74
21.38666068340997,1.47754579826e+16,1.706602862421848e+16,1090491972104114.1,1169570010728417.8,57984476527.16055,105576833077.00339,1412699582957.4304,28932397893383.902
21.91439389707817,1.4956469305384394e+16,1.727586335552416e+16,1103851381645886.5,1183898190266545.0,60143202971.92968,109507399148.64954,1465293599545.5945,30009534025662.375
22.452681775019734,1.5138852665499346e+16,1.7487316658208646e+16,1117312053408848.4,1198334975149915.5,62371617266.71146,113564851806.95975,1519585457208.9355,31121442224249.816
23.00173541052013,1.5322628210182784e+16,1.77004128723132e+16,1130875474345294.8,1212881960158546.8,64671831095.98177,117753035993.71791,1575626604267.9377,32269176155215.297
23.561770118730532,1.5507816097702406e+16,1.7915176383636414e+16,1144543132221561.8,1227540740945537.5,67046018940.53463,122075910990.79584,1633470019002.385,33453820817997.914
24.133005521105144,1.56944365039609e+16,1.8131631632307772e+16,1158316516105537.2,1242312914559895.8,69496419898.17636,126537553735.33589,1693170254010.8635,34676493453842.79
24.715665631527248,1.5882509628797888e+16,1.83498031210385e+16,1172197116831745.2,1257200079945400.2,72025339555.76543,131142162228.43108,1754783481821.3188,35938344479850.65
25.309978944157795,1.6072055702000684e+16,1.8569715423064036e+16,1186186427444976.0,1272203838416356.0,74635151913.92421,135894059039.71312,1818367541784.8296,37240558449300.06
25.91617852304095,1.6263094989033052e+16,1.879139318979067e+16,1200285943623097.0,1287325794111087.8,77328301365.76201,140797694910.2853,1883981988285.3325,38584355038910.32
26.53450209350177,1.6455647796488848e+16,1.901486115815326e+16,1214497164079556.0,1302567554423634.5,80107304730.9687,145857652456.4856,1951688140298.3582,39970990063723.19
27.165192135371807,1.6649734477273662e+16,1.924014415768927e+16,1228821590945794.0,1317930730413870.8,82974753346.65074,151078649976.96515,2021549132332.2415,41401756520284.53
27.808495978079243,1.684537543551329e+16,1.946726711732907e+16,1243260730133526.0,1333416937196089.8,85933315216.2871,156465545365.60385,2093629966785.3162,42877985658813.695
28.464665897640828,1.704259113118565e+16,1.969625507189799e+16,1257816091676597.8,1349027794305614.2,88985737218.19183,162023340132.77097,2167997567752.8794,44401048085050.04
29.133959215593645,1.7241402084466846e+16,1.9927133168321052e+16,1272489190051725.2,1364764926042828.0,92134847374.85434,167757183537.45,2244720836317.376,45972354892460.51
29.816638399905518,1.7441828879777366e+16,2.0159926671514828e+16,1287281544477140.0,1380629961793450.5,95383557184.52766,173672376832.70126,2323870707355.0996,47593358825488.266
30.51297116790363,1.7643892169509948e+16,2.0394660969945332e+16,1302194679187712.8,1396624536323630.5,98734864016.40407,179774377626.91434,2405520207892.104,49265555474511.45
31.223230591261704,1.7847612677413354e+16,2.0631361580823964e+16,1317230123684700.8,1412750290047787.2,102191853570.68651,186068804363.23294,2489744517041.186,50990484503162.375
31.947695203086937,1.8053011201600828e+16,2.087005415490487e+16,1332389412957756.8,1429008869266738.0,105757702404.81938,192561440919.44412,2576621027550.6763,52769730908634.87
32.686649107148675,1.8260108617143364e+16,2.1110764480839148e+16,1347674087676359.5,1445401926372983.8,109435680527.07736,199258241330.5264,2666229408994.279,54604926315578.445
33.44038208929165,1.8468925878201536e+16,2.135351848903354e+16,1363085694347128.5,1461931120019456.8,113229154058.63486,206165334635.88998,2758651672629.2764,56497750304134.48
34.20918973107749,1.867948401963978e+16,2.159834225494846e+16,1378625785432972.8,1478598115247295.5,117141587965.139,213289029853.182,2853972237948.086,58449931772627.14
34.993373525699035,1.8891804158058456e+16,2.184526200176147e+16,1394295919429248.8,1495404583567520.8,121176548858.69252,220635821080.3022,2952278000945.097,60463250335355.484
35.793240996213015,1.910590749216869e+16,2.2094304102311424e+16,1410097660891453.8,1512352202990749.2,125337707871.01025,228212392727.01895,3053658404117.559,62539537755869.01
36.60910581613728,1.932181530242544e+16,2.2345495080224336e+16,1426032580408110.8,1529442657998097.5,129628843598.34691,236025624877.2804,3158205508214.978,64680679416020.8
37.44128793246003,1.9539548949822636e+16,2.2598861610111036e+16,1442102254511874.0,1546677639445855.8,134053845118.59753,244082598782.94205,3266014065746.7583,66888615820999.81
38.29011369110923,1.9759129873743492e+16,2.285443051671385e+16,1458308265520830.2,1564058844395277.2,138616715080.74802,252390602489.2486,3377181596252.6143,69165344140426.56
39.15591596493141,1.9980579588747108e+16,2.311222877286505e+16,1474652201301401.8,1581587975858260.2,143321572866.60272,260957136591.92108,3491808463333.671,71512919785474.47
40.03903428423004,2.0203919680162892e+16,2.3372283496107844e+16,1491135654943130.5,1599266742448594.5,148172657824.41977,269789920125.19522,3609997953435.5166,73933458021833.75
40.93981496991464,2.0429171798350056e+16,2.3634621943816376e+16,1507760224335039.8,1617096857927569.0,153174332573.76993,278896896579.54834,3731856356366.3706,76429135618171.53
41.85861126931294,2.0656357651471196e+16,2.3899271506639004e+16,1524527511632287.0,1635080040631948.2,158331086380.57254,288286240047.2227,3857493047524.9927,79002192529568.23
42.7957834946992,2.0885498996616892e+16,2.416625970007658e+16,1541439122601112.2,1653218012771441.5,163647538600.86798,297966361492.92224,3987020571803.13,81654933615206.94
43.751699164593184,2.1116617629108556e+16,2.4435614153995716e+16,1558496665829358.0,1671512499581943.8,169128442191.457,307945915146.26624,4120554729117.0205,84389730389385.5
44.72673314788505,2.1349735369798868e+16,2.470736259986681e+16,1575701751789173.2,1689965228320290.0,174778687285.06503,318233805011.7609,4258214661510.9443,87209022804679.05
