t(s),Total solute volume 1,Total retention volume 1,Total 1 volume 1,Total 2 volume 1,Total 3 volume 1,Total 4 volume 1,Total 5 volume 1,Total 6 volume 1
0.1,803801399340899.0,888695292650996.4,42833262785020.44,42060630525076.21,0.0,0.0,0.0,0.0
0.202,1137310286884037.0,1401097395455743.5,60605406363428.06,59512197894616.95,434861427725.6669,691751418045.192,7551834006342.203,134991057461549.69
0.30604000000000003,1348964079811977.0,1835530878889926.0,71884091075266.08,70587436206410.64,1041366542920.0414,1657093282032.6519,18090882088713.105,323305929882604.4
0.41216080000000005,1500386374924733.8,2238472824809032.8,79953137706931.94,78510932312224.0,1753915847893.4197,2791895052402.589,30480513576531.98,544596055388314.4
0.5204040160000001,1615552535575724.0,2626384113446315.0,86090154188733.86,84537248484408.25,2542063241680.4893,4047870289491.853,44193695602636.35,789420546063640.1
0.6308120963200001,1706605858781131.5,3007063013098110.0,90942236972193.3,89301808762942.3,3388746266286.3623,5397990882135.169,58935449051853.78,1052490922381570.4
0.7434283382464002,1780602670649204.5,3384847058824542.0,94885406142944.67,93173850533060.27,4283454809008.8203,6825636533970.778,74524405543471.88,1330551634612887.0
0.8582969050113283,1842008333719390.8,3762416290253451.0,98157613572628.02,96387033458802.56,5219334373256.101,8319994505181.578,90842592185962.23,1621481388438233.5
0.9754628431115548,1893819532135737.8,4141558069330165.5,100918547661571.11,99098165459842.34,6191744279004.008,9873770220020.785,107810441404522.4,1923845868169465.5
1.094972099973786,1938136389156571.8,4523537582553059.0,103280120545827.45,101417139986223.1,7197463903230.796,11481927035623.822,125373034842076.2,2236651507083504.0
1.2168715419732616,1976480949362790.5,4909295221986236.0,105323439493535.27,103423601282396.84,8234223929874.806,13140942118532.848,143491980930946.94,2559200084868159.0
1.3412089728127268,2009986437366029.2,5299559559489984.0,107108892192150.31,105176847754701.02,9300414689613.93,14848343518963.33,162140361918488.84,2890998262050034.0
1.4680331522689813,2039515561527570.0,5694915754034449.0,108682450960274.69,106722022466965.12,10394897129973.445,16602410203896.414,181299459688691.12,3231698952057071.5
1.597393815314361,2065737519349685.2,6095848901067889.0,110079776239102.19,108094142612630.4,11516876190697.549,18401971177226.004,200956563179262.78,3581062052319281.5
1.729341691620648,2089179815153705.8,6502772556154075.0,111328977871794.36,109320810985798.14,12665813624132.25,20246267231212.65,221103459458281.44,3938927411829146.0
1.863928525453061,2110264113873200.8,6916048108303698.0,112452525693518.42,110424092107788.94,13841366561094.213,22134853578410.117,241735371038017.1,4305195785451670.5
2.001207095962122,2129331645562454.5,7335998300914218.0,113468603296184.53,111421841572490.52,15043343343204.475,24067529902368.566,262850192484434.0,4679815144753084.0
2.1412312378813647,2146661579711272.8,7762916893674738.0,114392087165650.56,112328667521757.08,16271671208944.922,26044289233882.832,284447932522975.06,5062770666310256.0
2.284055862638992,2162484556032271.8,8197075711702444.0,115235267715262.84,113156638672847.22,17526372285130.223,28065280019708.617,306530300152952.6,5454077296824267.0
2.4297369798917723,2176992808218422.0,8638729884299752.0,116008388764349.5,113915814065735.77,18807545503297.992,30130777604754.36,329100393521189.2,5853774156622012.0
2.578331719489608,2190347846757654.8,9088121803414960.0,116720056942853.7,114614645082850.4,20115352811117.098,32241162540426.125,352162463313236.06,6261920275966831.0
2.7298983538794,2202686364127710.5,9545484160066652.0,117377556369517.33,115260284451049.12,21450008542425.46,34396903915307.496,375721730972904.0,6678591311687770.0
2.884496320956988,2214124826297655.5,1.0011042305835986e+16,117987093325491.52,115858826501774.86,22811771140602.973,36598546430003.94,399784247798494.0,7103876994341953.0
3.0421862473761276,2224763080423238.8,1.0485016112999216e+16,118553988502526.03,116415495951447.39,24200936656159.105,38846700297054.664,424356784883634.56,7537879126285138.0
3.2030299723236504,2234687216846754.8,1.0967621457248954e+16,119082829514265.38,116934797661739.23,25617833596465.45,41142033296148.82,449446746592240.75,7980709999741341.0
3.3670905717701234,2243971859620747.2,1.1459071412847194e+16,119577592954511.66,117420636496138.72,27062818816232.812,43485264490590.81,475062102175020.7,8432491138293961.0
3.5344323832055258,2252682014619581.5,1.1959577226228198e+16,120041742880072.39,117876414026346.86,28536274216392.86,45877159236473.97,501211331505085.25,8893352289744236.0
3.7051210308696363,2260874571946919.0,1.2469349117170978e+16,120478310871597.02,118305107148968.42,30038604076216.97,48318525206804.05,527903381901098.2,9363430616019366.0
3.879223451487029,2268599535867318.5,1.298859694451084e+16,120889961574622.92,118709332444320.95,31570232885337.547,50810209219229.266,555147633731409.6,9842870038788616.0
4.0568079205167695,2275901038252230.0,1.3517530764510092e+16,121279046704455.69,119091399207164.86,33131603573259.195,53353094705140.63,582953873028657.1,1.0331820709039158e+16
4.237944078927105,2282818178737854.0,1.4056361303488192e+16,121647649816810.11,119453353409767.86,34723176057042.223,55948099694579.47,611332269744613.0,1.0830438576027504e+16
4.422702960505647,2289385725203622.0,1.460530036145523e+16,121997623635160.34,119797014355939.27,36345426045238.984,58596175219021.4,640293360576723.5,1.1338885036419506e+16
4.61115701971576,2295634700925026.5,1.5164561159836612e+16,122330621339156.86,120124005405062.4,37998844049388.984,61298304055115.15,669848035527120.0,1.1857326648535746e+16
4.803380160110075,2301592879218096.0,1.573435864360184e+16,122648122923422.89,120435779855426.53,39683934564507.68,64055499748550.414,700007527530554.8,1.2385934899761274e+16
4.9994477633122765,2307285202132958.0,1.631490974598205e+16,122951457509047.02,120733642853262.88,41401215387827.85,66868805869654.1,730783404623444.2,1.2924886017605874e+16
5.199436718578522,2312734136451022.0,1.6906433622317346e+16,123241822314094.2,121018770021063.67,43151217051126.11,69739295461982.8,762187564231648.5,1.3474360816786394e+16
5.403425452950093,2317959977661724.5,1.7509151858294194e+16,123520298852028.9,121292223363814.5,44934482346729.27,72668070652740.84,794232229237266.5,1.4034544576179912e+16
5.611493962009095,2322981110567064.5,1.8123288656829564e+16,123787866818904.22,121554964905684.8,46751565931036.07,75656262399813.83,826929945549747.6,1.4605626940657334e+16
5.823723841249277,2327814233557988.0,1.8749071007064204e+16,124045416044684.19,121807868425772.06,48603033992361.19,78705030354936.05,860293580958311.8,1.5187801843730166e+16
6.040198318074262,2332474552329997.0,1.938672883829701e+16,124293756816031.72,122051729594684.64,50489463972267.33,81815562826269.56,894336325083620.0,1.5781267447674158e+16
6.261002284435747,2336975947782822.0,2.0036495161187964e+16,124533628823409.78,122287274760253.62,52411444331447.55,84989076826697.05,929071690279846.2,1.6386226098383518e+16
6.486222330124463,2341331122026612.5,2.069860619814982e+16,124765708941508.62,122515168587617.4,54369574352738.836,88226818196562.17,964513513364673.0,1.700288429268011e+16
6.715946776726952,2345551725750771.5,2.1373301504520864e+16,124990618016527.33,122736020724071.77,56364463975082.42,91530061791557.02,1000675958076345.8,1.7631452656186536e+16
6.950265712261491,2349648469671012.0,2.2060824081842656e+16,125208926805001.89,122950391630773.58,58396733653242.984,94900111728062.08,1037573518174465.6,1.827214593018012e+16
7.18927102650672,2353631222327378.0,2.2761420484347628e+16,125421161185303.9,123158797700232.66,60467014238917.37,98338301679554.77,1075221021115424.4,1.89251829661008e+16
7.433056447036854,2357509096143613.5,2.3475340919581812e+16,125627806743602.88,123361715759553.52,62575946879526.27,101845995218775.47,1113633632245285.4,1.9590786726591444e+16
7.681717575977592,2361290523359134.5,2.420283934393852e+16,125829312820156.89,123559587043736.86,64724182931536.42,105424586201228.44,1152826859462487.2,2.0269184292120204e+16
7.935351927497144,2364983323197394.5,2.4944173553754684e+16,126026096088605.39,123752820710409.66,66912383885606.734,109075499186327.58,1192816558310884.2,2.096060687237548e+16
8.194058966047088,2368594761429168.5,2.5699605272520496e+16,126218543729998.6,123941796956602.08,69141221301231.31,112800189893109.69,1233618937470291.8,2.1665289821740104e+16
8.45794014536803,2372131603317720.5,2.6469400234663756e+16,126407016254160.5,124126869789214.6,71411376748857.0,116600145687946.67,1275250564617285.0,2.2383472658248548e+16
8.72709894827539,2375600160789635.0,2.725382826629909e+16,126591850013343.16,124308369493335.22,73723541757717.19,120476886102108.47,1317728372633730.8,2.3115399085509252e+16
9.0016409272409,2379006334554617.5,2.8053163363271588e+16,126773359446723.56,124486604836246.31,76078417767831.28,124431963377403.0,1361069666144411.0,2.386131701714435e+16
9.281673745785717,2382355651796143.0,2.8867683766768572e+16,126951839088876.6,124661865039670.83,78476716084805.36,128466963038397.56,1405292128368515.8,2.462147860335216e+16
9.567307220701432,2385653299969250.5,2.969767203673336e+16,127127565370803.62,124834421548312.58,80919157836217.36,132583504490011.73,1450413828272554.2,2.5396140259246244e+16
9.85865336511546,2388904157168937.0,3.0543415123272356e+16,127300798238215.38,125004529618948.08,83406473928493.08,136783241639462.06,1496453228014665.8,2.6185562694663652e+16
10.155826432417769,2392112819471003.5,3.140520443621575e+16,127471782608479.97,125172429751094.36,85939405003291.14,141067863541744.53,1543429190672423.2,2.6990010945167788e+16
10.458942961066125,2395283625594348.0,3.2283335912964016e+16,127640749684836.3,125338348977518.27,88518701392498.78,145439095067990.56,1591360988247914.2,2.7809754403998944e+16
10.768121820287448,2398420679188850.5,3.317811008472562e+16,127807918144081.66,125502502030495.52,91145123071018.27,149898697596170.6,1640268309945487.5,2.8645066854749464e+16
11.083484256693197,2401527869014247.0,3.408983214123129e+16,127973495211866.3,125665092397714.0,93819439606582.05,154448469723735.94,1690171270718858.5,2.9496226504558252e+16
11.405153941827061,2404608887242186.5,3.5018811993990644e+16,128137677637983.58,125826313279969.75,96542430105893.6,159090248001898.6,1741090420085428.2,3.0363516017637284e+16
11.733257020663602,2407667246085193.5,3.596536433813888e+16,128300652582498.88,125986348461309.95,99314883156431.47,163825907691321.34,1793046751206649.2,3.124722254895547e+16
12.067922161076874,2410706292931422.5,3.69298087129079e+16,128462598422257.28,126145373100996.33,102137596763287.27,168657363539090.72,1846061710234217.0,3.214763777791662e+16
12.409280604298411,2413729224142842.0,3.791246956074167e+16,128623685486163.31,126303554455518.03,105011378280451.55,173586570576887.1,1900157205922610.0,3.306505794187711e+16
12.75746621638438,2416739097655730.0,3.891367628506336e+16,128784076726644.94,126461052537946.48,107937044335970.92,178615524940343.56,1955355619509193.5,3.3999783869357468e+16
13.112615540712067,2419738844506514.5,3.993376330669188e+16,128943928333842.36,126618020721044.5,110915420750436.36,183746264709631.3,2011679814863765.2,3.495212101280657e+16
13.474867851526309,2422731279391626.0,4.097307011889382e+16,129103390298329.47,126774606289836.1,113947342448270.02,188980870771354.47,2069153148909906.5,3.592237948078451e+16
13.844365208556836,2425719110358035.0,4.203194134104925e+16,129262606927502.5,126930950948683.08,117033653361299.02,194321467701872.97,2127799482321056.5,3.6910874069430824e+16
14.221252512727972,2428704947710162.0,4.311072677089926e+16,129421717320219.47,127087191287359.7,120175206324112.94,199770224672221.34,2187643190494685.0,3.791792429309061e+16
14.605677562982532,2431691312209658.5,4.420978143533848e+16,129580855803748.36,127243459210121.34,123372862960713.52,205329356374808.75,2248709174808297.8,3.8943854413971176e+16
14.997791114242183,2434680642636068.0,4.532946563970376e+16,129740152336664.86,127399882331334.56,126627493561973.48,211001123972120.4,2311022874161418.5,3.998899347070412e+16
15.397746936527026,2437675302769269.5,4.647014501550897e+16,129899732880937.75,127556584340849.72,129939976953423.75,216787836067672.9,2374610276808044.0,4.1053675305688664e+16
15.805701875257567,2440677587848259.5,4.7632190566562664e+16,130059719746099.47,127713685341964.27,133311200352903.06,222691849699479.03,2439497932484343.0,4.2138238591089624e+16
16.221815912762718,2443689730554703.5,4.881597871340677e+16,130220231908108.94,127871302164533.0,136742059217594.62,228715571356325.84,2505712964836772.0,4.3243026853368616e+16
16.64625223101797,2446713906565441.0,5.002189133599923e+16,130381385305228.66,128029548655509.47,140233457079990.81,234861458017155.78,2573283084155829.5,4.436838849622013e+16
17.079177275638333,2449752239712989.0,5.125031581456852e+16,130543293113022.84,128188535948982.36,143786305372321.12,241132018213892.12,2642236600421200.5,4.551467682178612e+16
17.5207608211511,2452806806789555.0,5.25016450685513e+16,130706066000354.23,128348372717554.72,147401523238984.88,247529813118030.2,2712602436664139.5,4.668225005002279e+16
17.97117603757412,2455879642026439.0,5.377627759352875e+16,130869812368083.83,128509165406739.78,151080037336530.44,254057457651356.03,2784410142653052.5,4.787147133608653e+16
18.430599558325603,2458972741277630.5,5.507461749606459e+16,131034638572008.83,128671018453873.86,154822781620725.84,260717621621148.44,2857689908908682.5,4.9082708785610584e+16
18.899211549492115,2462088065933557.0,5.639707452634776e+16,131200649131420.19,128834034492916.25,158630697120267.5,267513030880237.7,2932472581055391.0,5.0316335467734e+16
19.37719578048196,2465227546588678.5,5.7744064108533656e+16,131367946924541.03,128998314546358.47,162504731696674.47,274446468512303.62,3008789674515067.0,5.157272942575003e+16
19.864739696091597,2468393086484036.0,5.911600736867641e+16,131536633371976.5,129163958205368.48,166445839789917.22,281520776042795.4,3086673389550692.0,5.285227368523171e+16
20.36203449001343,2471586564744355.5,6.051333116013728e+16,131706808609211.8,129331063799173.88,170454982149339.94,288738854675878.4,3166156626666400.0,5.415535625949284e+16
20.869275179813698,2474809839427045.0,6.193646808635e+16,131878571649089.81,129499728554610.88,174533125549425.38,296103666557785.4,3247273002371279.5,5.548237015224079e+16
21.38666068340997,2478064750399274.0,6.338585652082172e+16,132052020535124.58,129670048746672.14,178681242489963.44,303618236067003.8,3330056865314184.5,5.6833713357269496e+16
21.91439389707817,2481353122057538.5,6.4861940624237096e+16,132227252486424.34,129842119840814.88,182900310880199.1,311285651131673.44,3414543312796993.5,5.820978885504353e+16
22.452681775019734,2484676765903105.5,6.636517035853789e+16,132404364034930.0,130016036627724.17,187191313706509.44,319109064574621.56,3500768207673823.5,5.961100460601719e+16
23.00173541052013,2488037482985318.5,6.789600149783552e+16,132583451155618.73,130191893351167.73,191555238683202.1,327091695486432.3,3588768195643880.5,6.103777354052988e+16
23.561770118730532,2491437066223955.5,6.945489563601902e+16,132764609390255.16,130369783829515.39,195993077886010.2,335236830626949.7,3678580722945737.0,6.2490513545116664e+16
24.133005521105144,2494877302620697.0,7.104232019090928e+16,132947933965237.38,130549801571459.03,200505827367878.6,343547825855627.2,3770244054460765.0,6.3969647445067624e+16
24.715665631527248,2498359975368879.5,7.265874840480843e+16,133133519904024.95,130732039886412.28,205094486756636.12,352028107591100.56,3863797292233730.5,6.547560298306781e+16
25.309978944157795,2501886865870277.0,7.43046593412925e+16,133321462134606.36,130916591990040.55,209760058834174.5,360681174300398.56,3959280394418523.5,6.700881279374463e+16
25.91617852304095,2505459755666420.5,7.598053787808291e+16,133511855592418.48,131103551105322.22,214503549096744.72,369510598018144.2,4056734194656881.0,6.856971437394699e+16
26.53450209350177,2509080428291799.0,7.76868746958379e+16,133704795319099.36,131293010559521.92,219325965296021.5,378520025896144.3,4156200421898398.5,7.015875004857691e+16
27.165192135371807,2512750671055464.5,7.942416626269315e+16,133900376557426.97,131485063877415.8,224228316960577.53,387713181783719.56,4257721720669657.5,7.177636693178905e+16
27.808495978079243,2516472276757087.5,8.1192914814381e+16,134098694842765.81,131679804871089.0,229211614897446.38,397093867839112.75,4361341671800621.5,7.342301688337291e+16
28.464665897640828,2520247045343077.0,8.299362832975112e+16,134299846091318.11,131877327726594.33,234276870673453.56,406665966172323.94,4467104813616357.0,7.50991564601278e+16
29.133959215593645,2524076785507841.0,8.482682050151533e+16,134503926685453.47,132077727087742.86,239425096076036.44,416433440519679.06,4575056663602014.0,7.680524686203667e+16
29.816638399905518,2527963316245039.0,8.669301070203152e+16,134711033556370.44,132281098137276.52,244657302553275.22,426400337950425.25,4685243740548982.0,7.854175387304046e+16
30.51297116790363,2531908468353123.5,8.859272394394056e+16,134921264264326.36,132487536675646.88,249974500632904.9,436570790605635.4,4797713587190057.0,8.030914779621893e+16
31.223230591261704,2535914085899192.5,9.052649083546397e+16,135134717076642.98,132697139197616.88,255377699320086.22,446949017469653.6,4912514793331410.0,8.210790338316918e+16
31.947695203086937,2539982027645008.5,9.249484753017373e+16,135351491043697.28,132910002966879.58,260867905473758.38,457539326174326.5,5029697019488848.0,8.39384997573814e+16
32.686649107148675,2544114168438593.0,9.449833567103275e+16,135571686073075.72,133126226088874.95,266446123161418.47,468346114836176.94,5149311021035713.0,8.580142033139867e+16
33.44038208929165,2548312400574527.5,9.653750232850683e+16,135795403002063.53,133345907581972.11,272113352992222.53,479373873926711.1,5271408672869888.0,8.769715271755973e+16
34.20918973107749,2552578635126031.0,9.861289993255326e+16,136022743668629.53,133569147447172.84,277870591428320.6,490627188175938.7,5396042994606431.0,8.962618863210077e+16
34.993373525699035,2556914803251544.0,1.007250861982696e+17,136253810981050.86,133796046736481.16,283718830074405.1,502110738509225.75,5523268176303045.0,9.158902379241374e+16
35.793240996213015,2561322857478352.0,1.0287462404500728e+17,136488708986314.7,134026707620070.3,289659054945477.25,513829304017463.44,5653139604724197.0,9.358615780723531e+16
36.60910581613728,2565804772965510.5,1.0506208150873757e+17,136727542937419.23,134261233452370.98,295692245712886.6,525787763960584.4,5785713890150464.0,9.56180940595585e+16
37.44128793246003,2570362548748459.5,1.0728803164745858e+17,136970419359696.72,134499728837197.69,301819374928769.1,537991099804310.94,5921048893738130.0,9.76853395820419e+16
38.29011369110923,2574998208967234.0,1.0955305243943478e+17,137217446116260.39,134742299692014.0,308041407229037.9,550444397290031.0,6059203755434788.0,9.978840492470525e+16
39.15591596493141,2579713804080031.5,1.1185772667405818e+17,137468732472676.7,134989053311439.16,314359298515156.94,563152848537610.5,6200238922455004.0,1.0192780401468626e+17
40.03903428423004,2584511412064094.5,1.1420264183511781e+17,137724389160956.39,135240098430085.33,320773995114983.3,576121754180848.1,6344216178320577.0,1.0410405400784616e+17
40.93981496991464,2589393139605324.0,1.1658838997626635e+17,137984528442948.52,135495545284807.4,327286432923042.5,589356525535288.0,6491198672468459.0,1.0631767513200626e+17
41.85861126931294,2594361123278201.0,1.1901556758847315e+17,138249264173214.08,135755505676442.33,333897536520647.7,602862686797918.6,6641250950429550.0,1.0856919052159704e+17
42.7957834946992,2599417530717246.0,1.2148477545925427e+17,138518711861455.06,136020093031112.2,340608218276378.6,616645877278289.0,6794438984579847.0,1.1085912604350986e+17
