t(s),Total solute volume 1,Total retention volume 1,Total 1 volume 1,Total 2 volume 1,Total 3 volume 1,Total 4 volume 1,Total 5 volume 1,Total 6 volume 1
0.1,988500314890707.8,1201179625827040.0,98333854761724.14,114345456174609.27,0.0,0.0,0.0,0.0
0.202,1474142203033772.2,1822620600592113.2,146644450740307.78,170522418736354.34,38797841280.79982,79999690121.7246,1289941547246.996,29902789003028.984
0.30604000000000003,1833020921626659.0,2306050840274370.0,182344922891456.78,212035962967381.7,97448136049.09172,200936156304.61725,3239983958637.33,75110664537882.3
0.41216080000000005,2127502852445382.5,2723541816579363.5,211639343040702.56,246100364126863.22,171352077080.68256,353327746458.1222,5697232548285.771,132077344594589.4
0.5204040160000001,2381185940232385.5,3101967161518140.0,236875183275335.6,275445330877697.12,258277770558.94788,532573152261.58563,8587493148454.897,199082363061447.7
0.6308120963200001,2605944238877286.5,3454667524903391.0,259233648579411.44,301444402634776.1,356876965938.5279,735893040433.3723,11865950796681.396,275086514008862.8
0.7434283382464002,2808746498445537.5,3789377949545122.0,279407975009622.78,324903694387341.2,466241315621.57025,961415111085.5955,15502416197302.309,359389709078609.06
0.8582969050113283,2994099940477163.0,4111048794249149.5,297846531133480.56,346344582106199.44,585718242385.6561,1207794440856.0874,19475203821546.145,451489024027522.4
0.9754628431115548,3165122390368096.5,4423074543476378.0,314859471420505.94,366127722400928.6,714819268915.489,1474024472369.6174,23768084169154.57,551008031376402.06
1.094972099973786,3324079711389269.0,4727905434213176.0,330672199006311.4,384515220572537.3,853168680239.0753,1759331165137.568,28368576990851.93,657657226408848.4
1.2168715419732616,3472682116832494.0,5027382312379884.0,345454842178590.75,401704906726183.2,1000472292362.9355,2063108602757.2212,33266912981583.05,771209952765902.0
1.3412089728127268,3612259682676986.0,5322933598787776.0,359339713994364.25,417850638320397.06,1156497246339.6697,2384877332993.3184,38455362033692.805,891486827183000.2
1.4680331522689813,3743872302264416.5,5615697835208198.0,372432250331223.7,433075019250220.1,1321058298099.052,2724256101163.1353,43927777452065.48,1018345171511005.9
1.597393815314361,3868381748370801.5,5906603452462331.0,384818178465046.06,447477735677232.25,1494008156275.8735,3080941929873.559,49679274750825.51,1151671565112274.5
1.729341691620648,3986500686646797.0,6196422661071828.0,396568392820140.44,461141225693175.2,1675230459198.282,3454695640299.249,55705998192590.36,1291376431619629.0
1.863928525453061,4098827064932616.0,6485809012752074.0,407742375943267.0,474134657327741.6,1864634537687.6267,3845331055530.4375,62004946699494.664,1437390002255732.8
2.001207095962122,4205868888078246.5,6775324285016612.0,418390663048720.1,486516794393041.8,2062151424485.4756,4252706774281.671,68573841210142.79,1589659240087681.8
2.1412312378813647,4308062477097463.0,7065458169515325.0,428556658399136.25,498338108623870.1,2267730757297.043,4676719787115.31,75411021746287.16,1748145453104149.0
2.284055862638992,4405786195414041.5,7356642981167669.0,438278000762529.9,509642367470733.4,2481338337207.928,5117300443966.85,82515366268642.7,1912822412470550.2
2.4297369798917723,4499370948581221.5,7649264842319075.0,447587607901476.25,520467848662155.9,2702954177413.689,5574408432649.726,89886225834304.81,2083674848729857.2
2.578331719489608,4589108340584262.0,7943672320596210.0,456514487944300.75,530848283690619.2,2932570925256.33,6048029527098.464,97523372165862.45,2260697235758810.0
2.7298983538794,4675257097390415.0,8240183194204528.0,465084378385821.75,540813600861149.6,3170192572936.5107,6538172930859.205,105426954818642.05,2443892797244700.0
2.884496320956988,4758048188619336.0,8539089817946155.0,473320255579944.06,550390517744078.56,3415833394582.127,7044869087341.23,113597465874290.22,2633272687646579.5
3.0421862473761276,4837688956891328.0,8840663428482923.0,481242745518220.44,559603018840261.06,3669517063044.029,7568167860691.6455,122035710610533.9,2828855311698829.5
3.2030299723236504,4914366480902960.0,9145157634962404.0,488870458381272.4,568472744607169.5,3931275911024.0967,8108137014320.363,130742782970468.58,3030665755175163.5
3.3670905717701234,4988250339750762.0,9452811276602960.0,496220263527684.0,577019311223949.4,4201150309318.056,8664860930961.172,139720044926563.08,3238735305933735.5
3.5344323832055258,5059494904326826.0,9763850783040664.0,503307517437045.75,585260575650189.2,4479188140994.528,9238439530607.115,148969109035364.1,3453101048919650.0
3.7051210308696363,5128241251458568.0,1.0078492140250334e+16,510146254124384.8,593212857045357.9,4765444354853.558,9828987351980.635,158491823629194.3,3673805522286005.5
3.879223451487029,5194618774361447.0,1.0396942540761372e+16,516749345344503.94,600891123059047.5,5059980584933.947,10436632770263.791,168290260205065.56,3900896424436129.0
4.0568079205167695,5258746546567293.0,1.0719401779070912e+16,523128636272590.56,608309147604306.4,5362864825465.594,11061517329229.098,178366702658326.62,4134426363813712.0
4.237944078927105,5320734484170192.0,1.104606343982807e+16,529295061121901.9,615479645301254.6,5674171152696.463,11703795170104.975,188723638076207.1,4374452644835724.5
4.422702960505647,5380684341880697.0,1.1377115916283422e+16,535258742229062.7,622414386696325.6,5993979486614.499,12363632542789.262,199363748859279.88,4621037084588653.0
4.61115701971576,5438690571210893.0,1.171274328879959e+16,541029075424449.8,629124297533429.9,6322375386839.559,13041207387610.83,210289905980586.4,4874245855875784.0
4.803380160110075,5494841063567035.0,1.2053126087285902e+16,546614803953422.94,635619544711703.8,6659449877958.23,13736708977898.047,221505163225340.75,5134149352972533.0
4.9994477633122765,5549217796698333.0,1.2398441956806184e+16,552024082783637.4,641909611063922.8,7005299300374.587,14450337615261.615,233012752280754.53,5400822077063911.0
5.199436718578522,5601897399545759.0,1.2748866241993014e+16,557264534794976.56,648003360695773.5,7360025183396.18,15182304370831.973,244816078566967.0,5674342538835299.0
5.403425452950093,5652951647836281.0,1.31045725030463e+16,562343300080178.6,653909096314057.6,7723734137799.107,15932830866773.932,256918717717561.66,5954793176093644.0
5.611493962009095,5702447900613415.0,1.3465732973823438e+16,567267079369952.6,659634609722675.6,8096537765546.168,16702149093287.402,269324412632399.1,6242260284626151.0
5.823723841249277,5750449486163941.0,1.383251897070897e+16,572042172424112.4,665187226464949.9,8478552584685.072,17490501257031.531,282037071037288.2,6536833960776952.0
6.040198318074262,5797016044400346.0,1.4205101259487522e+16,576674512091051.8,670573845428964.5,8869899967746.725,18298139657513.695,295060763494708.75,6838608054447195.0
6.261002284435747,5842203831619965.0,1.4583650386255946e+16,581169694624508.6,675800974100787.0,9270706092206.648,19125326588485.727,308399721817924.94,7147680131412053.0
6.486222330124463,5886065992630181.0,1.496833697744254e+16,585533006753987.8,680874760042732.6,9681101901776.33,19972334261811.027,322058337847581.3,7464151444004470.0
6.715946776726952,5928652804462137.0,1.5359332013208832e+16,589769449928865.4,685801019085121.6,10101223077461.893,20839444751617.82,336041162555569.5,7788126909348046.0
6.950265712261491,5970011895262874.0,1.5756807077855134e+16,593883762093315.2,690585260646771.6,10531210017472.691,21726949956850.957,350352905445740.5,8119715094432101.0
7.18927102650672,6010188441429422.0,1.6160934590312174e+16,597880437296760.8,695232710538630.2,10971207825183.379,22635151580590.66,364998434225133.06,8459028207416452.0
7.433056447036854,6049225345609135.0,1.6571888017350076e+16,601763743400973.1,699748331554084.4,11421366304458.56,23564361124715.094,379982774722831.6,8806182094633875.0
7.681717575977592,6087163397823594.0,1.6989842071762566e+16,605537738108316.5,704136842107064.5,11881839961736.725,24514899898674.184,395311111036532.3,9161296242826686.0
7.935351927497144,6124041421662974.0,1.7414972897468528e+16,609206283504849.5,708402733143201.8,12352788014347.723,25487099041295.418,410988785889443.44,9524493786212414.0
8.194058966047088,6159896407237239.0,1.7847458243209022e+16,612773059286025.9,712550283519036.4,12834374404602.441,26481299554677.566,427021301182334.4,9895901518025108.0
8.45794014536803,6194763632348394.0,1.828747762629443e+16,616241574810629.9,716583574018697.6,13326767819251.12,27497852349349.66,443414318727412.5,1.0275649906220694e+16
8.72709894827539,6228676773159221.0,1.8735212487666492e+16,619615180109872.5,720506500155598.4,13830141713954.727,28537118299968.348,460173661152398.44,1.0663873113075496e+16
9.0016409272409,6261668005473523.0,1.9190846339379016e+16,622897075962528.1,724322783888083.8,14344674342458.23,29599468310920.77,477305312964516.6,1.1060709018436954e+16
9.281673745785717,6293768097604021.0,1.9654564905462796e+16,626090323133230.5,728035984362004.0,14870548790189.455,30685283391271.953,494815421765448.94,1.1466299246416578e+16
9.567307220701432,6325006495686297.0,2.0126556257024104e+16,629197850859315.1,731649507779448.1,15407953012041.877,31794954738567.473,512710299609298.4,1.1880789195339202e+16
9.85865336511546,6355411402194078.0,2.0607010942323024e+16,632222464661350.0,735166616481072.2,15957079874127.318,32928883831059.11,530996424496667.44,1.2304328070784676e+16
10.155826432417769,6385009848323599.0,2.1096122112490972e+16,635166853543768.4,738590437319189.8,16518127199309.336,34087482527972.234,549680441998667.0,1.2737068921578464e+16
10.458942961066125,6413827760837161.0,2.159408564347385e+16,638033596644327.4,741923969389953.8,17091297816350.883,35271173177483.74,568769167005551.1,1.3179168678603062e+16
10.768121820287448,6441890023890296.0,2.210110025471892e+16,640825169384547.1,745170091185275.8,17676799612528.957,36480388732115.0,588269585595205.9,1.3630788196318958e+16
11.083484256693197,6469220536308275.0,2.2617367625068516e+16,643543949167425.6,748331567218293.1,18274845589586.477,37715572871283.0,608188857017411.4,1.409209229689625e+16
11.405153941827061,6495842264726897.0,2.314309250627511e+16,646192220663800.1,751411054170492.8,18885653922906.363,38977180130787.805,628534315790220.4,1.4563249816869962e+16
11.733257020663602,6521777292968588.0,2.367848283450799e+16,648772180724153.5,754411106603305.9,19509448023808.28,40265676039035.625,649313473905334.6,1.504443365624378e+16
12.067922161076874,6547046867984944.0,2.4223749840185236e+16,651285942948883.6,757334182272560.1,20146456604877.684,41581537259829.664,670534023139720.1,1.553582082997442e+16
12.409280604298411,6571671442663307.0,2.477910815643078e+16,653735541946610.1,760182647080148.1,20796913748251.246,42925251741581.66,692203837471111.1,1.6037592521779746e+16
12.75746621638438,6595670715764214.0,2.5344775926429224e+16,656122937307064.6,762958779693826.2,21461058976790.1,44297318872814.984,714330975595370.4,1.654993414021918e+16
13.112615540712067,6619063669229770.0,2.5920974909924388e+16,658450017312443.8,765664775862883.9,22139137328081.32,45698249643853.78,736923683543968.2,1.7073035377003426e+16
13.474867851526309,6641868603079509.0,2.650793058908453e+16,660718602408773.1,768302752454743.8,22831399431217.37,47128566814603.83,759990397400130.2,1.7607090267495562e+16
13.844365208556836,6664103168089195.0,2.7105872273940308e+16,662930448456725.0,770874751235106.4,23538101586309.797,48588805088352.44,783539746112445.8,1.8152297253372188e+16
14.221252512727972,6685784396428911.0,2.7715033207580304e+16,665087249779429.4,773382742412037.9,24259505846697.94,50079511291521.805,807580554404945.9,1.8708859247416764e+16
14.605677562982532,6706928730421022.0,2.833565067127744e+16,667190642023250.1,775828627962556.9,24995880103823.21,51601244559329.47,832121845782875.9,1.9276983700424604e+16
14.997791114242183,6727552049562649.0,2.896796608970188e+16,669242204845930.1,778214244758490.4,25747498174740.754,53154576527314.14,857172845633550.4,1.985688267019925e+16
15.397746936527026,6747669695944985.0,2.961222513636795e+16,671243464445229.4,780541367506852.2,26514639892247.777,54740091528703.875,882742984421905.5,2.0448772892627972e+16
15.805701875257567,6767296498189026.0,3.0268677839447696e+16,673195895940026.4,782811711518647.9,27297591197611.645,56358386797605.01,908841900980433.2,2.105287585482432e+16
16.221815912762718,6786446794007392.0,3.093757868807874e+16,675100925614699.0,785026935318710.1,28096644235883.38,58010072678004.63,935479445893423.0,2.1669417870330628e+16
16.64625223101797,6805134451491794.0,3.1619186739279508e+16,676959933036759.6,787188643108152.5,28912097453788.176,59695772838586.75,962665684975481.2,2.229863015637496e+16
17.079177275638333,6823372889217360.0,3.231376572558426e+16,678774253056799.8,789298387089944.6,29744255700186.01,61416124493366.74,990410902844504.8,2.2940748913182068e+16
17.5207608211511,6841175095247099.0,3.302158416349707e+16,680545177698995.8,791357669667274.8,30593430329099.484,63171778628161.35,1018725606589307.5,2.35960154053371e+16
17.97117603757412,6858553645113044.0,3.374291546286174e+16,682273957949846.6,793367945523513.1,31459939305308.824,64963400232912.21,1047620529532329.5,2.426467604520475e+16
18.430599558325603,6875520718843775.0,3.447803803723849e+16,683961805452030.8,795330623591912.1,32344107312514.605,66791668539890.44,1077106635087806.2,2.4946982478410536e+16
18.899211549492115,6892088117103115.0,3.5227235415371572e+16,685609894109848.2,797247068922429.4,33246265864075.81,68657277267816.164,1107195120716020.9,2.564319167138827e+16
19.37719578048196,6908267276498697.0,3.599079635382979e+16,687219361612076.8,799118604452576.4,34166753416326.484,70560934871928.33,1137897421974197.8,2.6353566001003988e+16
19.864739696091597,6924069284114936.0,3.67690149508965e+16,688791310877700.0,800946512688527.8,35105915484482.29,72503364800050.4,1169225216664865.8,2.7078373346265984e+16
20.36203449001343,6939504891320789.0,3.75621907617832e+16,690326811429447.1,802732037302335.5,36064104761146.3,74485305754697.42,1201190429082385.5,2.7817887182132456e+16
20.869275179813698,6954584526898188.0,3.837062891523573e+16,691826900699803.4,804476384650579.4,37041681237426.72,76507511961278.89,1233805234358552.2,2.8572386675429904e+16
21.38666068340997,6969318309534222.0,3.9194640231602024e+16,693292585273691.1,806180725219400.1,38039012326679.51,78570753442449.86,1267082062908270.5,2.934215678289732e+16
21.91439389707817,6983716059716262.0,4.003454134242545e+16,694724842071772.9,807846195000478.2,39056472990893.31,80675816298677.6,1301033604976200.5,3.0127488351371184e+16
22.452681775019734,6997787311066770.0,4.089065481162557e+16,696124619478023.8,809473896802206.2,40094445869729.9,82823502995080.36,1335672815285543.8,3.092867822012828e+16
23.00173541052013,7011541321151693.0,4.176330925832883e+16,697492838414909.1,811064901499937.0,41153321412241.76,85014632654612.3,1371012917790074.0,3.174602932540533e+16
23.561770118730532,7024987081793605.0,4.265283948140411e+16,698830393369327.2,812620249228985.9,42233498011282.59,87250041357662.52,1407067410530560.0,3.257985080711272e+16
24.133005521105144,7038133328919039.0,4.35595865857649e+16,700138153372199.4,814140950523704.0,43335382140632.33,89530582448146.34,1443850070596909.0,3.3430458117764268e+16
24.715665631527248,7050988551966836.0,4.448389811048748e+16,701416962934388.9,815627987405822.8,44459388494856.9,91857126846162.5,1481374959197258.8,3.4298173133642176e+16
25.309978944157795,7063561002882956.0,4.54261281588041e+16,702667642941480.1,817082314424912.1,45605940131925.33,94230563367302.56,1519656426835409.5,3.5183324268220144e+16
25.91617852304095,7075858704724955.0,4.6386637530020664e+16,703890991509740.1,818504859653717.9,46775468618605.625,96651799048694.34,1558709118597998.5,3.608624658786696e+16
26.53450209350177,7087889459898144.0,4.736579385341066e+16,705087784805433.4,819896525640883.2,47968414178663.71,99121759481864.97,1598547979552844.8,3.7007281929852824e+16
27.165192135371807,7099660858043659.0,4.836397172413757e+16,706258777829512.0,821258190323416.0,49185225843887.78,101641389152517.45,1639188260259998.2,3.7946779022684584e+16
27.808495978079243,7111180283597775.0,4.938155284125242e+16,707404705169590.9,822590707901102.2,50426361607964.664,104211651787310.7,1680645522397006.2,3.890509360879163e+16
28.464665897640828,7122454923039690.0,5.041892614781687e+16,708526281720943.0,823894909674908.1,51692288583231.62,106833530707740.03,1722935644500019.2,3.988258856959025e+16
29.133959215593645,7133491771845015.0,5.147648797319927e+16,709624203378232.8,825171604851325.6,52983483160329.01,109508029191213.16,1766074827822308.5,4.087963405295091e+16
29.816638399905518,7144297641159949.0,5.255464217759035e+16,710699147699427.5,826421581314423.5,54300431170780.14,112236170839428.48,1810079602312002.2,4.189660760309437e+16
30.51297116790363,7154879164211216.0,5.365380029878478e+16,711751774543454.1,827645606367298.4,55643628052524.37,115018999954150.0,1854966832710549.8,4.293389429294555e+16
31.223230591261704,7165242802464926.0,5.477438170127494e+16,712782726682870.9,828844427444530.9,57013579018429.0,117857581920493.62,1900753724773901.8,4.399188685896977e+16
31.947695203086937,7175394851547498.0,5.591681372770129e+16,713792630392869.6,830018772797075.1,58410799227808.32,120753003597824.23,1947457831618036.5,4.507098583852012e+16
32.686649107148675,7185341446940699.0,5.708153185270491e+16,714782096017786.2,831169352151040.2,59835813960972.86,123706373718378.55,1995097060190749.8,4.617159970972516e+16
33.44038208929165,7195088569461624.0,5.826897983922499e+16,715751718516272.1,832296857341597.2,61289158796840.445,126718823293724.94,2043689677871562.2,4.7294145033943416e+16
34.20918973107749,7204642050538858.0,5.947960989728615e+16,716702077986120.2,833401962923296.1,62771379793631.64,129791506029174.08,2093254319201655.8,4.843904660081334e+16
34.993373525699035,7214007577294502.0,6.071388284531821e+16,717633740169835.6,834485326757927.2,64283033672678.164,132925598746256.86,2143809992745817.5,4.96067375759312e+16
35.793240996213015,7223190697441210.0,6.197226827405078e+16,718547256941777.6,835547590581012.4,65824688005370.875,136122301813388.66,2195376088088313.8,5.079765965117974e+16
36.60910581613728,7232196824003759.0,6.325524471302568e+16,719443166777844.5,836589380547941.9,67396921403272.89,139382839584842.2,2247972382964811.8,5.201226319774328e+16
37.44128793246003,7241031239872869.0,6.456329979976844e+16,720321995208486.6,837611307760776.4,69000323711424.39,142708460848146.78,2301619050532331.5,5.325100742183438e+16
38.29011369110923,7249699102199592.0,6.5896930451660616e+16,721184255255842.0,838613968776533.4,70635496204865.86,146100439280045.25,2356336666779318.5,5.451436052316446e+16
39.15591596493141,7258205446637390.0,6.725664304055397e+16,722030447855737.4,839597946097935.1,72303051788403.89,149560073911129.9,2412146218078087.0,5.5802799856185384e+16
40.03903428423004,7266555191439400.0,6.864295357016708e+16,722861062265268.4,840563808647317.4,74003615199645.3,153088689599289.66,2469069108881594.0,5.7116812094134536e+16
40.93981496991464,7274753141416908.0,7.005638785630377e+16,723676576456584.5,841512112224573.8,75737823215322.62,156687637512094.12,2527127169566917.0,5.845689339591142e+16
41.85861126931294,7282803991766023.0,7.149748170993494e+16,724477457497557.9,842443399949765.8,77506324860939.89,160358295618253.25,2586342664427568.5,5.982354957581478e+16
42.7957834946992,7290712331768013.0,7.296678112318075e+16,725264161919875.5,843358202691193.6,79309781623754.53,164102069188279.47,2646738299816955.0,6.121729627617276e+16
43.751699164593184,7298482648369106.0,7.44648424582341e+16,726037136075171.2,844257039479478.8,81148867669124.52,167920391304494.44,2708337232445211.0,6.263865914289118e+16
44.72673314788505,7306119329645334.0,7.599223263926002e+16,726796816479673.8,845140417908366.8,83024270060239.22,171814723380510.44,2771163077831833.5,6.4088174003954136e+16
