t(s),Total solute volume 1,Total retention volume 1,Total 1 volume 1,Total 2 volume 1,Total 3 volume 1,Total 4 volume 1,Total 5 volume 1,Total 6 volume 1
0.1,964857416365797.9,1154672529873703.2,88762465329957.31,101052648177948.16,0.0,0.0,0.0,0.0
0.202,1451893060253219.0,1740906579302478.5,133567515332666.48,152061473036698.6,4691353169.650373,9363172409.81744,143776766409.8144,3226699387905.383
0.30604000000000003,1821597099617583.5,2188535232975172.2,167578594633432.75,190781777316808.0,11889346166.706312,23729220311.00876,364377244211.8381,8177765596660.799
0.41216080000000005,2133230999118734.2,2568117598825701.5,196247486867389.7,223420207259924.16,21094097077.5682,42100475144.612785,646480821524.276,14509230185904.512
0.5204040160000001,2409007739365326.5,2906074106556370.5,221617684583759.56,252303200494735.88,32080426553.670242,64027529520.78079,983186443419.4623,22066187713059.516
0.6308120963200001,2659999586515373.5,3215566065881026.0,244707785588367.56,278590391412836.47,44724723414.08347,89263689105.49716,1370705923771.6177,30763608028156.84
0.7434283382464002,2892642927250605.5,3504243132715342.5,266109907993992.9,302955883689670.75,58953595646.1316,117662488820.53757,1806790186497.6616,40551007510106.695
0.8582969050113283,3111060445924850.0,3777007082093820.0,286203319889721.1,325831459442367.06,74722745956.78218,149135532149.46893,2290081847427.591,51397916711346.64
0.9754628431115548,3318075944033542.0,4037218749409809.0,305247798087156.06,347512864568877.44,92006546624.19492,183631684412.55618,2819795708682.6934,63286708780508.25
1.094972099973786,3515721068761731.0,4287300272154952.0,323430244827392.6,368212880074339.06,110792253476.09021,221125524935.73834,3395541432051.0425,76208619281028.97
1.2168715419732616,3705513611093802.5,4529065621208770.0,340890289933235.4,388090469135732.4,131076518801.1833,261610387489.45926,4017216669291.361,90161347470416.52
1.3412089728127268,3888621708201022.0,4763915494799968.0,357735396677226.3,407267974551070.3,152863157539.3145,305093902052.64557,4684938602406.097,105147519708646.92
1.4680331522689813,4065966312770125.5,4992958864451226.0,374050288490823.6,425841850684844.2,176161647608.01837,351595001784.6346,5398997983393.508,121173657872647.03
1.597393815314361,4238288088154038.0,5217092276515055.0,389903103012060.25,443889669614345.4,200986085137.25943,401141837914.5957,6159827115809.756,138249460695754.3
1.729341691620648,4406192730349685.0,5437053549281572.0,405349561500034.8,461474867847533.1,227354434643.734,453770283279.5286,6967976875501.529,156387287990897.9
1.863928525453061,4570182643286267.0,5653459281916604.0,420435882816444.0,478650063778804.2,255287977694.8708,509522832014.1193,7824099814565.443,175601781410813.94
2.001207095962122,4730679669277240.0,5866831758302069.0,435200874523112.1,495459438323020.5,284810899398.6635,568447774318.3732,8728937489343.929,195909580015626.94
2.1412312378813647,4888041775906670.0,6077618689284656.0,449677467999145.7,511940482587280.5,315949973181.175,630598567392.0398,9683310800717.287,217329103450266.62
2.284055862638992,5042575551124304.0,6286207990237453.0,463893867932494.8,528125306522801.75,348734317287.01984,696033349517.6469,10688112532555.553,239880384458477.16
2.4297369798917723,5194545723620851.0,6492939037217862.0,477874428150888.2,544041636024714.7,383195204679.48236,764814560722.1638,11744301526770.234,263584938129229.62
2.578331719489608,5344182529191854.0,6698111374556825.0,491640329293594.94,559713584435275.2,419365913408.0715,837008644207.1343,12852898098630.54,288465658979850.0
2.7298983538794,5491687489206861.0,6901991544646880.0,505210110404133.6,575162257741691.1,457281608129.7784,912685809958.903,14014980406905.621,314546739469207.1
2.884496320956988,5637237999640758.0,7104818511846867.0,518600091100154.3,590406235200274.2,496979245954.7311,991919846908.9846,15231681569534.799,341853605243286.8
3.0421862473761276,5780991016232336.0,7306808018575228.0,531824710591148.8,605461955295059.5,538497501527.49097,1074787973488.5906,16504187368872.027,370412863612791.94
3.2030299723236504,5923086043786267.0,7508156119755461.0,544896802680553.9,620344028817103.5,581876707496.9916,1161370718899.4617,17833734428607.33,400252262616532.56
3.3670905717701234,6063647583397618.0,7709042077519573.0,557827820899208.3,635065495170256.9,627158807428.5154,1251751829220.338,19221608772061.47,431400658643765.56
3.5344323832055258,6202787152818521.0,7909630752407992.0,570628024369823.9,649638033970705.1,674387318873.7313,1346018193790.8481,20669144691859.707,463887991044423.0
3.7051210308696363,6340604967361261.0,8110074594362507.0,583306632442394.5,664072141093439.0,723607304809.0864,1444259788300.997,22177723876137.574,497745262496175.94
3.879223451487029,6477191348378755.0,8310515312719278.0,595871954267936.0,678377276186955.1,774865352026.0464,1546569631759.4094,23748774747869.363,533004524153989.94
4.0568079205167695,6612627911284917.0,8511085286571353.0,608331498090933.4,692561987098504.0,828209555341.7661,1653043755082.363,25383771982647.543,569698864803926.1
4.237944078927105,6746988573779798.0,8711908763507420.0,620692064001426.0,706634015468772.2,883689506718.7054,1763781179484.6646,27084236176981.805,607862403394247.2
4.422702960505647,6880340416385987.0,8913102884616043.0,632959823100430.5,720600386858655.6,941356288553.1537,1878883903195.5745,28851733644440.777,647530284434781.4
4.61115701971576,7012744420857342.0,9114778565907894.0,645140385430158.5,734467488085213.4,1001262470527.3818,1998456895291.9644,30687876321088.96,688738675848260.1
4.803380160110075,7144256106966083.0,9317041260336890.0,657238858555512.1,748241133914421.5,1063462109526.9899,2122608095654.1067,32594321764947.848,731524768930752.8
4.9994477633122765,7274926084238637.0,9519991619952612.0,669259898321253.4,761926624846289.8,1128010752210.4453,2251448420220.0757,34572773236826.242,775926780137171.5
5.199436718578522,7404800532120822.0,9723726074067680.0,681207753025012.0,775528797404100.6,1194965439886.4968,2385091770851.7607,36624979851971.64,821983954455039.6
5.403425452950093,7533921619608565.0,9928337336440016.0,693086302021388.2,789052068083697.0,1264384715410.925,2523655049236.8154,38752736793703.13,869736570168015.0
5.611493962009095,7662327873433541.0,1.0133914852171446e+16,704899089593337.6,802500471914767.2,1336328631859.5032,2667258174341.688,40957885581579.83,919225944842051.8
5.823723841249277,7790054502331338.0,1.0340545193183492e+16,716649354783369.9,815877696422500.6,1410858762771.4856,2816024103005.2627,43242314387803.33,970494442392685.6
6.040198318074262,7917133683660221.0,1.0548312409644218e+16,728340057761150.8,829187111646093.2,1488038213788.6519,2970078853324.374,45607958396497.12,1023585481113122.8
6.261002284435747,8043594817614662.0,1.075729834351599e+16,739973903209997.9,842431796763370.8,1567931635540.7302,3129551530533.5605,48056800201297.1,1078543542560596.2
6.486222330124463,8169464753443632.0,1.0967582909407984e+16,751553361137911.9,855614563783345.0,1650605237649.3271,3294574355124.2173,50590870237333.86,1135414181213007.8
6.715946776726952,8294767991397067.0,1.1179244347110948e+16,763080685455744.2,868737978696748.8,1736126803740.5376,3465282692984.28,53212247244252.53,1194244034820405.8
6.950265712261491,8419526863559696.0,1.139235944952643e+16,774557930613063.5,881804380415313.1,1824565707371.7021,3641815087369.8706,55923058757371.79,1255080835386245.5
7.18927102650672,8543761696260941.0,1.160700376914969e+16,785986966539132.8,894815897781525.8,1915992928790.5571,3824313292546.386,58725481624484.83,1317973420722297.8
7.433056447036854,8667490956361357.0,1.1823251805807858e+16,797369492100598.4,907774464889651.6,2010481072456.2292,4012922308958.095,61621742546144.29,1382971746528685.2
7.681717575977592,8790731383387639.0,1.2041177177969202e+16,808707047257290.4,920681834924676.4,2108104385260.8738,4207790419804.962,64614118637561.86,1450126898956969.5
7.935351927497144,8913498109215391.0,1.2260852779619796e+16,820001024072500.1,933539592697071.6,2208938775399.0493,4409069228920.929,67704938010505.91,1519491107620004.5
8.194058966047088,9035804766767058.0,1.2482350924429324e+16,831252676712693.1,946349166027065.4,2313061831839.016,4616913699863.004,70896580373798.36,1591117759017006.8
8.45794014536803,9157663588996604.0,1.2705743478700272e+16,842463130553640.2,959111836111667.1,2420552844356.2686,4831482196132.018,74191477651203.97,1665061410346658.5
8.72709894827539,9279085499267092.0,1.293110198439904e+16,853633390494741.2,971828746990148.6,2531492824095.2407,5052936522457.701,77592114615670.0,1741377803684844.5
9.0016409272409,9400080194084110.0,1.3158497773400834e+16,864764348570127.5,984500914209035.9,2645964524629.906,5281441967089.689,81101029539025.8,1820123880506820.0
9.281673745785717,9520656219028384.0,1.3388002073938948e+16,875856790934113.8,997129232774757.5,2764052463497.9937,5517167345045.032,84720814856382.27,1901357796536769.0
9.567307220701432,9640821038625592.0,1.3619686110126986e+16,886911404288896.9,1009714484471330.8,2885842944188.057,5760285042270.385,88454117844589.11,1985138936910117.8
9.85865336511546,9760581100802490.0,1.3853621195317832e+16,897928781814222.2,1022257344611067.4,3011424078561.323,6010971060684.081,92303641314213.16,2071527931636558.0
10.155826432417769,9879941896500674.0,1.40898788199726e+16,908909428651586.6,1034758388278120.4,3140885809693.951,6269405064069.209,96272144314603.67,2160586671353837.5
10.458942961066125,9998908014952506.0,1.4328530734635416e+16,919853766989360.5,1047218096117700.0,3274319935127.979,6535770424795.271,100362442851687.94,2252378323364236.5
10.768121820287448,1.0117483195065572e+16,1.4569649028541046e+16,930762140789930.1,1059636859717751.1,3411820130521.859,6810254271350.414,104577410618232.66,2346967347947672.5
11.083484256693197,1.0235670373310938e+16,1.4813306204324232e+16,941634820195197.6,1072014986624432.4,3553481973694.0654,7093047536671.878,108919979736376.27,2444419514946913.5
11.405153941827061,1.0353471728466924e+16,1.5059575249248586e+16,952472005642795.6,1084352705028281.6,3699402969055.252,7384345007266.476,113393141512305.14,2544801920621944.5
11.733257020663602,1.0470888723530176e+16,1.5308529703326206e+16,963273831721719.8,1096650168153690.8,3849682572426.9814,7684345373116.945,117999947203020.33,2648183004772046.5
12.067922161076874,1.058792214507306e+16,1.5560243724662424e+16,974040370793030.9,1108907458380953.6,4004422216246.6343,7993251278374.936,122743508795190.38,2754632568125564.5
12.409280604298411,1.0704572140295346e+16,1.5814792152323322e+16,984771636398436.4,1121124591126785.5,4163725335160.213,8311269372843.913,127626999796160.89,2864221789998571.5
12.75746621638438,1.0820838251992486e+16,1.6072250566994708e+16,995467586477211.0,1133301518506682.8,4327697392006.63,8638610364260.124,132653656037229.16,2977023246224807.5
13.112615540712067,1.0936719451638748e+16,1.6332695349673942e+16,1006128126409699.2,1145438132799808.0,4496445904198.526,8975489071382.3,137826776489359.81,3093110927360752.5
13.474867851526309,1.105221417076319e+16,1.659620373861253e+16,1016753111903755.1,1157534269735120.0,4670080470506.655,9322124477904.793,143149724091563.88,3212560257170451.5
13.844365208556836,1.1167320330777924e+16,1.6862853884705924e+16,1027342351738805.2,1169589711615361.0,4848712798256.24,9678739787211.379,148625926592206.75,3335448111396164.5
14.221252512727972,1.1282035371401274e+16,1.7132724905510032e+16,1037895610380663.2,1181604190293937.8,5032456730945.151,10045562477991.076,154258877403569.78,3461852836821668.5
14.605677562982532,1.1396356277804832e+16,1.7405896938045276e+16,1048412610478917.9,1193577390018082.5,5221428276295.801,10422824360738.688,160052136470027.62,3591854270636378.5
14.997791114242183,1.151027960659888e+16,1.7682451190536074e+16,1058893035257472.9,1205508950150410.0,5415745634753.268,10810761635168.002,166009331150252.84,3725533760109123.5
15.397746936527026,1.1623801510759972e+16,1.7962469993220102e+16,1069336530807783.5,1217398467779679.2,5615529228444.37,11209614948565.893,172134157113898.03,3862974182581744.0
15.805701875257567,1.173691776359376e+16,1.8246036848349868e+16,1079742708293318.9,1229245500230464.0,5820901730613.157,11619629455120.559,178430379253259.38,4004259965793314.5
16.221815912762718,1.1849623781815998e+16,1.853323647949861e+16,1090111146072909.1,1241049567480537.2,6031988095550.246,12041054876258.463,184901832610452.62,4149477108546904.5
16.64625223101797,1.1961914647827148e+16,1.8824154880274304e+16,1100441391749908.4,1252810154493733.5,6248915589034.038,12474145562027.566,191552423320685.6,4298713201731745.5
17.079177275638333,1.2073785131247036e+16,1.9118879362535024e+16,1110732964153281.6,1264526713475352.5,6471813819303.745,12919160553567.418,198386129572239.72,4452057449714223.5
17.5207608211511,1.218522970977029e+16,1.9417498604194556e+16,1120985355256212.5,1276198666056425.8,6700814768585.057,13376363646708.496,205407002583831.4,4609600692112501.0
17.97117603757412,1.2296242589395712e+16,1.9720102696697024e+16,1131198032037113.2,1287825405412404.5,6936052825190.652,13846023456746.191,212619167600029.03,4771435425969860.0
18.430599558325603,1.240681772407833e+16,2.0026783192236548e+16,1141370438287522.8,1299406298321360.0,7177664816218.795,14328413484437.164,220026824905477.8,4937655828343269.0
18.899211549492115,1.251694883484587e+16,2.0337633150789216e+16,1151501996370735.8,1310940687166143.8,7425790040874.518,14823812183267.78,227634250858685.56,5108357779323615.0
19.37719578048196,1.262662942841878e+16,2.0652747187022844e+16,1161592108934750.5,1322427891884505.0,7680570304438.95,15332503028047.027,235445798946181.7,5283638885506074.0
19.864739696091597,1.2735852815366518e+16,2.0972221517143836e+16,1171640160582576.0,1333867211870655.0,7942149952913.596,15854774584878.207,243465900857881.75,5463598503928391.0
20.36203449001343,1.2844612127830136e+16,2.129615400573636e+16,1181645519502625.0,1345257927831427.2,8210675908367.01,16390920582565.914,251699067584528.78,5648337766496705.0
20.869275179813698,1.2952900336837496e+16,2.1624644212646344e+16,1191607539061645.8,1356599303599747.5,8486297705012.774,16941239985517.318,260149890538111.38,5837959604918779.0
21.38666068340997,1.3060710269233674e+16,2.195779343995913e+16,1201525559362201.5,1367890587907797.0,8769167526048.452,17506037068197.293,268823042696190.66,6032568776165080.0
21.91439389707817,1.3168034624245736e+16,2.2295704779116864e+16,1211398908766618.5,1379131016121924.8,9059440241285.867,18085621491201.36,277723279771097.25,6232271888478990.0
22.452681775019734,1.3274865989700264e+16,2.263848315821783e+16,1221226905388850.2,1390319811941130.5,9357273445604.508,18680308379009.043,286855441404983.44,6437177427958004.0
23.00173541052013,1.3381196857906476e+16,2.298623538954056e+16,1231008858555717.0,1401456189060574.8,9662827498260.182,19290418399484.816,296224452391749.3,6647395785728293.0
23.561770118730532,1.3487019641218456e+16,2.333907021732909e+16,1240744070238530.0,1412539352801450.2,9976265563081.65,19916277845193.81,305835323926879.6,6863039285735522.0
24.133005521105144,1.3592326687285752e+16,2.369709836587809e+16,1250431836456062.0,1423568501708247.2,10297753649590.123,20558218716601.16,315693154886248.6,7084222213175596.0
24.715665631527248,1.3697110294001058e+16,2.4060432587950924e+16,1260071448649701.5,1434542829114240.0,10627460655074.342,21216578807225.727,325803133134995.7,7311060843588703.0
25.309978944157795,1.38013627241509e+16,2.442918771356604e+16,1269662195031221.0,1445461524675935.8,10965558407658.408,21891701790820.316,336170536867549.9,7543673472641958.0
25.91617852304095,1.390507621977478e+16,2.4803480699180864e+16,1279203361903755.8,1456323775876917.0,11312221710396.125,22583937310650.496,346800735979953.4,7782180446624438.0
26.53450209350177,1.4008243016235458e+16,2.5183430677306544e+16,1288694234956233.2,1467128769501513.2,11667628386429.588,23293641070947.47,357699193475602.4,8026704193680341.0
27.165192135371807,1.4110855356003736e+16,2.5569159006580736e+16,1298134100531456.2,1477875693078474.8,12031959325247.35,24021174930608.887,368871466905578.6,8277369255805618.0
27.808495978079243,1.4212905502156994e+16,2.5960789322327268e+16,1307522246867968.0,1488563736294765.2,12405398530080.482,24766906999224.246,380323209844720.7,8534302321633509.0
28.464665897640828,1.4314385751593322e+16,2.635844758763059e+16,1316857965315636.2,1499192092379491.5,12788133166472.59,25531211735501.22,392060173404640.75,8797632260035506.0
29.133959215593645,1.4415288447958986e+16,2.6762262144950064e+16,1326140551524968.0,1509759959457843.5,13180353612062.564,26314470048170.94,404088207784845.9,9067490154563156.0
29.816638399905518,1.4515605994287804e+16,2.7172363768300732e+16,1335369306609841.2,1520266541874873.5,13582253507616.871,27117069399448.445,416413263863193.7,9344009338757894.0
30.51297116790363,1.4615330865350492e+16,2.758888571602477e+16,1344543538283602.0,1530711051488856.5,13994029809350.35,27939403911128.707,429041394826847.3,9627325432354440.0
31.223230591261704,1.4714455619710136e+16,2.8011963784178028e+16,1353662561968114.2,1541092708933921.2,14415882842572.695,28781874473394.438,441978757844981.06,9917576378404924.0
31.947695203086937,1.4812972911480554e+16,2.8441736360554776e+16,1362725701875463.0,1551410744851538.0,14848016356699.033,29644888856415.926,455231615784400.3,1.0214902481349712e+16
32.686649107148675,1.4910875501783976e+16,2.8878344479374188e+16,1371732292062029.8,1561664401090500.2,15290637581662.695,30528861824820.06,468806338969317.1,1.0519446446061866e+16
33.44038208929165,1.5008156269902688e+16,2.9321931876650584e+16,1380681677454365.0,1571852931874896.5,15743957285767.826,31434215255107.645,482709406986470.75,1.0831353417891354e+16
34.20918973107749,1.5104808224121016e+16,2.9772645046270276e+16,1389573214846631.8,1581975604939625.0,16208189835019.334,32361378256097.07,496947410536797.25,1.1150771023735042e+16
34.993373525699035,1.5200824512252406e+16,3.023063329679482e+16,1398406273869018.8,1592031702632893.2,16683553253968.043,33310787292471.152,511527053334844.7,1.147784941415919e+16
35.793240996213015,1.5296198431846232e+16,3.069604880901473e+16,1407180237926747.0,1602020522985265.8,17170269288107.701,34282886311505.62,526455154057123.1,1.1812741306599764e+16
36.60910581613728,1.5390923440070388e+16,3.1169046694272092e+16,1415894505109197.0,1611941380744660.2,17668563467860.42,35278126873053.99,541738648340564.0,1.2155602029666386e+16
37.44128793246003,1.5484993163263672e+16,3.1649785053573904e+16,1424548489068711.5,1621793608376814.5,18178665174187.207,36296968282865.76,557384590832245.9,1.2506589568575416e+16
38.29011369110923,1.5578401406153516e+16,3.2138425037516404e+16,1433141619868568.8,1631576557030673.5,18700807705858.945,37339877729312.305,573400157291559.6,1.2865864611736868e+16
39.15591596493141,1.5671142160734234e+16,3.263513090704018e+16,1441673344799723.5,1641289597468265.0,19235228348422.58,38407330423593.62,589792646745917.9,1.323359059852002e+16
40.03903428423004,1.5763209614800872e+16,3.3140070095036224e+16,1450143129165923.5,1650932120958452.5,19782168444897.81,39499809743498.78,606569483701151.6,1.360993376822146e+16
40.93981496991464,1.5854598160134518e+16,3.3653413268822012e+16,1458550457036699.8,1660503540134233.0,20341873468237.133,40617807380791.375,623738220407677.6,1.3995063210259854e+16
41.85861126931294,1.5945302400335162e+16,3.417533439350784e+16,1466894831967935.5,1670003289813061.0,20914593095582.32,41761823492290.02,641306539183517.0,1.4389150915620278e+16
42.7957834946992,1.6035317158297334e+16,3.4706010796271416e+16,1475175777689612.2,1679430827779836.5,21500581284350.31,42932366854711.2,659282254795219.1,1.4792371829570346e+16
43.751699164593184,1.6124637483325894e+16,3.5245623231561064e+16,1483392838760434.0,1688785635532145.0,22100096350178.1,44129955023342.23,677673316897717.4,1.5204903905671368e+16
