t(s),Total solute volume 1,Total retention volume 1,Total 1 volume 1,Total 2 volume 1,Total 3 volume 1,Total 4 volume 1,Total 5 volume 1,Total 6 volume 1
0.1,1392571168361754.5,6037270240607699.0,1452613831222594.2,3192085241023349.0,0.0,0.0,0.0,-0.09582846306271511
0.202,1983487766487730.2,9124078732840870.0,2069009211766512.5,4546607676531055.0,128564367419.54697,703499174434.9757,38009254019163.16,486132760494560.5
0.30604000000000003,2373122881492743.5,1.165813451380391e+16,2475444185177972.5,5439741717846693.0,310717442468.0004,1700641905069.856,93489127856911.2,1274325242082049.5
0.41216080000000005,2655272725523436.5,1.3934116918184208e+16,2769759434983756.5,6086494263568341.0,526721527224.6366,2883170274618.449,159677143307390.75,2259503458999441.0
0.5204040160000001,2871011041017488.5,1.6068889415289124e+16,2994799694204351.5,6581016140974450.0,766997479404.2644,4198609772554.8354,233455717476910.53,3383641214363965.5
0.6308120963200001,3042050087291999.5,1.812095112673506e+16,3173213392559471.5,6973076963330729.0,1026118595303.6122,5617241192900.177,313104812496371.9,4612862511268289.0
0.7434283382464002,3181196792226801.0,2.01240959068965e+16,3318359654497796.5,7292033203419258.0,1300705595098.4458,7120561586230.745,397572567797093.1,5926512421774241.0
0.8582969050113283,3296554014655144.5,2.2099802152054236e+16,3438690709150965.0,7556458494994443.0,1588493700798.4895,8696171720251.985,486162109846128.1,7311652157986506.0
0.9754628431115548,3393586074999771.0,2.406268246451723e+16,3539906481131821.0,7778878321872225.0,1887905309550.6396,10335434982396.305,578390406244710.1,8759697839976759.0
1.094972099973786,3476137185730005.0,2.6023209232088504e+16,3626016932890659.0,7968104501968340.0,2197803860867.6123,12032129204600.242,673909572027312.2,1.0264811106406728e+16
1.2168715419732616,3547020168497706.0,2.798920620994427e+16,3699956165678224.0,8130584666151240.0,2517360520832.9,13781716713530.162,772465111501519.5,1.1822881020881232e+16
1.3412089728127268,3608357582151656.0,2.9966723362439504e+16,3763938256008471.0,8271184203792353.0,2845970148480.9824,15580884315838.533,873870253497316.4,1.3430946212525406e+16
1.4680331522689813,3661790109769113.0,3.1960578892921908e+16,3819674627710265.5,8393663934439537.0,3183194597689.9673,17427232956174.201,977988838447698.6,1.5086850955001418e+16
1.597393815314361,3708610248876068.5,3.3974710314462068e+16,3868513506453105.0,8500986556766577.0,3528722686911.1577,19319058615445.63,1084723286751305.5,1.6789028934312656e+16
1.729341691620648,3749851869032855.5,3.6012410330207588e+16,3911533338769020.5,8595521935184118.0,3882341114347.91,21255193117596.78,1194005860648980.0,1.853635979234066e+16
1.863928525453061,3786352425626800.5,3.807649027578099e+16,3949607688300692.0,8679189708116204.0,4243912914532.16,23234886211637.875,1305792184690957.2,2.0328069469920196e+16
2.001207095962122,3818797486794447.5,4.0169396378594904e+16,3983451682576883.0,8753561353880255.0,4613361269259.602,25257716958781.215,1420056368230629.2,2.216365840888465e+16
2.1412312378813647,3847753390408041.5,4.229329434512042e+16,4013656078058628.0,8819935047942989.0,4990657199700.469,27323526361886.957,1536787289443047.8,2.4042848355706136e+16
2.284055862638992,3873691685919525.0,4.445013212730337e+16,4040712755832919.5,8879391689186906.0,5375810118052.77,29432365645806.562,1655985735637051.0,2.5965542084963096e+16
2.4297369798917723,3897007742513067.0,4.664168730980045e+16,4065034132085423.0,8932837554022829.0,5768860515330.109,31584456229407.266,1777662183774164.5,2.7931792380660228e+16
2.578331719489608,3918035123811592.0,4.886960343946647e+16,4086968152595288.0,8981037246479301.0,6169874264102.255,33780158536846.55,1901835065549272.8,2.9941777818230076e+16
2.7298983538794,3937056832862557.0,5.113541826258006e+16,4106810022566129.5,9024639474259946.0,6578938154906.746,36019947561342.63,2028529403190511.5,3.1995783643984684e+16
2.884496320956988,3954314205896898.0,5.344058594629814e+16,4124811483853361.0,9064197435254958.0,6996156383567.134,38304393633865.76,2157775731550426.2,3.409418653972508e+16
3.0421862473761276,3970014014743928.5,5.5786494764859464e+16,4141188223610793.5,9100185097885638.0,7421647777177.006,40634147235145.65,2289609243096465.5,3.6237442390510296e+16
3.2030299723236504,3984334187499065.0,5.8174481323452536e+16,4156125841613910.5,9133010314171190.0,7855543597758.691,43009926969870.47,2424069107681692.5,3.842607640191905e+16
3.3670905717701234,3997428451659213.0,6.060584210879503e+16,4169784693591301.5,9163025462847466.0,8297985800357.021,45432510028563.43,2561197930219584.5,4.066067507464855e+16
3.5344323832055258,4009430128731212.0,6.308184295450107e+16,4182303849443611.5,9190536147469800.0,8749125650473.75,47902724616654.84,2701041317766170.5,4.294187966082313e+16
3.7051210308696363,4020455254789056.0,6.560372686488554e+16,4193804348348494.5,9215808349437940.0,9209122626955.553,50421443946332.625,2843647533827123.0,4.527038081190964e+16
3.879223451487029,4030605161353209.5,6.817272053562836e+16,4204391890918641.0,9239074343957096.0,9678143552577.7,52989581475027.164,2989067222511929.5,4.764691419185985e+16
4.0568079205167695,4039968621092097.0,7.079003983208724e+16,4214159077418579.5,9260537618472946.0,10156361906933.225,55608087142076.88,3137353188844640.5,5.007225687720998e+16
4.237944078927105,4048623640332012.0,7.345689442810821e+16,4223187277561539.0,9280376981511590.0,10643957285790.107,58277944407399.4,3288560224391849.0,5.2547224402617976e+16
4.422702960505647,4056638963214079.5,7.617449176447326e+16,4231548199520557.0,9298750010549332.0,11141114978503.209,61000167936630.93,3442744969588115.0,5.5072668338686024e+16
4.61115701971576,4064075339149947.5,7.894404045283251e+16,4239305212032584.0,9315795957309536.0,11648025640870.928,63775801808958.45,3599965805877031.0,5.764947431101358e+16
4.803380160110075,4070986594997690.0,8.176675322536995e+16,4246514462802984.0,9331638205433888.0,12164885045385.625,66605918148821.06,3760282772154339.0,6.027856038678686e+16
4.9994477633122765,4077420545378608.0,8.464384951061413e+16,4253225828072164.0,9346386357136070.0,12691893894423.37,69491616102346.78,3923757501081509.0,6.296087576894896e+16
5.199436718578522,4083419768252470.5,8.757655770029845e+16,4259483721631016.5,9360138010997022.0,13229257684768.668,72434021094987.8,4090453171697819.0,6.569739974894028e+16
5.403425452950093,4089022267869049.5,9.056611715997934e+16,4265327786356730.5,9372980281601352.0,13777186614135.088,75434284319221.34,4260434475444163.5,6.8489140877774664e+16
5.611493962009095,4094262043223358.5,9.361378002645067e+16,4270793487177907.0,9384991102566500.0,14335895522150.402,78493582411075.1,4433767593260160.5,7.133713632228953e+16
5.823723841249277,4099169576938375.5,9.672081282728566e+16,4275912621036338.5,9396240347173974.0,14905603859720.598,81613117282155.1,4610520181856446.0,7.42424513791387e+16
6.040198318074262,4103772256913794.5,9.988849795165653e+16,4280713756715809.0,9406790794884570.0,15486535681847.592,84794116080202.06,4790761367618088.0,7.72061791237622e+16
6.261002284435747,4108094740981851.5,1.0311813499659365e+17,4285222615220746.0,9416698967213320.0,16078919659908.55,88037831256316.08,4974561746881427.0,8.022944017538003e+16
6.486222330124463,4112159273102708.5,1.0641104200880605e+17,4289462399604872.5,9426015852521714.0,16682989110157.172,91345540721105.5,5161993391558021.0,8.331338256218747e+16
6.715946776726952,4115985958232863.0,1.0976855663888986e+17,4293454081691081.0,9434787536079232.0,17298982035815.426,94718548075347.98,5353129859267171.0,8.645918167350842e+16
6.950265712261491,4119593001850807.5,1.131920372220584e+17,4297216651924628.0,9443055749111222.0,17927141180616.51,98158182903445.05,5548046207291350.0,8.96680402877963e+16
7.18927102650672,4122996919175773.5,1.1668286379731107e+17,4300767337612764.0,9450858348376416.0,18567714092059.29,101665801120142.34,5746819009793368.0,9.29411886671405e+16
7.433056447036854,4126212718330404.5,1.2024243907513085e+17,4304121793984766.5,9458229736017880.0,19220953192959.395,105242785362763.7,5949526377835428.0,9.627988471040661e+16
7.681717575977592,4129254061045717.0,1.2387218936228645e+17,4307294271825979.5,9465201227935878.0,19887115860146.06,108890545422655.9,6156247981823841.0,9.968541415837226e+16
7.935351927497144,4132133403963081.0,1.2757356545105458e+17,4310297764872305.0,9471801377684596.0,20566464509370.273,112610518710723.08,6367065076070876.0,1.0315909084524366e+17
8.194058966047088,4134862123133256.5,1.3134804347912902e+17,4313144139677238.5,9478056261852686.0,21259266685665.18,116404170752893.73,6582060525221504.0,1.0670225699180576e+17
8.45794014536803,4137450623931235.0,1.3519712576560202e+17,4315844250265884.5,9483989732013500.0,21965795158544.36,120272995712154.61,6801318832338688.0,1.1031628353618203e+17
8.72709894827539,4139908438284879.5,1.3912234162766829e+17,4318408039555807.5,9489623637595578.0,22686328021541.85,124218516934432.66,7024926168478829.0,1.1400257049879718e+17
9.0016409272409,4142244310845030.5,1.4312524818207622e+17,4320844629242500.5,9494978023404528.0,23421148795694.223,128242287516135.55,7252970403620288.0,1.1776254737865198e+17
9.281673745785717,4144466275495878.5,1.4720743113482995e+17,4323162399608668.0,9500071305002574.0,24170546536645.254,132345890891600.92,7485541138833919.0,1.2159767357846066e+17
9.567307220701432,4146581723410715.5,1.5137050556219926e+17,4325369060514314.5,9504920424707944.0,24934815945119.113,136530941439063.81,7722729739605716.0,1.255094388565765e+17
9.85865336511546,4148597463693270.5,1.5561611668571862e+17,4327471714652762.5,9509540990599174.0,25714257480562.133,140799085104044.53,7964629370239845.0,1.2949936380394894e+17
10.155826432417769,4150519777504661.5,1.5994594064353293e+17,4329476914011384.5,9513947400586378.0,26509177477797.46,145152000039308.9,8211335029284749.0,1.335690003446287e+17
10.458942961066125,4152354466456043.0,1.6436168526018102e+17,4331390710350794.5,9518152953338644.0,27319888266574.63,149591397260750.2,8462943585937585.0,1.377199322585707e+17
10.768121820287448,4154106895944636.0,1.688650908166657e+17,4333218700409394.0,9522169947620222.0,28146708293925.664,154119021318715.25,8719553817392417.0,1.4195377572568642e+17
11.083484256693197,4155782034022854.5,1.734579308224657e+17,4334966066448413.0,9526009771387614.0,28989962249265.383,158736650984429.2,8981266447106166.0,1.46272179890267e+17
11.405153941827061,4157384486314734.5,1.78142012790972e+17,4336637612673850.5,9529682981826206.0,29849981192194.164,163446099951295.2,9248184183963502.0,1.5067682744505014e+17
11.733257020663602,4158918527428898.5,1.8291917901968323e+17,4338237798003840.0,9533199377356078.0,30727102682979.402,168249217550937.94,9520411762327940.0,1.551694352343326e+17
12.067922161076874,4160388129261035.5,1.8779130737636925e+17,4339770765591479.5,9536568062507914.0,31621670915705.785,173147889483940.94,9798055982971424.0,1.597517548756377e+17
12.409280604298411,4161796986530591.0,1.927603120923024e+17,4341240369462562.5,9539797506459080.0,32534036854097.707,178144038565294.56,1.0081225754879002e+16,1.6442557339955187e+17
12.75746621638438,4163148539854169.5,1.9782814456356547e+17,4342650198583856.0,9542895595923256.0,33464558370026.305,183239625484630.38,1.0370032137928738e+16,1.6919271390742074e+17
13.112615540712067,4164445996621869.0,2.0299679416135926e+17,4344003598639539.5,9545869683003806.0,34413600384723.56,188436649581358.25,1.0664588386450292e+16,1.740550362466777e+17
13.474867851526309,4165692349910979.5,2.0826828905217027e+17,4345303691760429.5,9548726628548526.0,35381535012731.336,193737149634873.06,1.0965009993667784e+16,1.79014437703635e+17
13.844365208556836,4166890395644041.5,2.136446970285911e+17,4346553394421834.5,9551472841479864.0,36368741708621.586,199143204670020.5,1.1271414737035474e+16,1.8407285371363117e+17
14.221252512727972,4168042748174093.0,2.19128126351542e+17,4347755433700771.0,9554114314519972.0,37375607416527.68,204656934778051.38,1.1583922724476002e+16,1.892322585884764e+17
14.605677562982532,4169151854458983.0,2.2472072660459232e+17,4348912362061480.0,9556656656681588.0,38402526722531.234,210280501953308.9,1.1902656441533012e+16,1.9449466626118128e+17
14.997791114242183,4170220006968326.0,2.304246895610454e+17,4350026570818832.0,9559105122853720.0,39449902009954.695,216016110945923.25,1.2227740799451548e+16,1.9986213104799715e+17
15.397746936527026,4171249355450377.0,2.362422500644155e+17,4351100302412614.0,9561464640774258.0,40518143617610.25,221866010130800.1,1.2559303184200384e+16,2.0533674842782925e+17
15.805701875257567,4172241917672212.0,2.4217568692289837e+17,4352135661610749.5,9563739835648822.0,41607670001061.695,227832492393212.5,1.2897473506452094e+16,2.1092065583912016e+17
16.221815912762718,4173199589233981.5,2.482273238184149e+17,4353134625746741.5,9565935052647412.0,42718907896956.19,233917896031312.84,1.3242384252537332e+16,2.1661603349432134e+17
16.64625223101797,4174124152547118.0,2.5439953023078086e+17,4354099054084987.0,9568054377484636.0,43852292490486.91,240124605675902.97,1.3594170536390896e+16,2.2242510521210672e+17
17.079177275638333,4175017285056827.5,2.6069472237754538e+17,4355030696397791.0,9570101655267464.0,45008267586048.125,246455053227805.6,1.3952970152507698e+16,2.2835013926750182e+17
17.5207608211511,4175880566780499.0,2.671153641700252e+17,4355931200828829.5,9572080507775186.0,46187285781147.984,252911718813193.47,1.4318923629927952e+16,2.343934492601185e+17
17.97117603757412,4176715487226326.5,2.7366396818604285e+17,4356802121110052.0,9573994349318374.0,47389808643644.46,259497131757247.3,1.4692174287270968e+16,2.4055739500071622e+17
18.430599558325603,4177523451749609.5,2.8034309665987587e+17,4357644923192088.5,9575846401309184.0,48616306892372.78,266213871576514.12,1.5072868288838096e+16,2.4684438341631805e+17
18.899211549492115,4178305787398409.0,2.8715536248991334e+17,4358460991341921.5,9577639705660892.0,49867260581233.6,273064568990354.1,1.5461154701805814e+16,2.5325686947413456e+17
19.37719578048196,4179063748294924.5,2.941034302645043e+17,4359251633756302.5,9579377137123248.0,51143159286813.0,280051906951871.75,1.5857185554530382e+16,2.597973571245607e+17
19.864739696091597,4179798520594266.0,3.0119001730648934e+17,4360018087734340.5,9581061414649250.0,52444502299607.086,287178621698730.3,1.626111589598608e+16,2.6646840026352704e+17
20.36203449001343,4180511227058271.5,3.084178947368893e+17,4360761524448502.0,9582695111879346.0,53771798818924.57,294447503824263.94,1.6673103856359792e+16,2.7327260371450026e+17
20.869275179813698,4181202931278110.5,3.157898885582358e+17,4361483053349339.5,9584280666820650.0,55125568151543.67,301861399369303.2,1.7093310708824972e+16,2.8021262423044192e+17
21.38666068340997,4181874641576390.5,3.23308880758018e+17,4362183726235775.0,9585820390791572.0,56506339914198.86,309423210935146.6,1.752190093251854e+16,2.8729117151604627e+17
21.91439389707817,4182527314616235.5,3.3097781043272557e+17,4362864541019831.5,9587316476694542.0,57914654239977.51,317135898818104.6,1.7959042276744984e+16,2.945110092705918e+17
22.452681775019734,4183161858742380.5,3.387996749329636e+17,4363526445211799.0,9588771006674716.0,59351061988703.81,325002482166067.7,1.8404905826432052e+16,3.0187495625174765e+17
23.00173541052013,4183779137076918.5,3.467775310301246e+17,4364170339149425.0,9590185959216112.0,60816124961393.12,333026040157543.75,1.8859666068863388e+16,3.0938588736069946e+17
23.561770118730532,4184379970390154.0,3.549144961050923e+17,4364797078992573.0,9591563215722268.0,62310416118857.57,341209713203625.0,1.932350096171356e+16,3.1704673474895123e+17
24.133005521105144,4184965139765166.0,3.632137493594722e+17,4365407479502675.0,9592904566624092.0,63834519804548.34,349556704173354.1,1.97965920024114e+16,3.248604889471907e+17
24.715665631527248,4185535389073011.0,3.716785330498276e+17,4366002316624643.5,9594211717053624.0,65389031971718.02,358070279642960.0,2.027912429885864e+16,3.328302000166031e+17
25.309978944157795,4186091427273876.0,3.8031215374542234e+17,4366582329887270.5,9595486292118762.0,66974560414992.0,366753771169454.6,2.0771286641530548e+16,3.4095897872302765e+17
25.91617852304095,4186633930558190.5,3.8911798360996544e+17,4367148224636635.0,9596729841811292.0,68591725006435.48,375610576589070.9,2.1273271576986348e+16,3.4924999773437786e+17
26.53450209350177,4187163544340414.5,3.980994617078576e+17,4367700674115853.5,9597943845577012.0,70241157936206.695,384644161341059.56,2.1785275482817344e+16,3.5770649284173e+17
27.165192135371807,4187680885117091.0,4.072600953354511e+17,4368240321403282.0,9599129716574974.0,71923503957888.23,393858059817338.5,2.2307498644061676e+16,3.663317642045187e+17
27.808495978079243,4188186542199813.5,4.166034613778367e+17,4368767781220156.5,9600288805649706.0,73639420638587.42,403255876738521.9,2.2840145331114268e+16,3.7512917762027546e+17
28.464665897640828,4188681079332691.0,4.2613320769167904e+17,4369283641617845.5,9601422405038954.0,75389578613903.19,412841288556859.0,2.3383423879162372e+16,3.841021658193565e+17
29.133959215593645,4189165036203255.0,4.358530545146246e+17,4369788465553862.5,9602531751836936.0,77174661847852.95,422618044886611.94,2.3937546769176344e+16,3.932542297851197e+17
29.816638399905518,4189638929854820.5,4.457667959018201e+17,4370282792365149.0,9603618031231922.0,78995367897858.81,432589969962425.5,2.450273071048653e+16,4.025889401000214e+17
30.51297116790363,4190103256007754.0,4.5587830119008134e+17,4370767139146311.0,9604682379534790.0,80852408184892.33,442760964126246.4,2.5079196724977836e+16,4.1210993831810355e+17
31.223230591261704,4190558490296445.0,4.6619151649026355e+17,4371242002039912.0,9605725887014536.0,82746508268878.64,453135005343351.4,2.5667170232933564e+16,4.218209383643671e+17
31.947695203086937,4191005089428176.5,4.76710466208387e+17,4371707857445334.0,9606749600554660.0,84678408129463.84,463716150748069.0,2.6266881140561052e+16,4.317257279615202e+17
32.686649107148675,4191443492269677.0,4.874392545960888e+17,4372165163152129.5,9607754526143730.0,86648862452248.84,474508538219777.44,2.687856392923251e+16,4.418281700846184e+17
33.44038208929165,4191874120866516.5,4.983820673309667e+17,4372614359403447.0,9608741631212222.0,88658640920598.84,485516387989776.56,2.7502457746473984e+16,4.521322044441003e+17
34.20918973107749,4192297381400292.0,5.095431731274118e+17,4373055869894421.0,9609711846826524.0,90708528513133.84,496744004279641.4,2.8138806498737548e+16,4.6264184899776e+17
34.993373525699035,4192713665087973.0,5.209269253785013e+17,4373490102710326.0,9610666069750444.0,92799325807013.25,508195776971679.06,2.8787858945991036e+16,4.733612014921828e+17
35.793240996213015,4193123349027520.5,5.325377638295745e+17,4373917451208655.5,9611605164383632.0,94931849287124.97,519876183312117.56,2.9449868798161136e+16,4.842944410341944e+17
36.60910581613728,4193526796993574.0,5.4438021628408646e+17,4374338294849109.0,9612529964585434.0,97106931661294.77,531789789647664.75,3.0125094813465824e+16,4.954458296928834e+17
37.44128793246003,4193924360186676.0,5.5645890034236435e+17,4374752999975120.5,9613441275392316.0,99325422181630.6,543941253196100.4,3.08138008986731e+16,5.068197141327593e+17
38.29011369110923,4194316377939263.0,5.687785251739e+17,4375161920550287.5,9614339874636142.0,101588186972121.3,556335323851553.44,3.15162562113236e+16,5.1842052727862694e+17
39.15591596493141,4194703178381324.5,5.813438933238136e+17,4375565398852757.5,9615226514470068.0,103896109362610.42,568976846025149.5,3.223273526395496e+16,5.3025279001276717e+17
40.03903428423004,4195085079068625.0,5.941599025541441e+17,4375963766130503.0,9616101922808544.0,106250090229265.6,581870760521720.5,3.296351803036706e+16,5.4232111290501824e+17
40.93981496991464,4195462387575865.0,6.072315477206164e+17,4376357343220071.5,9616966804686980.0,108651048341670.34,595022106453266.8,3.3708890053967824e+16,5.5463019797637075e+17
