t(s),Total solute volume 1,Total retention volume 1,Total 1 volume 1,Total 2 volume 1,Total 3 volume 1,Total 4 volume 1,Total 5 volume 1,Total 6 volume 1
0.1,988500314890707.8,1201179625827040.0,98333854761724.14,114345456174609.27,0.0,0.0,0.0,0.0
0.202,1325653959823863.8,1966958342568318.5,131873164356089.55,153345939160742.28,441182699402.18463,909877131124.3411,14671380186299.693,340062839210795.1
0.30604000000000003,1511035785516349.8,2655965663382172.5,150314544129549.4,174790110640337.1,1015637729938.0765,2094835629432.6624,33778864320091.92,782935885416476.9
0.41216080000000005,1629784585472352.0,3319985965934916.5,162127415803014.94,188526460571918.78,1659372897746.229,3422967792564.69,55195393531369.53,1279269769865951.5
0.5204040160000001,1712506968463853.2,3976341794796236.5,170356458081099.16,198095429711804.84,2347772274812.3633,4843545729294.245,78103006882947.45,1810088613652426.5
0.6308120963200001,1773396006481978.8,4632877713864638.0,176413566814005.06,205138811514983.8,3069185078002.5327,6332571196210.428,102114758807115.53,2366412813972335.0
0.7434283382464002,1820026508126274.5,5293822401024078.0,181052267442007.88,210532827222314.9,3817443453694.2,7877350383619.512,127025987050615.95,2943490017345555.0
0.8582969050113283,1856831340041647.0,5961744288261285.0,184713531871731.56,214790251758975.16,4589052206098.407,9470700385298.803,152720892957244.22,3538628519040288.0
0.9754628431115548,1886582557563334.0,6638351452683481.0,187673118122694.0,218231744549783.3,5381950125645.546,11108395639920.56,179131365883141.47,4150242320798961.0
1.094972099973786,1911103579427094.2,7324866290099562.0,190112415914332.6,221068230822823.7,6194902081548.906,12787914733635.201,206216775672458.28,4777382471447676.0
1.2168715419732616,1931642926117796.2,8022219051015311.0,192155625341836.47,223444134052134.3,7027176177144.419,14507774877972.037,233953241271525.84,5419488173176886.0
1.3412089728127268,1949083934485894.0,8731155538819086.0,193890618828833.16,225461634841420.12,7878361477009.25,16267156186777.379,262327572295094.2,6076246260704065.0
1.4680331522689813,1964068876426440.0,9452300676135920.0,195381288182894.62,227195028438348.56,8748259911499.351,18065678876728.906,291333676459856.8,6747507867840149.0
1.597393815314361,1977075695553318.2,1.0186197865836648e+16,196675178192533.84,228699601302574.6,9636819519250.502,19903265691165.363,320970341233584.3,7433236964344215.0
1.729341691620648,1988467215114293.0,1.0933334357359056e+16,197808381723287.34,230017323265466.1,10544091791189.727,21780054013348.094,351239816723124.3,8133477474728356.0
1.863928525453061,1998523689775161.2,1.169415815885118e+16,198808777898209.62,231180612980321.7,11470203613009.36,23696338078083.805,382146883898744.25,8848331652607667.0
2.001207095962122,2007464925099623.0,1.2469089648885696e+16,199698232495496.0,232214896608561.6,12415338344275.32,25652530021836.434,413698226591040.56,9577945499724896.0
2.1412312378813647,2015465664636766.8,1.325852975738269e+16,200494128622390.84,233140387731755.62,13379722780858.117,27649133064444.79,445901999112797.9,1.0322498721433672e+16
2.284055862638992,2022666517257736.8,1.4062865863598162e+16,201210453742808.22,233973351378880.2,14363618001705.18,29686722701452.656,478767523055200.06,1.108219767746038e+16
2.4297369798917723,2029181861247042.0,1.4882476137717032e+16,201858585959102.22,234727018337570.72,15367312837668.83,31765933304813.336,512305071297531.7,1.1857270354733298e+16
2.578331719489608,2035105656419875.0,1.571773279841088e+16,202447872188820.53,235412257474829.25,16391119145745.18,33887448448458.676,546525712083935.9,1.2647962732649236e+16
2.7298983538794,2040515781770871.5,1.6569004600858782e+16,202986059664546.7,236038077497558.12,17435368348818.32,36051993845752.35,581441195220484.5,1.345453612451076e+16
2.884496320956988,2045477316481128.8,1.7436658769119574e+16,203479622321322.56,236612006485328.94,18500408876937.47,38260332148552.69,617063868294516.2,1.427726521451179e+16
3.0421862473761276,2050045052215451.5,1.832106252112847e+16,203934010714500.2,237140382502107.75,19586604260390.098,40513259093125.91,653406614615819.4,1.5116436597727098e+16
3.2030299723236504,2054265438449115.8,1.9222584290894844e+16,204353845536607.97,237628578623287.72,20694331700443.37,42811600634032.35,690482807092859.0,1.5972347688858504e+16
3.3670905717701234,2058178104329331.2,2.0141594722828464e+16,204743069008808.56,238081178978065.94,21823980994551.816,45156210812103.7,728306273950313.4,1.684530590475533e+16
3.5344323832055258,2061817060578161.0,2.107846749265537e+16,205105064443579.84,238502117780400.97,22975953727677.4,47547970174476.94,766891273352759.4,1.7735628052598294e+16
3.7051210308696363,2065211657053137.2,2.2033579995030836e+16,205442751500761.88,238894790095504.66,24150662665571.445,49987784614558.51,806252474804064.6,1.8643639874297228e+16
3.879223451487029,2068387351861258.8,2.3007313927752056e+16,205758662697333.2,239262140807635.38,25348531302902.754,52476584534911.875,846404945758433.2,1.95696757107896e+16
4.0568079205167695,2071366333798030.0,2.400005579510964e+16,206055005326295.62,239606736621171.0,26569993531258.113,55015324261106.734,887364142282834.4,2.0514078259289004e+16
4.237944078927105,2074168029646517.2,2.5012197347552156e+16,206333711921674.25,239930824742776.28,27815493400796.83,57604981652619.0,929145902901726.9,2.147719840328605e+16
4.422702960505647,2076809520369084.8,2.604413597087065e+16,206596481660366.53,240236381024673.22,29085484955722.65,60246557870036.72,971766444967160.8,2.245939510002361e+16
4.61115701971576,2079305884669569.0,2.709627503515752e+16,206844814538955.62,240525149706435.72,30380432128433.76,62941077267516.35,1015242363053785.2,2.346103531379289e+16
4.803380160110075,2081670484250428.0,2.81690242115654e+16,207080039750472.1,240798676412305.9,31700808680704.332,65689587386642.27,1059590628994294.8,2.448249398609053e+16
4.9994477633122765,2083915201956150.0,2.926279976319916e+16,207303339374379.06,241058335698601.75,33047098182868.035,68493159033242.49,1104828593258180.6,2.552415403569576e+16
5.199436718578522,2086050641610292.2,3.037802481517781e+16,207515768255927.22,241305354170003.28,34419794023953.527,71352886422804.02,1150973987442416.0,2.658640638325246e+16
5.403425452950093,2088086296525161.2,3.151512960789728e+16,207718270769128.12,241540829972028.8,35819399447229.445,74269887383243.1,1198044927693037.5,2.766964999610742e+16
5.611493962009095,2090030692250187.5,3.2674551736745224e+16,207911695017052.44,241765749303550.72,37246427606772.875,77245303606180.33,1246059918915143.0,2.8774291950046344e+16
5.823723841249277,2091891508025629.2,3.3856736380905124e+16,208096804913780.34,241981000466040.22,38701401641570.47,80280300939721.23,1295037859658625.0,2.9900747505259784e+16
6.040198318074262,2093675680546652.8,3.5062136523401636e+16,208274290506623.78,242187385866545.34,40184854764354.72,83376069717179.27,1344998047590316.0,3.1049440194409956e+16
6.261002284435747,2095389492963518.8,3.629121316415563e+16,208444776829672.9,242385632312853.2,41697330362923.36,86533825117315.11,1395960185481347.2,3.2220801921088092e+16
6.486222330124463,2097038651504832.5,3.75444355275079e+16,208608831526110.4,242576399876936.56,43239382112116.56,89754807552547.78,1447944387652858.2,3.341527306728248e+16
6.715946776726952,2098628351680805.2,3.8822281265421416e+16,208766971433964.53,242760289553060.78,44811574094966.03,93040283082305.02,1500971186834734.0,3.4633302608741612e+16
6.950265712261491,2100163335678635.2,4.012523665737613e+16,208919668295680.72,242937849897037.53,46414480931797.78,96391543849242.9,1555061541400985.8,3.587534823732271e+16
7.18927102650672,2101647942283990.8,4.145379680779908e+16,209067353724197.6,243109582800923.38,48048687916286.64,99809908536510.88,1610236842952784.8,3.714187648958443e+16
7.433056447036854,2103086150437191.0,4.280846584174806e+16,209210423535824.1,243275948531414.34,49714791157631.14,103296722844612.39,1666518924225985.2,3.84333628810154e+16
7.681717575977592,2104481617349210.2,4.4189757099448744e+16,209349241541935.7,243437370138941.0,51413397728157.6,106853359986696.33,1723930067304823.8,3.975029204539903e+16
7.935351927497144,2105837711952542.2,4.559819333020295e+16,209484142876591.7,243594237327118.38,53145125815773.52,110481221201363.03,1782493012127262.5,4.109315787890235e+16
8.194058966047088,2107157544338579.2,4.703430688610155e+16,209615436924904.1,243746909857936.38,54910604880779.69,114181736282261.89,1842230965270785.5,4.246246368854627e+16
8.45794014536803,2108443991731582.0,4.849863991592171e+16,209743409906870.1,243895720556318.72,56710475816627.12,117956364123918.66,1903167609009927.8,4.385872234477647e+16
8.72709894827539,2109699721465032.0,4.9991744559528696e+16,209868327163010.0,244040977967925.62,58545391114261.67,121806593283370.14,1965327110639109.8,4.5282456437896e+16
9.0016409272409,2110927211356145.0,5.1514183143062056e+16,209990435181177.2,244182968715991.1,60416015029749.3,125733942557288.9,2028734132056175.5,4.673419843816555e+16
9.281673745785717,2112128767815869.0,5.306652837514686e+16,210109963398106.7,244321959596210.34,62323023754915.86,129739961574381.12,2093413839603434.8,4.8214490859403976e+16
9.567307220701432,2113306541982909.5,5.4649363544341e+16,210227125804385.5,244458199443052.62,64267105590763.87,133826231402911.0,2159391914164446.0,4.972388642595255e+16
9.85865336511546,2114462544129046.8,5.626328271799948e+16,210342122377469.38,244591920796108.9,66248961123460.28,137994365173282.67,2226694561515764.0,5.126294824288428e+16
10.155826432417769,2115598656548568.8,5.790889094271577e+16,210455140363889.47,244723341391081.7,68269303402705.43,142246008715654.75,2295348522933894.0,5.2832249969360056e+16
10.458942961066125,2116716645115162.5,5.958680444648023e+16,210566355428911.84,244852665496643.6,70328858122313.85,146582841212621.94,2365381086058335.0,5.44323759950463e+16
10.768121820287448,2117818169664970.8,6.129765084267655e+16,210675932689416.28,244980085115496.34,72428363802849.48,151006575867031.8,2436820096012558.5,5.606392161952419e+16
11.083484256693197,2118904793343252.0,6.304206933602307e+16,210784027643685.53,245105781065556.38,74568571976169.8,155518960585050.84,2509693966785052.0,5.7727493234624344e+16
11.405153941827061,2119977991034087.0,6.482071093055368e+16,210890787009972.75,245229923955069.9,76750247371740.7,160121778674609.94,2584031692873452.0,5.942370850963465e+16
11.733257020663602,2121039156977299.2,6.663423863971899e+16,210996349484216.62,245352675063700.1,78974168104591.05,164816849559406.5,2659862861194838.5,6.115319657933493e+16
12.067922161076874,2122089611663348.5,6.848332769868082e+16,211100846425928.03,245474187140100.56,81241125864778.42,169606029508652.03,2737217663266125.0,6.291659823481182e+16
12.409280604298411,2123130608085713.2,7.036866577885941e+16,211204402480168.44,245594605125165.94,83551926108246.03,174491212382777.6,2816126907658585.0,6.471456611701883e+16
12.75746621638438,2124163337420536.2,7.22909532047912e+16,211307136142541.6,245714066809026.62,85907388248943.83,179474330395339.72,2896622032730936.0,6.654776491304397e+16
13.112615540712067,2125188934194681.2,7.425090317333992e+16,211409160273308.22,245832703428868.72,88308345852095.23,184557354891370.28,2978735119645828.5,6.841687155505377e+16
13.474867851526309,2126208480996257.0,7.624924197530168e+16,211510582565972.38,245950640213825.62,90755646828487.06,189742297142450.47,3062498905674834.5,7.0322575421879944e+16
13.844365208556836,2127223012775091.2,7.828670921943782e+16,211611505975085.94,246067996882439.34,93250153629659.92,195031209158786.7,3147946797797245.0,7.226557854321954e+16
14.221252512727972,2128233520775251.5,8.036405805896013e+16,211712029107449.0,246184888097558.97,95792743443871.34,200426184518597.75,3235112886598366.5,7.4246595806419e+16
14.605677562982532,2129240956136908.8,8.248205542049133e+16,211812246580411.34,246301423882985.88,98384308392707.78,205929359215114.75,3324031960473177.5,7.626635516581026e+16
14.997791114242183,2130246233200505.0,8.464148223551744e+16,211912249350566.3,246417710005687.84,101025755728211.77,211542912521538.3,3414739520141500.0,7.832559785456957e+16
15.397746936527026,2131250232542641.8,8.684313367433848e+16,212012125015755.22,246533848326975.88,103718008030388.72,217269067874274.4,3507271793480992.0,8.042507859906723e+16
15.805701875257567,2132253803769818.5,8.908781938252901e+16,212111958092980.53,246649937125674.84,106462003404956.2,223110093774814.78,3601665750684629.5,8.25655658356761e+16
16.221815912762718,2133257768093380.0,9.137636371990592e+16,212211830274555.1,246766071395977.56,109258695681188.86,229068304710618.94,3697959119749457.5,8.474784193000093e+16
16.64625223101797,2134262920706383.2,9.370960600200054e+16,212311820664551.78,246882343122394.78,112109054609710.9,235146062095372.1,3796190402303599.5,8.697270339849867e+16
17.079177275638333,2135270032981149.0,9.60884007440258e+16,212412005997406.0,246998841533956.44,115014066060081.03,241345775229007.5,3896398889778911.0,8.92409611324453e+16
17.5207608211511,2136279854504074.8,9.85136179073278e+16,212512460840338.97,247115653339591.66,117974732218004.16,247669902277886.28,3998624679936567.0,9.155344062421128e+16
17.97117603757412,2137293114962779.8,1.0098614314830285e+17,212613257781083.72,247232862946422.34,120992071782008.16,254120951275547.5,4102908693753444.5,9.391098219580163e+16
18.430599558325603,2138310525898935.5,1.0350687806975634e+17,212714467602254.72,247350552662527.34,124067120159403.61,260701481144438.56,4209292692677074.5,9.631444122961173e+16
18.899211549492115,2139332782339010.8,1.0607674047468064e+17,212816159443569.62,247468802885576.7,127200929661350.69,267414102739061.53,4317819296257354.0,9.87646884013549e+16
19.37719578048196,2140360564313738.5,1.0869666462241526e+17,212918400953003.06,247587692278598.4,130394569696834.6,274261479910972.06,4428532000163335.0,1.0126260991509862e+17
19.864739696091597,2141394538276243.2,1.1136760148715758e+17,213021258427857.6,247707297934021.03,133649126965360.42,281246330596078.62,4541475194593606.0,1.038091077403645e+17
20.36203449001343,2142435358427656.5,1.1409051901878173e+17,213124796946636.56,247827695527015.25,136965705648153.25,288371427924702.3,4656694183089149.0,1.064050998512184e+17
20.869275179813698,2143483667958338.8,1.168664024059167e+17,213229080492514.38,247948959459073.5,140345427597652.66,295639601354875.7,4774235201757520.0,1.0905152046729678e+17
21.38666068340997,2144540100211977.8,1.1969625434123726e+17,213334172069139.47,248071162992667.1,143789432525074.16,303053737829345.3,4894145438917665.0,1.1174932029669144e+17
21.91439389707817,2145605279779177.8,1.2258109528890646e+17,213440133809423.44,248194378377747.28,147298878185807.5,310616782956791.4,5016473055174976.0,1.144994667806226e+17
22.452681775019734,2146679823526575.5,1.255219637541114e+17,213547027077914.34,248318676970792.38,150874940562400.6,318331742217746.6,5141267203935963.0,1.173029443398201e+17
23.00173541052013,2147764341566951.0,1.2851991655462384e+17,213654912567301.03,248444129347021.1,154518814044889.62,326201682195745.6,5268578052372609.0,1.2016075462252917e+17
23.561770118730532,2148859438175317.5,1.3157602909431022e+17,213763850389544.2,248570805406365.28,158231711608191.88,334229731834213.3,5398456802846894.0,1.2307391675404947e+17
24.133005521105144,2149965712655526.5,1.3469139563851605e+17,213873900162083.75,248698774473714.66,162014864986305.94,342419083719642.1,5530955714805207.0,1.2604346758771358e+17
24.715665631527248,2151083760161547.0,1.3786712959123714e+17,213985121089539.22,248828105393917.4,165869524843020.53,350772995391596.9,5666128127154047.0,1.2907046195720322e+17
25.309978944157795,2152214172477223.0,1.4110436377398472e+17,214097572041276.84,248958866621981.78,169796960938839.56,359294790680101.75,5804028481127449.0,1.3215597293009792e+17
25.91617852304095,2153357538757957.5,1.4440425070625194e+17,214211311625190.84,249091126308865.56,173798462293816.6,367987861070992.44,5944712343657440.0,1.3530109206253787e+17
26.53450209350177,2154514446237507.8,1.4776796288746998e+17,214326398258015.38,249224952383244.3,177875337345975.8,376855667099793.4,6088236431259039.0,1.3850692965488651e+17
27.165192135371807,2155685480902866.0,1.5119669308034765e+17,214442890232457.44,249360412629567.25,182028914104984.62,385901739774736.7,6234658634441417.0,1.4177461500826165e+17
27.808495978079243,2156871228139790.0,1.5469165459547424e+17,214560845781416.53,249497574762739.06,186260540300738.56,395129682029500.9,6384038042657232.0,1.4510529668180272e+17
28.464665897640828,2158072273351585.0,1.5825408157705648e+17,214680323139536.97,249636506499693.88,190571583526493.75,404543170206306.44,6536434969802211.0,1.4850014275053053e+17
29.133959215593645,2159289202553328.0,1.6188522928966173e+17,214801380602319.78,249777275628131.75,194963431376181.88,414145955569980.3,6691910980277877.0,1.5196034106365373e+17
29.816638399905518,2160522602943615.8,1.6558637440581795e+17,214924076583001.34,249919950072657.06,199437491575516.28,423941865853638.2,6850528915629916.0,1.554870995031595e+17
30.51297116790363,2161773063455848.8,1.6935881529432586e+17,215048469667391.3,250064597958549.84,203995192106492.88,433934806836627.06,7012352921775248.0,1.5908164624252586e+17
31.223230591261704,2163041175290744.2,1.7320387230912486e+17,215174618666849.3,250211287673363.7,208637981324877.22,444128763955398.5,7177448476831613.0,1.6274523000538198e+17
31.947695203086937,2164327532431820.5,1.771228880785376e+17,215302582669557.97,250360087926552.3,213367328070246.97,454527803947981.2,7345882419562772.0,1.6647912032392877e+17
32.686649107148675,2165632732145290.0,1.8111722779472982e+17,215432421090259.12,250511067807300.56,218184721768144.66,465136076532744.4,7517722978453798.0,1.7028460779693245e+17
33.44038208929165,2166957375465896.0,1.851882795031841e+17,215564193718577.44,250664296840717.4,223091672523891.94,475957816122144.44,7693039801430631.0,1.7416300434708182e+17
34.20918973107749,2168302067669896.2,1.8933745439200435e+17,215697960766075.12,250819845042554.25,228089711207588.16,486997343572182.0,7871903986238274.0,1.7811564347750765e+17
34.993373525699035,2169667418736519.0,1.9356618708083862e+17,215833782912155.78,250977782972580.72,233180389529810.06,498259067968264.9,8054388111492944.0,1.821438805272267e+17
35.793240996213015,2171054043798980.0,1.978759359092085e+17,215971721348929.84,251138181786759.2,238365280107506.12,509747488448239.8,8240566268423124.0,1.8624909292529482e+17
36.60910581613728,2172462563586168.0,2.0226818322400835e+17,216111837825152.8,251301113288331.8,243645976519569.5,521467196063326.1,8430514093315277.0,1.9043268044341005e+17
37.44128793246003,2173893604855945.2,2.067444356659516e+17,216254194689330.53,251466649977948.6,249024093351558.34,533422875677709.25,8624308800679996.0,1.9469606544671904e+17
38.29011369110923,2175347800821046.2,2.113062244547043e+17,216398854932084.75,251634865102933.56,254501266229007.34,545619307907576.9,8822029217154901.0,1.9904069314255664e+17
39.15591596493141,2176825791568455.2,2.1595510567244515e+17,216545882227871.7,251805832705789.47,260079151838770.7,558061371100362.06,9023755816160858.0,2.0346803182684307e+17
40.03903428423004,2178328224473021.8,2.2069266054558426e+17,216695340976130.53,251979627672051.97,265759427937805.66,570754043355009.8,9229570753328414.0,2.079795731278419e+17
40.93981496991464,2179855754606162.5,2.2552049572434976e+17,216847296341936.2,252156325777559.8,271543793348808.9,583702404584054.4,9439557902711504.0,2.125768322469799e+17
41.85861126931294,2181409045140314.2,2.304402435599494e+17,217001814296236.62,252336003735244.78,277433967942077.4,596911638618334.2,9653802893806458.0,2.1726134819641078e+17
42.7957834946992,2182988767749889.5,2.35453562378989e+17,217158961655737.56,252518739241508.25,283431692602969.3,610387035355172.2,9872393149393846.0,2.220346840329897e+17
