t(s),Total solute volume 1,Total retention volume 1,Total 1 volume 1,Total 2 volume 1,Total 3 volume 1,Total 4 volume 1,Total 5 volume 1,Total 6 volume 1
0.1,1012905215437994.5,1251976985692815.0,109237715628389.53,129834054626431.92,0.0,0.0,0.0,0.0
0.202,1451303335164402.2,1954908189095018.5,156517173806355.8,186027869685332.62,177737607536.1913,379050855271.39453,6428234252648.274,154074787723472.34
0.30604000000000003,1739806388152365.8,2540469608435509.0,187631057152222.84,223008153460873.7,430371843946.0413,917861792114.9723,15565989697823.762,373109786336161.4
0.41216080000000005,1952538432078194.2,3076532075004644.0,210573344692771.97,250276119147967.25,731710291737.0721,1560587425855.2751,26466133971866.91,634385747396250.8
0.5204040160000001,2118523167800919.0,3587529092058652.0,228474124780919.25,271552020994561.47,1069129943184.9823,2280316917545.2837,38672285794238.16,926958045827284.2
0.6308120963200001,2252648696772321.5,4085191145538296.5,242939018731736.28,288744213899149.9,1435268961733.3955,3061357762524.4736,51918319553262.94,1244444269857569.0
0.7434283382464002,2363709304977780.0,4576116508355775.0,254916454593910.03,302979948283805.94,1825413378019.2937,3893663454268.902,66033860914497.21,1582757862753502.2
0.8582969050113283,2457371291598482.5,5064418832870983.0,265017519735091.78,314985529631733.56,2236373662008.163,4770438063305.292,80903662418602.12,1939134017761757.0
0.9754628431115548,2537507916313048.0,5552859734991682.0,273659929490356.44,325257431858604.8,2665913792105.4824,5686918899157.781,96446958585509.78,2311634666052901.5
1.094972099973786,2606883251416628.0,6043402093987415.0,281141777837622.56,334149953387507.06,3112429108837.205,6639689643521.592,112605817350837.84,2698869175242467.5
1.2168715419732616,2667535832268180.5,6537507254910344.0,287682912541182.3,341924393412771.06,3574751012046.602,7626263941937.068,129338078217344.84,3099825023516896.0
1.3412089728127268,2721008890648818.5,7036306502727627.0,293449764884887.8,348778563181467.25,4052022164382.386,8644819328907.861,146612839908943.47,3513759602610226.5
1.4680331522689813,2768495887335155.5,7540705695836907.0,298571044769465.06,354865440339436.1,4543613460741.276,9694020205662.07,164407458265136.78,3940128231461307.0
1.597393815314361,2810936383651379.5,8051452064476908.0,303148080070264.44,360305457734165.94,5049066979943.325,10772896216515.521,182705483637993.25,4378534696186650.0
1.729341691620648,2849081360638568.0,8569178476155442.0,307261861044530.44,365194876017284.9,5568055741895.493,11880756457372.744,201495205965117.25,4828696360290657.0
1.863928525453061,2883538986475849.0,9094433704910140.0,310977976162017.6,369611650106567.25,6100354686638.135,13017127611216.416,220768605619998.0,5290419004247865.0
2.001207095962122,2914807453863280.0,9627703693452158.0,314350153483430.6,373619638277325.25,6645819349219.899,14181708492521.744,240520582541479.8,5763578337444883.0
2.1412312378813647,2943299024920962.0,1.0169426840678246e+16,317422853805210.25,377271684234413.6,7204369933474.489,15374336103246.83,260748380588535.62,6248106191092410.0
2.284055862638992,2969357952344024.5,1.0720005220915672e+16,320233203383346.6,380611914243510.9,7775979248445.706,16594959924924.787,281451151571818.0,6743980060199619.0
2.4297369798917723,2993274045858204.0,1.1279812968858256e+16,322812457020554.8,383677476077608.94,8360663456322.073,17843622205722.945,302629620954692.94,7251215083285143.0
2.578331719489608,3015293084865973.5,1.1849202649632826e+16,325187121027893.06,386499873708621.25,8958474898234.676,19120442678270.4,324285828696596.9,7769857823757235.0
2.7298983538794,3035624909713166.0,1.2428510170620536e+16,327379825835027.0,389106004444880.9,9569496476804.695,20425606597205.27,346422926396473.8,8299981401157011.0
2.884496320956988,3054449779391520.0,1.3018058620837556e+16,329410011642644.3,391518973860611.06,10193837219458.754,21759355294830.816,369045017141808.5,8841681646286681.0
3.0421862473761276,3071923417687810.5,1.3618161310163312e+16,331294472629155.7,393758742610663.2,10831628747407.379,23121978668353.445,392157028116356.44,9395074041703548.0
3.2030299723236504,3088181055297949.5,1.4229124203751966e+16,333047792876300.0,395842644548171.75,11483022446419.012,24513809164060.86,415764608595480.4,9960291270823580.0
3.3670905717701234,3103340695032894.5,1.4851247893848316e+16,334682698508339.2,397785805258216.3,12148187186557.135,25935216932613.184,439874047803420.6,1.0537481243126254e+16
3.5344323832055258,3117505769935698.0,1.5484829213966758e+16,336210344359202.6,399601482774922.9,12827307475088.26,27386605908593.664,464492208446102.4,1.1126805495067162e+16
3.7051210308696363,3130767322711988.0,1.613016257385652e+16,337640549015214.44,401301346940575.1,13520581953975.27,28868410625473.082,489626472716874.7,1.1728437889892408e+16
3.879223451487029,3143205804564093.0,1.678754107451998e+16,338981988812052.0,402895709979936.5,14228222173572.355,30381093620217.77,515284698303067.6,1.2342563557067036e+16
4.0568079205167695,3154892569077302.0,1.74572574485475e+16,340242358944319.7,404393717986398.9,14950451589292.588,31925143314081.664,541475182469231.56,1.2969378025166854e+16
4.237944078927105,3165891120014027.5,1.813960486067539e+16,341428508035081.4,405803510864072.1,15687504739493.848,33501072280589.0,568206632707840.5,1.3609086512034376e+16
4.422702960505647,3176258159181635.5,1.883487759573226e+16,342546551144154.5,407132356643349.3,16439626571591.303,35109415830399.316,595488142765135.4,1.4261903343595998e+16
4.61115701971576,3186044470861957.0,1.9543371655291388e+16,343601965150243.25,408386764846966.7,17207071890153.936,36750730857137.23,623329173093814.4,1.4928051478591142e+16
4.803380160110075,3195295671847117.0,2.026538527989617e+16,344599669639257.7,409572582629495.3,17990104905976.934,38425594899430.32,651739534973584.8,1.5607762121001314e+16
4.9994477633122765,3204052850355526.0,2.1001219410294884e+16,345544095808813.75,410695076673512.06,18788998869214.332,40134605383125.41,680729377688590.2,1.63012744055161e+16
5.199436718578522,3212353112594495.0,2.1751178098473188e+16,346439245412787.6,411759003247923.7,19604035772871.863,41878379014513.46,710309178267035.1,1.7008835144163526e+16
5.403425452950093,3220230052190661.0,2.2515568877194976e+16,347288741387488.44,412768668379503.2,20435506115510.332,43657551300827.34,740489733380553.1,1.7730698624440438e+16
5.611493962009095,3227714154902763.0,2.3294703095135356e+16,348095871498282.1,413727979728911.0,21283708714036.07,45472776178604.38,771282153074176.9,1.8467126451038564e+16
5.823723841249277,3234833148794905.5,2.4088896223395932e+16,348863626104361.2,414640491475865.56,22148950559081.367,47324725733969.484,802697856056596.8,1.9218387424671132e+16
6.040198318074262,3241612308256824.0,2.4898468138165696e+16,349594730946094.06,415509443288422.56,23031546706784.195,49214090001686.15,834748566327680.0,1.9984757452638224e+16
6.261002284435747,3248074718813867.5,2.5723743383464572e+16,350291675703709.06,416337794266277.9,23931820201837.043,51141576832080.664,867446310958547.4,2.0766519486688292e+16
6.486222330124463,3254241508499622.0,2.656505141724202e+16,350956738949891.25,417128252598085.44,24850102027532.9,53107911816782.266,900803418870632.0,2.1563963484479476e+16
6.715946776726952,3260132050612420.0,2.742272684356358e+16,351592010016249.7,417883301550763.9,25786731079241.008,55113838265719.87,934832520485672.5,2.2377386391553516e+16
6.950265712261491,3265764141897907.0,2.8297109633179692e+16,352199408209583.94,418605222308903.94,26742054158322.043,57160117229054.38,969546548139347.8,2.3207092141236576e+16
7.18927102650672,3271154159560118.5,2.918854533440969e+16,352780699744890.44,419296114100438.25,27716425983965.83,59247527558731.42,1004958737168631.8,2.4053391670292932e+16
7.433056447036854,3276317199975653.0,3.009738527597946e+16,353337512705127.44,419957911977002.1,28710209220829.6,61376866005187.7,1041082627597099.5,2.491660294849864e+16
7.681717575977592,3281267201547837.5,3.1023986763206384e+16,353871350290531.9,420592402561363.4,29723774520680.176,63548947345437.32,1077932066354256.4,2.5797051020586292e+16
7.935351927497144,3286017053773967.5,3.1968713268720496e+16,354383602581084.4,421201238027652.5,30757500576514.934,65764604539348.59,1115521209974903.5,2.669506805924703e+16
8.194058966047088,3290578694294950.0,3.2931934618745388e+16,354875557002913.94,421785948541164.56,31811774187865.777,68024688911407.35,1153864527732761.5,2.7610993428074308e+16
8.45794014536803,3294963195441761.0,3.3914027175816656e+16,355348407661987.9,422347953351884.5,32886990336178.35,70330070355675.01,1192976805169521.0,2.854517375349963e+16
8.72709894827539,3299180841579383.5,3.4915374018700544e+16,355803263685336.3,422888570708409.25,33983552269321.91,72681637561990.69,1232873147986363.8,2.9497963004909708e+16
9.0016409272409,3303241198367830.5,3.593636512017349e+16,356241156690576.0,423409026735831.2,35101871594418.7,75080298261760.42,1273568986269931.8,3.0469722582253148e+16
9.281673745785717,3307153174907359.5,3.697739752323987e+16,356663047488019.1,423910463401491.25,36242368378298.98,77526979491927.64,1315080079028977.8,3.1460821410543772e+16
9.567307220701432,3310925079604839.5,3.8038875516292584e+16,357069832105631.75,424393945675933.06,37405471254982.35,80022627875919.27,1357422519021361.2,3.2471636040753964e+16
9.85865336511546,3314564670487928.0,3.912121080766143e+16,357462347215217.0,424860467982161.94,38591617539670.805,82568209920555.22,1400612737854308.8,3.3502550756661532e+16
10.155826432417769,3318079200599239.5,4.022482269994098e+16,357841375027988.9,425310960014262.06,39801253348811.12,85164712328052.55,1444667511343310.2,3.455395768727938e+16
10.458942961066125,3321475459021868.5,4.1350138264447256e+16,358207647719011.1,425746291996047.0,41034833725841.25,87813142322393.38,1489603965117371.5,3.562625692454478e+16
10.768121820287448,3324759808018224.5,4.2497592516110984e+16,358561851432468.7,426167279441511.2,42292822772289.04,90514527989436.5,1535439580460213.8,3.671985664599676e+16
11.083484256693197,3327938216704577.5,4.3667628589085864e+16,358904629913329.9,426574687471220.7,43575693783939.38,93269918630255.4,1582192200378720.2,3.7835173242203704e+16
11.405153941827061,3331016291631938.0,4.486069791332085e+16,359236587805371.06,426969234732180.94,44883929391817.62,96080385127265.98,1629880035891443.2,3.897263144874086e+16
11.733257020663602,3333999304599558.5,4.6077260392319944e+16,359558293650749.44,427351596962953.5,46218021707776.914,98947020322784.36,1678521672531076.8,4.013266448254502e+16
12.067922161076874,3336892217988519.0,4.7317784582292456e+16,359870282622129.7,427722410240919.3,47578472474500.984,101870939409722.28,1728136077056139.5,4.131571418250057e+16
12.409280604298411,3339699707869517.0,4.858274787287954e+16,360173059014762.5,428082273944231.3,48965793219762.875,104853280334176.94,1778742604367874.0,4.252223115412924e+16
12.75746621638438,3342426185109501.0,4.987263666962525e+16,360467098522750.44,428431753457259.44,50380505414795.35,107895204209731.03,1830361004629333.0,4.375267491828182e+16
13.112615540712067,3345075814676533.0,5.1187946578346184e+16,360752850320996.9,428771382645084.8,51823140636656.51,110997895743316.52,1883011430584358.8,4.500751406373925e+16
13.474867851526309,3347652533319721.0,5.2529182591544136e+16,361030738971922.5,429101666119714.06,53294240734479.64,114162563672534.61,1936714445074787.8,4.628722640365101e+16
13.844365208556836,3350160065781871.5,5.389685927699032e+16,361301166173922.7,429423081318209.3,54794357999519.64,117390441214366.17,1991491028754840.0,4.759229913574757e+16
14.221252512727972,3352601939684939.5,5.529150096860757e+16,361564512366712.3,429736080410710.4,56324055338914.266,120682786525222.17,2047362588002126.5,4.892322900627896e+16
14.605677562982532,3354981499213708.5,5.671364195976184e+16,361821138207050.06,430041092054401.25,57883906453092.77,124040883172330.8,2104350963025300.2,5.028052247763597e+16
14.997791114242183,3357301917709522.0,5.816382669907006e+16,362071385926924.56,430338523007775.5,59474496016769.81,127466040616466.47,2162478436168609.2,5.16646958996239e+16
15.397746936527026,3359566209274378.0,5.964260998882539e+16,362315580585005.8,430628759618050.6,61096419863476.0,130959594706053.44,2221767740414156.2,5.3076275684364344e+16
15.805701875257567,3361777239475315.5,6.1150557186135176e+16,362554031221071.56,430912169193247.3,62750285173576.35,134522908182700.12,2282242068082972.5,5.451579848480629e+16
16.221815912762718,3363937735229698.5,6.2688244406857784e+16,362787031922093.1,431189101269288.56,64436710665740.56,138157371198234.16,2343925079736243.5,5.598381137683648e+16
16.64625223101797,3366050293944017.5,6.425625873242691e+16,363014862807824.06,431459888781416.5,66156326791827.22,141864401843322.53,2406840913278435.5,5.748087204498006e+16
17.079177275638333,3368117391971752.5,6.585519841964164e+16,363237790942936.5,431724849148305.25,67909775935155.914,145645446687787.34,2471014193264267.5,5.900754897169139e+16
17.5207608211511,3370141392448893.0,6.748567311349938e+16,363456071182059.3,431984285276429.8,69697712612137.23,149501981332724.53,2536470040411716.5,6.056442163023541e+16
17.97117603757412,3372124552560660.5,6.914830406314664e+16,363669946953461.25,432238486491509.44,71520803677238.9,153435510974561.28,2603234081323471.0,6.215208068116574e+16
18.430599558325603,3374069030287375.0,7.084372434101651e+16,363879650986560.7,432487729403188.7,73379728531265.97,157447570981193.25,2671332458419562.5,6.377112817240738e+16
18.899211549492115,3375976890673029.5,7.25725790652212e+16,364085405987974.5,432732278708548.0,75275179332937.77,161539727480347.1,2740791840083833.0,6.542217774295451e+16
19.37719578048196,3377850111656043.5,7.433552562526574e+16,364287425270336.3,432972387939486.25,77207861213739.64,165713577960348.06,2811639431027502.5,6.710585483019823e+16
19.864739696091597,3379690589498078.5,7.61332339111435e+16,364485913337771.06,433208300158582.7,79178492496039.56,169970751883440.25,2883902982872785.5,6.88227968808967e+16
20.36203449001343,3381500143843312.5,7.796638654587688e+16,364681066431519.2,433440248607600.1,81187804914445.4,174312911311866.62,2957610804960142.5,7.057365356580791e+16
20.869275179813698,3383280522437829.5,7.983567912155914e+16,364873073038905.6,433668457312412.8,83236543840393.97,178741751546884.97,3032791775382538.0,7.235908699800005e+16
21.38666068340997,3385033405536114.0,8.174182043895586e+16,365062114368558.25,433893141647828.7,85325468509954.86,183259001780919.8,3109475352250469.0,7.417977195486226e+16
21.91439389707817,3386760410019054.5,8.368553275071984e+16,365248364794519.4,434114508865437.0,87455352254828.33,187866425763064.88,3187691585191607.0,7.60363961038313e+16
22.452681775019734,3388463093245974.0,8.566755200827184e+16,365431992271674.0,434332758587359.25,89626982736529.0,192565822478144.72,3267471127088964.0,7.79296602318631e+16
23.00173541052013,3390142956661091.5,8.768862811240005e+16,365613158724688.44,434548083268528.3,91841162183730.88,197359026839562.1,3348845246061726.0,7.98602784786609e+16
23.561770118730532,3391801449173140.5,8.97495251676275e+16,365792020412489.75,434760668629880.25,94098707632759.5,202247910396156.66,3431845837693059.5,8.18289785736901e+16
24.133005521105144,3393439970325190.0,9.1851021740393e+16,365968728270119.25,434970694064672.25,96400451171210.23,207234382053313.6,3516505437509188.5,8.383650207699931e+16
24.715665631527248,3395059873270474.5,9.399391112109526e+16,366143428229663.56,435178333019915.06,98747240184671.94,212320388808570.9,3602857233714314.0,8.58836046238679e+16
25.309978944157795,3396662467568486.0,9.617900159004328e+16,366316261521799.06,435383753354778.0,101139937606531.6,217507916501966.47,3690935080186033.5,8.797105617330344e+16
25.91617852304095,3398249021814594.0,9.840711668735354e+16,366487364959389.75,435587117677657.7,103579422170837.12,222798990581391.34,3780773509735979.0,9.009964126041378e+16
26.53450209350177,3399820766115315.0,1.0067909548684421e+17,366656871204430.44,435788583663450.5,106066588668189.83,228195676883207.16,3872407747640590.0,9.227015925266914e+16
27.165192135371807,3401378894420302.5,1.0299579287395206e+17,366824909019548.56,435988304352474.2,108602348204636.11,233700082428395.25,3965873725447172.0,9.448342461007962e+16
27.808495978079243,3402924566721465.5,1.0535807982772323e+17,366991603505163.0,436186428432343.94,111187628463526.36,239314356234526.94,4061208095060133.5,9.674026714930603e+16
28.464665897640828,3404458911128487.5,1.0776684370690755e+17,367157076323326.5,436383100504017.44,113823373970307.6,245040690143821.34,4158448243112972.0,9.904153231172464e+16
29.133959215593645,3405983025829639.5,1.1022298854019194e+17,367321445909186.94,436578461333129.2,116510546360207.42,250881319667589.0,4257632305631164.0,1.0138808143546114e+17
29.816638399905518,3407497980945755.5,1.1272743532060605e+17,367484827670936.0,436772648087631.6,119250124648771.53,256838524847357.1,4358799182991730.5,1.037807920314137e+17
30.51297116790363,3409004820284920.0,1.152811223041296e+17,367647334179037.4,436965794562712.6,122043105505205.53,262914631132974.7,4461988555184829.5,1.0622055806327986e+17
31.223230591261704,3410504563004693.5,1.1788500531253365e+17,367809075345499.3,437158031393860.3,124890503528476.3,269112010278005.94,4567240897383506.0,1.0870829023159968e+17
31.947695203086937,3411998205188197.0,1.2054005804047688e+17,367970158593846.75,437349486258883.6,127793351526114.81,275433081252724.6,4674597495827165.0,1.112449162618301e+17
32.686649107148675,3413486721340007.0,1.232472723668864e+17,368130689020440.6,437540284069654.2,130752700795665.88,281880311175036.06,4784100464025132.0,1.1383138119646037e+17
33.44038208929165,3414971065807183.5,1.2600765867064208e+17,368290769547740.75,437730547154257.7,133769621408722.67,288456216259642.4,4895792759286103.0,1.1646864769117848e+17
34.20918973107749,3416452174130646.0,1.288222461505861e+17,368450501070038.1,437920395430211.0,136845202497479.0,295163362785790.1,5009718199580151.0,1.191576963150919e+17
34.993373525699035,3417930964331423.5,1.3169208314987381e+17,368609982592176.94,438109946569334.06,139980552543726.53,302004368083944.4,5125921480739401.0,1.2189952585501373e+17
35.793240996213015,3419408338136278.5,1.3461823748468048e+17,368769311361726.8,438299316154847.3,143176799670222.72,308981901541715.0,5244448194004184.0,1.2469515362381152e+17
36.60910581613728,3420885182146635.0,1.3760179677727786e+17,368928582995054.6,438488617831208.44,146435091934344.7,316098685629410.7,5365344843921019.0,1.2754561577282022e+17
37.44128793246003,3422362368954620.5,1.4064386879348731e+17,369087891597682.7,438677963447166.94,149756597623941.22,323357496945559.8,5488658866599710.0,1.3045196760831862e+17
38.29011369110923,3423840758209812.5,1.4374558178451602e+17,369247329879325.9,438867463192494.6,153142505555293.03,330761167282764.4,5614438648336065.0,1.3341528391206037e+17
39.15591596493141,3425321197639748.5,1.4690808483318122e+17,369406989263962.7,439057225728800.25,156594025373074.84,338312584714272.2,5742733544607600.0,1.364366592658536e+17
40.03903428423004,3426804524027524.0,1.5013254820451942e+17,369566959995251.4,439247358314834.3,160112387852216.0,346014694701614.3,5873593899449384.0,1.3951720838017877e+17
40.93981496991464,3428291564149034.5,1.5342016370077978e+17,369727331237617.9,439437966926625.4,163698845201548.5,353870501223722.2,6007071065217333.0,1.426580664268239e+17
41.85861126931294,3429783135672738.5,1.5677214502079018e+17,369888191173287.75,439629156372810.94,167354671369117.03,361883067927886.44,6143217422746601.0,1.4586038937552797e+17
42.7957834946992,3431280048024335.5,1.6018972812369008e+17,370049627095539.1,439821030405477.7,171081162349024.78,370055519302971.4,6282086401912555.0,1.491253543346e+17
43.751699164593184,3432783103218660.5,1.636741715970069e+17,370211725498415.4,440013691826780.75,174879636489685.6,378391041875269.75,6423732502602307.0,1.5245415989549565e+17
