t(s),Total solute volume 1,Total retention volume 1,Total 1 volume 1,Total 2 volume 1,Total 3 volume 1,Total 4 volume 1,Total 5 volume 1,Total 6 volume 1
0.1,1198922522623410.5,1797285705327306.5,247551059597552.8,350812123106343.5,0.0,0.0,0.0,0.0
0.202,1749361950610981.0,2765933778010802.5,361204666453004.1,511874123306031.3,62800230553.64912,175537813988.044,4462845591624.736,138791854004619.39
0.30604000000000003,2132012796616590.2,3549635204698459.0,440213628867470.06,623840132077304.8,154602050029.9283,432142831733.9271,10987683527109.209,341994218728220.6
0.41216080000000005,2428107938389607.5,4250238243907543.5,501350746818396.1,710479405056041.8,266754989341.11917,745635691231.4706,18959295224121.777,590328467738802.5
0.5204040160000001,2669303547197371.5,4905278661314258.0,551152321776143.56,781054734832078.4,394932741194.0799,1103924053962.3782,28070145606132.76,874199055107371.6
0.6308120963200001,2871895623787102.0,5533119367583506.0,592983118576753.5,840334432217783.6,536487662317.29803,1499607713235.1396,38132043915642.984,1187738053710664.5
0.7434283382464002,3045618740920477.0,6144259405358276.0,628853111841089.4,891166893453135.0,689632605327.8582,1927691672632.3965,49017967269035.67,1526985367596570.2
0.8582969050113283,3196850267245743.5,6745334293293779.0,660079087565745.1,935418176052117.2,853090817192.5953,2384607560750.4307,60637172028804.63,1889111892023431.8
0.9754628431115548,3330038441463632.5,7340846101588824.0,687579508951787.6,974389862165562.6,1025916716408.5381,2867712679938.3486,72922454065488.58,2272022205546002.0
1.094972099973786,3448429508487303.5,7934017944281130.0,712024653988636.8,1009031823126852.2,1207393064939.8574,3375002589698.4526,85822839756237.27,2674126723267456.0
1.2168715419732616,3554474793018402.5,8527258039712607.0,733920667171325.4,1040061331700195.8,1396967138370.5886,3904932695453.0576,99299049097703.92,3094200298891162.0
1.3412089728127268,3650075377556735.5,9122430414559108.0,753660080114065.6,1068034656379953.5,1594208761822.8691,4456300954946.028,113320513042202.03,3531289277749383.5
1.4680331522689813,3736737517975785.0,9721021901197012.0,771553901439431.5,1093392536949131.9,1798781491504.294,5028167328287.714,127863325203131.66,3984647670809747.5
1.597393815314361,3815675809545755.5,1.0324249904780916e+16,787852918287133.8,1116490371495527.8,2010422136096.9119,5619796538837.608,142908786331911.1,4453691800445657.0
1.729341691620648,3887884176484294.0,1.0933134576489604e+16,802762354090776.5,1137618988393054.0,2228925799587.0,6230616267143.646,158442341238286.56,4937967174216467.0
1.863928525453061,3954186200832856.0,1.1548548677837358e+16,816452260380962.4,1157019372841997.8,2454134708171.739,6860185921800.785,174452784666906.6,5437123738484674.0
2.001207095962122,4015271712682617.5,1.2171252958625352e+16,829065071860064.4,1174893373395263.2,2685929705676.8945,7508172869096.042,190931656839887.34,5950897041272739.0
2.1412312378813647,4071723969372503.5,1.28019218395276e+16,840721218307241.1,1191411654759646.8,2924223676447.5317,8174334050159.185,207872775995700.94,6479093663365917.0
2.284055862638992,4124040221676391.5,1.3441162434181522e+16,851523371042570.2,1206719715589290.2,3168956389159.33,8858501569752.645,225271871921167.56,7021579795993204.0
2.4297369798917723,4172647529260597.5,1.4089528890230778e+16,861559708470254.4,1220942516186297.5,3420090406709.627,9560571264885.625,243126295256369.0,7578272179385675.0
2.578331719489608,4217915096623240.0,1.4747533373840532e+16,870906463178058.0,1234188088072791.2,3677607808314.79,10280493543652.652,261434784528576.97,8149130840085896.0
2.7298983538794,4260164016749623.0,1.5415654604219192e+16,879629933787281.1,1246550385044719.2,3941507538802.4795,11018265977172.664,280197277765641.66,8734153217355968.0
2.884496320956988,4299675054022240.0,1.6094344571202822e+16,887788091952050.0,1258111560499404.5,4211803248069.715,11773927261621.47,299414758949598.06,9333369375269832.0
3.0421862473761276,4336694923864372.0,1.678403388601405e+16,895431878967228.9,1268943804898079.5,4488521517748.752,12547552262581.908,319089131992838.1,9946838072511204.0
3.2030299723236504,4371441405755288.5,1.7485136090470192e+16,902606261493313.2,1279110841865741.5,4771700396725.614,13339247922703.299,339223116667790.0,1.0574643516368626e+16
3.3670905717701234,4404107540863752.0,1.8198051163182816e+16,909351098275185.6,1288669156444658.5,5061388185189.308,14149149864066.725,359820162202769.1,1.1216892667347174e+16
3.5344323832055258,4434865104233294.0,1.892316840004456e+16,915701857071803.5,1297669011077245.2,5357642420287.765,14977419554101.342,380884375208910.94,1.1873712990478912e+16
3.7051210308696363,4463867496784970.5,1.9660868802401884e+16,921690211790996.4,1306155291823966.8,5660529026542.457,15824241932060.002,402420459319201.75,1.2545250571724116e+16
3.879223451487029,4491252169428921.0,2.041152707441892e+16,927344543015041.4,1314168217673343.8,5970121601835.144,16689823414477.016,424433664465226.4,1.3231668534820052e+16
4.0568079205167695,4517142666937576.0,2.1175513307675116e+16,932690360015423.4,1321743938591923.8,6286500815666.019,17574390214482.277,446929744135505.25,1.3933145706964558e+16
4.237944078927105,4541650360618070.0,2.19531944135788e+16,937750658511464.0,1328915042514911.5,6609753900944.594,18478186922598.227,469914919283618.1,1.46498754918272e+16
4.422702960505647,4564875924611565.0,2.2744935351044364e+16,942546225493593.6,1335710987320522.2,6939974224143.225,19401475306619.203,493395847807889.56,1.5382064916280088e+16
4.61115701971576,4586910599698257.0,2.3551100186905876e+16,947095900171200.2,1342158470627100.2,7277260921454.093,20344533296031.15,517379598724253.2,1.6129933823467618e+16
4.803380160110075,4607837279974675.0,2.4372053018888572e+16,951416798347547.9,1348281747761666.8,7621718590823.44,21307654122669.473,541873630312562.8,1.6893714189778602e+16
4.9994477633122765,4627731451099881.0,2.5208158785047904e+16,955524506146910.1,1354102906296525.2,7973457031520.172,22291145594299.316,566885771643456.5,1.7673649547235308e+16
5.199436718578522,4646662003538847.0,2.6059783978973836e+16,959433247931404.5,1359642104009324.2,8332591024332.071,23295329481814.76,592424206994853.4,1.846999449599326e+16
5.403425452950093,4664691940042418.0,2.69272972864366e+16,963156032380003.1,1364917775896068.8,8699240146643.145,24320541003998.246,618497462749728.2,1.9283014294217764e+16
5.611493962009095,4681878993248784.0,2.7811070156288316e+16,966704780009621.4,1369946814885150.2,9073528617591.236,25367128396423.332,645114396433981.4,2.0112984514696824e+16
5.823723841249277,4698276166589809.0,2.8711477316152084e+16,970090434860335.2,1374744730109855.5,9455585169277.662,26435452553245.133,672284187608115.1,2.0960190759261464e+16
6.040198318074262,4713932209495487.0,2.9628897241604576e+16,973323062614638.4,1379325785956154.8,9845542940635.781,27525886732396.547,700016330371656.2,2.182492842349364e+16
6.261002284435747,4728892036106284.0,3.0563712586085976e+16,976411937052297.4,1383703124580529.5,10243539391090.598,28638816316177.02,728320627276484.5,2.2707502505363092e+16
6.486222330124463,4743197095241544.0,3.1516310577575044e+16,979365616440682.0,1387888874165004.0,10649716231576.033,29774638620436.46,757207184476236.9,2.360822745239957e+16
6.715946776726952,4756885698169480.0,3.2487083387098976e+16,982192011212019.9,1391894244824687.2,11064219370839.752,30933762746570.07,786686407964668.2,2.452742704281071e+16
6.950265712261491,4769993309729482.0,3.3476428473346388e+16,984898444073750.6,1395729613791947.2,11487198875267.799,32116609471387.637,816769000777472.2,2.5465434296627052e+16
7.18927102650672,4782552807531677.0,3.448474890700134e+16,987491703527522.1,1399404601259828.2,11918808940717.205,33323611170633.453,847465961050077.2,2.6422591413520924e+16
7.433056447036854,4794594713269212.0,3.5512453677871404e+16,989978091630063.9,1402928138065446.5,12359207875057.51,34555211772531.168,878788580839286.9,2.7399249734419776e+16
7.681717575977592,4806147399601820.0,3.655995798743508e+16,992363466710089.5,1406308526225410.0,12808558090304.717,35811866738235.37,910748445629431.8,2.8395769724439788e+16
7.935351927497144,4817237275584233.0,3.762768352905899e+16,994653281655170.1,1409553493193304.8,13267026103384.924,37094043066503.42,943357434454693.4,2.941252097500176e+16
8.194058966047088,4827888953203307.0,3.871605875782149e+16,996852618297992.5,1412670240589523.2,13734782544695.305,38402219320264.2,976627720578578.8,3.0449882223287156e+16
8.45794014536803,4838125397241898.0,3.982551915161614e+16,998966218359924.1,1415665488052324.2,14212002173742.166,39736885673076.17,1010571772679433.5,3.150824138743581e+16
8.72709894827539,4847968060392426.0,4.095650746498836e+16,1000998511348999.9,1418545512772921.2,14698863901231.69,41098543973733.0,1045202356497729.4,3.258799561610131e+16
9.0016409272409,4857437005292839.0,4.2109473976967304e+16,1002953639757655.9,1421316185203967.8,15195550817070.943,42487707827504.29,1080532536906679.8,3.3689551351161604e+16
9.281673745785717,4866551014943089.0,4.328487673400147e+16,1004835481861288.0,1423983001368074.2,15702250223807.559,43904902692700.0,1116575680372801.1,3.4813324402539724e+16
9.567307220701432,4875327692776351.0,4.448318178896517e+16,1006647672380770.1,1426551112139317.5,16219153675097.576,45350665991414.28,1153345457777359.0,3.5959740034224788e+16
9.85865336511546,4883783553501660.0,4.570486343709206e+16,1008393621239438.5,1429025349824301.5,16746457018844.03,46825547233455.125,1190855847573420.5,3.712923306070098e+16
10.155826432417769,4891934105697954.0,4.6950404449592504e+16,1010076530616940.4,1431410252329717.5,17284360444694.277,48330108152593.69,1229121139256491.0,3.832224795309414e+16
10.458942961066125,4899793927022198.0,4.8220296305623016e+16,1011699410478073.9,1433710085168723.5,17833068535624.625,49864922854380.04,1268155937129594.2,3.953923895443441e+16
10.768121820287448,4907376732792422.0,4.95150394232092e+16,1013265092733646.0,1435928861528721.2,18392790323375.156,51430577974866.45,1307975164346041.8,4.078067020351015e+16
11.083484256693197,4914695438617520.0,5.0835143389656184e+16,1014776244172169.4,1438070360597282.5,18963739347528.695,53027672849671.31,1348594067215482.8,4.204701586685655e+16
11.405153941827061,4921762217669321.0,5.218112719192796e+16,1016235378285262.5,1440138144320238.2,19546133718053.24,54656819692881.99,1390028219760494.5,4.3338760278481704e+16
11.733257020663602,4928588553124374.0,5.3553519447430456e+16,1017644866095731.8,1442135572746548.5,20140196181152.773,56318643785371.14,1432293528512867.8,4.465639808698448e+16
12.067922161076874,4935185286244977.0,5.495285863559187e+16,1019006946085249.8,1444065818097054.2,20746154188289.57,58013783672150.64,1475406237540105.8,4.600043440976405e+16
12.409280604298411,4941562660516971.0,5.63796933305986e+16,1020323733307825.6,1445931877679505.8,21364239968261.445,59742891368442.56,1519382933693908.0,4.737138499406367e+16
12.75746621638438,4947730362216774.0,5.783458243561561e+16,1021597227766000.8,1447736585758691.0,21994690602231.97,61506632574191.54,1564240552073715.5,4.876977638462402e+16
13.112615540712067,4953697557740392.0,5.931809541879017e+16,1022829322118481.0,1449482624479168.2,22637748101626.5,63305686896781.26,1609996381699267.0,5.019614609775443e+16
13.474867851526309,4959472927992224.0,6.083081255131833e+16,1024021808780660.1,1451172533927640.2,23293659488820.125,65140748081756.56,1656668071387085.5,5.16510428016601e+16
13.844365208556836,4965064700100394.0,6.237332514783141e+16,1025176386473130.0,1452808721413035.8,23962676880553.78,67012524251379.93,1704273635826670.2,5.313502650288625e+16
14.221252512727972,4970480676698129.0,6.394623580934102e+16,1026294666267640.0,1454393470034444.0,24645057574025.64,68921738150885.664,1752831461852784.2,5.464866873876312e+16
14.605677562982532,4975728262986284.0,6.555015866896725e+16,1027378177174935.0,1455928946599772.5,25341064135613.57,70869127402314.5,1802360314910980.0,5.619255277575737e+16
14.997791114242183,4980814491771132.0,6.718571964066045e+16,1028428371314464.4,1457417208951947.0,26050964492192.832,72855444765838.02,1852879345714044.0,5.7767273813650904e+16
15.397746936527026,4985746046651512.0,6.8853556671115224e+16,1029446628702061.6,1458860212753651.8,26775032025020.14,74881458408502.39,1904408097087544.8,5.93734391954869e+16
15.805701875257567,4990529283513596.0,7.0554319995064024e+16,1030434261688105.0,1460259817776764.8,27513545666161.582,76947952180338.11,1956966511003201.5,6.101166862323589e+16
16.221815912762718,4995170250475235.0,7.228867239413051e+16,1031392519075605.5,1461617793738272.2,28266789997448.215,79055725897800.61,2010574935799164.0,6.268259437914706e+16
16.64625223101797,4999674706409108.0,7.405728945941274e+16,1032322589944824.9,1462935825720205.2,29035055351948.57,81205595634520.84,2065254133586711.2,6.438686155276524e+16
17.079177275638333,5004048138161493.0,7.586085985796013e+16,1033225607208566.6,1464215519207994.0,29818637917951.145,83398394019361.75,2121025287843238.2,6.6125128273601624e+16
17.5207608211511,5008295776572569.0,7.770008560330594e+16,1034102650920015.8,1465458404778076.2,30617839845455.766,85634970541783.39,2177910011191692.0,6.789806594945631e+16
17.97117603757412,5012422611394510.0,7.957568233020018e+16,1034954751353006.8,1466665942463040.8,31432969355175.426,87916191864538.11,2235930353366959.5,6.970635951040279e+16
18.430599558325603,5016433405195047.0,8.148837957370138e+16,1035782891872789.1,1467839525819899.0,32264340850055.117,90242942143722.58,2295108809369933.5,7.155070765844992e+16
18.899211549492115,5020332706326066.0,8.343892105276406e+16,1036588011613763.6,1468980485724772.2,33112275029316.11,92616123356225.38,2355468327810288.5,7.343182312290384e+16
19.37719578048196,5024124861029934.0,8.542806495846598e+16,1037371007979171.8,1470090093915273.0,33977099005038.125,95036655634619.67,2417032319439207.5,7.535043292146274e+16
19.864739696091597,5027814024749822.0,8.745658424701317e+16,1038132738976429.9,1471169566299981.8,34859146421295.32,97505477609553.44,2479824665873424.5,7.730727862708282e+16
20.36203449001343,5031404172704524.0,8.9525266937659e+16,1038874025400590.0,1472220066052718.5,35758757575862.2,100023546759706.94,2543869728512399.5,7.930311664065331e+16
20.869275179813698,5034899109783173.0,9.163491641566984e+16,1039595652877381.1,1473242706507759.2,36676279544511.28,102591839769381.55,2609192357650316.0,8.13387184695373e+16
21.38666068340997,5038302479810297.0,9.378635174047008e+16,1040298373776253.2,1474238553870898.2,37612066307923.875,105211352893804.38,2675817901784995.0,8.341487101202576e+16
21.91439389707817,5041617774227985.0,9.598040795909712e+16,1040982909003027.6,1475208629759860.5,38566478881238.34,107883102332231.56,2743772217125844.0,8.553237684776707e+16
22.452681775019734,5044848340237189.0,9.821793642509717e+16,1041649949680919.2,1476153913586514.8,39539885446263.16,110608124608937.61,2813081677303314.0,8.769205453423418e+16
23.00173541052013,5047997388437671.0,1.0049980512298733e+17,1042300158728006.9,1477075344792390.8,40532661486382.0,113387476962193.81,2883773183282171.5,8.989473890929867e+16
23.561770118730532,5051068000002123.0,1.0282689899841533e+17,1042934172338532.6,1477973824947832.0,41545189924182.03,116222237741330.83,2955874173481346.5,9.214128139997995e+16
24.133005521105144,5054063133417608.0,1.052001202941431e+17,1043552601374860.9,1478850219724615.5,42577861261834.47,119113506811997.56,3029412634103061.0,9.443255033744909e+16
24.715665631527248,5056985630824660.0,1.0762038889198282e+17,1044156032676364.1,1479705360750789.2,43631073724264.61,122062405969727.16,3104417109674135.5,9.676943127836294e+16
25.309978944157795,5059838223981830.0,1.1008864266081102e+17,1044745030290963.2,1480540047355947.5,44705233405141.15,125070079361925.19,3180916713802482.0,9.91528273326129e+16
25.91617852304095,5062623539881635.0,1.126058378107894e+17,1045320136634706.8,1481355048214494.8,45800754415724.47,128137693918405.69,3258941140151904.5,1.0158365949757245e+17
26.53450209350177,5065344106041558.0,1.1517294925391931e+17,1045881873584243.9,1482151102893814.5,46918059036608.7,131266439790595.22,3338520673638473.5,1.040628669989339e+17
27.165192135371807,5068002355492127.0,1.1779097097106102e+17,1046430743506740.9,1482928923313820.5,48057577872396.41,134457530799540.52,3419686201851822.0,1.0659140763822456e+17
27.808495978079243,5070600631482152.0,1.2046091638554046e+17,1046967230231430.6,1483689195123738.8,49219750009346.44,137712204892852.55,3502469226704785.0,1.0917025814709626e+17
28.464665897640828,5073141191920269.0,1.2318381874347843e+17,1047491799966671.2,1484432579001720.0,50405023176034.23,141031724610721.97,3586901876314991.0,1.1180041454848795e+17
29.133959215593645,5075626213569617.0,1.2596073150096656e+17,1048004902166073.5,1485159711882248.2,51613853907066.17,144417377561154.2,3673016917122046.5,1.1448289252475837e+17
29.816638399905518,5078057796012200.0,1.2879272871822656e+17,1048506970347040.6,1485871208116129.2,52846707709892.84,147870476904564.88,3760847766244097.0,1.1721872779289248e+17
30.51297116790363,5080437965397585.0,1.3168090546087685e+17,1048998422864792.0,1486567660567356.8,54104059234760.98,151392361847889.25,3850428504077603.5,1.2000897648688667e+17
31.223230591261704,5082768677989678.0,1.3462637820844528e+17,1049479663644706.0,1487249641650965.8,55386392447852.76,154984398148357.1,3941793887144308.5,1.2285471554741946e+17
31.947695203086937,5085051823524719.0,1.37630285270256e+17,1049951082875658.0,1487917704315573.0,56694200807654.92,158647978627090.88,4034979361189418.5,1.2575704311891589e+17
32.686649107148675,5087289228392007.0,1.4069378720882515e+17,1050413057666781.8,1488572382974084.0,58027987444605.43,162384523692686.16,4130021074535162.0,1.2871707895411973e+17
33.44038208929165,5089482658648795.0,1.4381806727090422e+17,1050865952669968.9,1489214194385881.2,59388265344064.21,166195481874943.97,4226955891694009.5,1.3173596482628661e+17
34.20918973107749,5091633822879374.0,1.4700433182630086e+17,1051310120670217.9,1489843638493383.5,60775557532655.99,170082330368915.12,4325821407245737.5,1.3481486494911085e+17
34.993373525699035,5093744374908083.0,1.502538108146192e+17,1051745903145795.9,1490461199215918.8,62190397268034.086,174046575589433.44,4426655959982919.0,1.3795496640450902e+17
35.793240996213015,5095815916375137.0,1.535677582000525e+17,1052173630800107.8,1491067345203413.2,63633328232114.18,178089753736308.4,4529498647329194.0,1.4115747957837618e+17
36.60910581613728,5097849999183559.0,1.5694745243437523e+17,1052593624066914.2,1491662530552376.2,65104904727827.71,182213431370360.16,4634389340035036.0,1.444236386044389e+17
37.44128793246003,5099848127824979.0,1.6039419692826506e+17,1053006193590574.0,1492247195486444.2,66605691879447.49,186419206000469.66,4741368697155596.0,1.4775470181632742e+17
38.29011369110923,5101811761591548.0,1.6390932053110515e+17,1053411640682754.9,1492821767003619.0,68136265836533.62,190708706681838.62,4850478181315430.0,1.511519522079929e+17
39.15591596493141,5103742316680805.0,1.6749417801940128e+17,1053810257757027.6,1493386659492133.0,69697213981554.59,195083594625636.56,4961760074264934.0,1.54616697902599e+17
40.03903428423004,5105641168199580.0,1.7115015059396554e+17,1054202328742641.8,1493942275316828.8,71289135141234.84,199545563820233.8,5075257492733438.0,1.581502726300118e+17
40.93981496991464,5107509652073122.0,1.748786463860049e+17,1054588129478715.4,1494489005377775.0,72912639801681.64,204096341664212.12,5191014404584007.0,1.617540362130254e+17
41.85861126931294,5109349066864696.0,1.7868110097226355e+17,1054967928089942.4,1495027229642690.2,74568350327344.67,208737689611345.1,5309075645274965.0,1.6542937506245274e+17
42.7957834946992,5111160675511111.0,1.8255897789936813e+17,1055341985344924.4,1495557317654759.2,76256901183863.5,213471403827760.4,5429486934633454.0,1.691777026812118e+17
