t(s),Total solute volume 1,Total retention volume 1,Total 1 volume 1,Total 2 volume 1,Total 3 volume 1,Total 4 volume 1,Total 5 volume 1,Total 6 volume 1
0.1,1252217186918146.0,2056959543180943.2,321479351742078.75,483263004520719.3,0.0,0.0,0.0,0.0
0.202,1676056651636936.0,3363352528972866.5,430290866585436.6,646833692001073.4,197922209326.10413,605777567488.855,17625268454162.008,591742350518444.2
0.30604000000000003,1908017420034763.5,4540782411335302.0,489841719766625.0,736353378614283.1,455124012057.46826,1393010617966.4817,40539051464207.41,1364182706825401.2
0.41216080000000005,2056022908768956.0,5676160155121334.0,527838891382798.5,793472541593165.8,743005573370.0796,2274162797664.5474,66188698033370.12,2229619946972009.2
0.5204040160000001,2158778747929641.8,6798856206631891.0,554219205380859.2,833128689859764.6,1050631424499.9716,3215765072471.9487,93599165484014.19,3154864001480638.0
0.6308120963200001,2234186099259968.5,7922192251966438.0,573578393420970.4,862230346546078.4,1372855933018.7004,4202069370342.2646,122311698368274.5,4124310789067776.5
0.7434283382464002,2291775050633302.5,9053352997994914.0,588363097069094.6,884455419950145.4,1706971102604.6824,5224788493077.716,152084869110081.28,5129742801636593.0
0.8582969050113283,2337109982277567.5,1.0196704242188906e+16,600001849213622.9,901951348846864.0,2051452175031.0479,6279256808779.767,182782742236871.75,6166527610630162.0
0.9754628431115548,2373663299995242.5,1.1355151434125702e+16,609386114077898.2,916058224785112.5,2405406812012.4756,7362744379165.795,214325769288828.75,7231949874787453.0
1.094972099973786,2403714797906990.0,1.2530776182351058e+16,617101178928141.5,927655879512316.2,2768305750085.826,8473632583875.283,246666776604567.34,8324395611065072.0
1.2168715419732616,2428822812459678.5,1.3725164997298638e+16,623547112556788.6,937345715533014.9,3139840251746.264,9610977826518.982,279778256551876.7,9442920282119004.0
1.3412089728127268,2450088159919767.5,1.4939592173452468e+16,629006525459340.1,945552566437073.6,3519841887486.035,10774266015336.0,313645215447659.7,1.0587005598285818e+16
1.4680331522689813,2468310100568636.5,1.6175127690080142e+16,633684610229267.8,952584887530374.9,3908235110617.5884,11963267412058.736,348260945006577.0,1.1756415644222612e+16
1.597393815314361,2484082621122503.0,1.743270399787291e+16,637733859962850.4,958671913719723.1,4305008055330.309,13177947256390.621,383624418496219.25,1.2951108229259908e+16
1.729341691620648,2497856090820697.0,1.871315904372409e+16,641269897110955.6,963987454197793.6,4710193931182.639,14418408822959.406,419738631674813.94,1.4171178367165692e+16
1.863928525453061,2509977994939247.0,2.001726494720344e+16,644381930917512.6,968665612563534.4,5123858819802.125,15684856073571.816,456609514583782.2,1.5416821179305986e+16
2.001207095962122,2520720580315049.0,2.134574768548837e+16,647139854803053.9,972811455947748.4,5546093469024.398,16977568544542.217,494245199793590.06,1.6688306932615344e+16
2.1412312378813647,2530300064726409.0,2.269930096131124e+16,649599177952926.5,976508428411863.2,5977007655390.661,18296884095132.637,532655519684805.75,1.7985963878784704e+16
2.284055862638992,2538890264192937.0,2.407859620221179e+16,651804523828446.1,979823610076878.5,6416726238845.399,19643186835459.82,571851654641781.1,1.931016623639745e+16
2.4297369798917723,2546632440225905.5,2.548428992379293e+16,653792158232994.6,982811517433045.5,6865386357534.804,21016898544066.266,611845882928796.2,2.066132564007062e+16
2.578331719489608,2553642534044944.5,2.6917029258108708e+16,655591846538922.8,985516895212013.0,7323135406240.569,22418472484126.676,652651400461589.0,2.203988497396089e+16
2.7298983538794,2560016560814431.0,2.8377456180371212e+16,657228238539733.5,987976798162779.2,7790129563236.089,23848388898378.55,694282189498749.6,2.344631387489387e+16
2.884496320956988,2565834686481584.0,2.9866210796457628e+16,658721915089093.5,990222164409454.0,8266532707294.191,25307151698360.93,736752922138313.8,2.488110542393352e+16
3.0421862473761276,2571164347013787.5,3.1383933942408908e+16,660090188896778.1,992279019245984.1,8752515616446.79,26795286016188.496,780078888952061.8,2.634477369666764e+16
3.2030299723236504,2576062661911894.5,3.2931269273025036e+16,661347724145424.0,994169406573649.4,9248255373049.324,28313336387944.195,824275946028639.0,2.78378519426044e+16
3.3670905717701234,2580578321023820.0,3.450886496641394e+16,662507020888651.5,995912117071489.9,9753934921861.014,29861865405593.84,869360475672669.9,2.936089123142988e+16
3.5344323832055258,2584753073684986.0,3.611737513667365e+16,663578797355288.9,997523262894275.8,10269742742991.719,31441452720667.703,915349357357297.0,3.09144594499181e+16
3.7051210308696363,2588622914375310.0,3.7757461022582104e+16,664572294340882.0,999016735248390.1,10795872612065.1,33052694315083.34,962259946463917.8,3.24991405652264e+16
3.879223451487029,2592219034469634.0,3.9429792002889336e+16,665495519548800.5,1000404571697045.6,11332523427326.615,34696201977074.65,1010110059001066.4,3.4115534092768396e+16
4.0568079205167695,2595568592042373.5,4.11350464763504e+16,666355445220737.6,1001697253247908.2,11879899088677.676,36372602936263.945,1058917960962872.6,3.5764254722851548e+16
4.237944078927105,2598695338928476.0,4.287391263555577e+16,667158169120897.9,1002903946352238.6,12438208417398.947,38082539623495.82,1108702361324909.9,3.744593207178841e+16
4.422702960505647,2601620134898356.0,4.464708915691562e+16,667909046539165.2,1004032701338349.6,13007665108080.148,39826669529473.59,1159482407920879.5,3.916121053158133e+16
4.61115701971576,2604361371889508.0,4.645528582415548e+16,668612799203301.6,1005090616133648.8,13588487706297.8,41605665142443.82,1211277685624216.2,4.091074919845599e+16
4.803380160110075,2606935326071168.5,4.8299224098922104e+16,669273605663827.9,1006083972135505.5,14180899607086.123,43420213949769.375,1264108216392785.8,4.269522186510206e+16
4.9994477633122765,2609356451622152.0,5.017963764923831e+16,669895176715075.8,1007018347587789.9,14785129070371.531,45271018491682.8,1317994460835358.5,4.451531706491586e+16
5.199436718578522,2611637627140221.5,5.209727284435364e+16,670480818655401.8,1007898712676650.9,15401409250392.885,47158796458113.21,1372957321034361.8,4.637173815913848e+16
5.403425452950093,2613790363330134.0,5.4052889222850136e+16,671033486606540.6,1008729509682722.4,16029978236775.713,49084280821461.875,1429018144417245.0,4.82652034597553e+16
5.611493962009095,2615824978863737.5,5.6047259939538536e+16,671555829661849.9,1009514720850126.0,16671079105426.066,51048219999723.09,1486198728513082.0,5.0196446382544584e+16
5.823723841249277,2617750749941342.5,5.808117219565184e+16,672050229282920.1,1010257926106085.2,17324959977792.844,53051378045519.05,1544521326465257.8,5.216621562583294e+16
6.040198318074262,2619576038015023.0,6.015542765602728e+16,672518832089729.4,1010962352352669.0,17991874087345.977,55094534857534.984,1604008653197783.8,5.417527537142727e+16
6.261002284435747,2621308399292549.5,6.2270842856318344e+16,672963577973397.4,1011630915727216.6,18672079852350.457,57178486411550.28,1664683892153473.0,5.622440550490784e+16
6.486222330124463,2622954678972978.5,6.44282496027633e+16,673386224289100.5,1012266257970294.8,19365840954201.65,59304045008827.95,1726570702538835.2,5.831440185302911e+16
6.715946776726952,2624521092632360.5,6.662849536662041e+16,673788366750075.6,1012870777834561.8,20073426420730.0,61472039540069.99,1789693227023329.0,6.0446076436419224e+16
6.950265712261491,2626013296751130.5,6.887244367504398e+16,674171457533991.5,1013446658303127.6,20795110714002.49,63683315763499.96,1854076099851123.8,6.262025773612712e+16
7.18927102650672,2627436450030581.5,7.116097449990412e+16,674536821024604.0,1013995890253173.9,21531173822237.883,65938736595920.09,1919744455331750.8,6.483779097284582e+16
7.433056447036854,2628795266866946.0,7.349498464582907e+16,674885667540059.5,1014520293092987.6,22281901355529.645,68239182415818.8,1986723936682690.2,6.709953839787507e+16
7.681717575977592,2630094064124695.0,7.587538813856938e+16,675219105340921.5,1015021532813003.5,23047584645129.438,70585551377788.25,2055040705202422.0,6.940637959506548e+16
7.935351927497144,2631336802165238.5,7.830311661463229e+16,675538151163385.4,1015501137819842.2,23828520846093.723,72978759737666.31,2124721449756731.8,7.175921179314337e+16
8.194058966047088,2632527120934674.5,8.077911971301046e+16,675843739484023.1,1015960512863518.1,24625013043136.047,75419742187935.77,2195793396564819.8,7.415895018793238e+16
8.45794014536803,2633668371788777.0,8.330436546972994e+16,676136730690149.5,1016400951319513.5,25437370359559.99,77909452203017.42,2268284319274583.0,7.660652827409435e+16
8.72709894827539,2634763645629180.0,8.587984071585309e+16,676417918303174.9,1016823646047286.1,26265908069175.75,80448862394178.69,2342222549318949.5,7.910289818609122e+16
9.0016409272409,2635815797838563.5,8.850655147950578e+16,676688035380172.6,1017229699013394.4,27110947711124.312,83038964873844.38,2417636986547131.5,8.16490310481415e+16
9.281673745785717,2636827470430305.5,9.11855233924342e+16,676947760200305.6,1017620129839626.6,27972817207553.52,85680771629158.45,2494557110126397.5,8.424591733300078e+16
9.567307220701432,2637801111767786.5,9.391780210155293e+16,677197721327340.0,1017995883413190.1,28851850984104.17,88375314904691.7,2573012989711311.0,8.68945672294445e+16
9.85865336511546,2638738994157934.5,9.670445368589891e+16,677438502126394.4,1018357836676530.6,29748390093179.098,91123647594231.44,2653035296878648.5,8.959601101837184e+16
10.155826432417769,2639643229580788.5,9.954656507937266e+16,677670644802167.5,1018706804697761.8,30662782339977.52,93926843641625.08,2734655316827158.5,9.235129945748315e+16
10.458942961066125,2640515783780755.0,1.0244524449962229e+17,677894654016552.2,1019043546108867.2,31595382411287.285,96785998450676.48,2817904960342217.0,9.516150417451195e+16
10.768121820287448,2641358488914721.0,1.0540162188339541e+17,678111000135773.1,1019368767986919.6,32546552007036.04,99702229304121.47,2902816776026191.0,9.802771806902074e+16
11.083484256693197,2642173054926034.0,1.0841684932866602e+17,678320122150398.0,1019683130243615.0,33516659974607.0,102676675791730.86,2989423962795899.5,1.0095105572278365e+17
11.405153941827061,2642961079791349.0,1.1149210154382733e+17,678522430305988.4,1019987249579766.5,34506082445933.938,105710500247605.17,3077760382649176.5,1.0393265381880752e+17
11.733257020663602,2643724058768008.5,1.1462857630422435e+17,678718308477178.4,1020281703054153.1,35515202977392.195,108804888196745.75,3167860573702955.5,1.0697367156904787e+17
12.067922161076874,2644463392753920.5,1.1782749491628723e+17,678908116313876.0,1020567031309772.1,36544412692509.03,111961048810999.39,3259759763505867.5,1.1007529115090022e+17
12.409280604298411,2645180395857305.5,1.210901026895195e+17,679092191184633.4,1020843741495228.8,37594110427518.53,115180215374484.81,3353493882628474.5,1.1323871815255179e+17
12.75746621638438,2645876302262106.0,1.2441766941658254e+17,679270849939192.9,1021112309914259.4,38664702879792.234,118463645758626.31,3449099578534843.5,1.1646518202729376e+17
13.112615540712067,2646552272464142.5,1.2781148986171298e+17,679444390509483.5,1021373184432442.6,39756604759176.05,121812622906922.48,3546614229739368.0,1.1975593655690123e+17
13.474867851526309,2647209398944320.0,1.3127288425770323e+17,679613093366090.4,1021626786666626.0,40870238942271.01,125228455329595.5,3646075960252966.5,1.231122603242013e+17
13.844365208556836,2647848711337209.0,1.3480319881167094e+17,679777222845180.5,1021873513979618.4,42006036629693.51,128712477608268.1,3747523654323113.0,1.2653545719494786e+17
14.221252512727972,2648471181146626.5,1.3840380621983659e+17,679937028359113.4,1022113741300051.9,43164437506356.04,132266050910827.0,3850996971472457.0,1.3002685680914139e+17
14.605677562982532,2649077726053843.0,1.4207610619153174e+17,680092745502493.1,1022347822785047.6,44345889904809.99,135890563516641.31,3956536361840768.0,1.3358781508192808e+17
14.997791114242183,2649669213859027.5,1.4582152598264768e+17,680244597064038.2,1022576093341299.1,45550850971692.875,139587431352301.2,4064183081835455.5,1.3721971471422389e+17
15.397746936527026,2650246466091811.0,1.4964152093874746e+17,680392793953522.2,1022798870018501.2,46779786837327.37,143358098538064.1,4173979210095843.5,1.4092396571321246e+17
15.805701875257567,2650810261323062.0,1.5353757504804528e+17,680537536051989.0,1023016453287433.9,48033172788515.59,147204037945187.22,4285967663776716.0,1.447020059228726e+17
16.221815912762718,2651361338206385.5,1.5751120150447258e+17,680679012992601.6,1023229128213770.4,49311493444580.37,151126751764339.6,4400192215156806.0,1.485553015646941e+17
16.64625223101797,2651900398274873.0,1.6156394328103837e+17,680817404878644.6,1023437165537412.0,50615242936698.984,155127772085289.1,4516697508577971.0,1.5248534778874742e+17
17.079177275638333,2652428108515862.5,1.6569737371370112e+17,680952882944535.0,1023640822666153.1,51944925090582.47,159208661488070.78,4635529077721094.0,1.5649366923527475e+17
17.5207608211511,2652945103744143.5,1.699130970959586e+17,681085610165085.5,1023840344591555.5,53301053612551.43,163371013645837.06,4756733363224857.0,1.6058182060697462e+17
17.97117603757412,2653451988791869.5,1.7421274928437338e+17,681215741817733.1,1024035964734113.9,54684152279060.47,167616453939607.53,4880357730653624.0,1.647513872521576e+17
18.430599558325603,2653949340531716.5,1.7859799831524826e+17,681343426001920.4,1024227905724017.0,56094755129725.16,171946640085135.4,5006450488820967.0,1.6900398575895494e+17
18.899211549492115,2654437709747921.0,1.8307054503266266e+17,681468804119458.9,1024416380123258.8,57533406663907.64,176363262772112.4,5135060908475400.0,1.7334126456076054e+17
19.37719578048196,2654917622868688.0,1.8763212372809366e+17,681592011319278.2,1024601591094193.6,59000662040913.52,180868046315941.5,5266239241354988.0,1.777649045530998e+17
19.864739696091597,2655389583571851.5,1.92284502791833e+17,681713176909652.1,1024783733019220.4,60497087283859.67,185462749322307.4,5400036739617971.0,1.822766197221079e+17
20.36203449001343,2655854074274688.5,1.9702948537642358e+17,681832424740666.4,1024962992075737.5,62023259487268.33,190149165364787.88,5536505675656201.0,1.8687815778482416e+17
20.869275179813698,2656311557517707.0,2.0186891007233763e+17,681949873559482.8,1025139546770173.6,63579767028445.95,194929123675745.66,5675699362298743.0,1.9157130084148755e+17
21.38666068340997,2656762477251219.0,2.068046515961181e+17,682065637340638.1,1025313568434521.8,65167209782707.69,199804489850746.5,5817672173412972.0,1.9635786604004522e+17
21.91439389707817,2657207260032846.0,2.1183862149120995e+17,682179825593475.8,1025485221688480.0,66786199342503.14,204777166566762.3,5962479564910663.0,2.0123970625307542e+17
22.452681775019734,2657646316143157.0,2.169727688417094e+17,682292543648560.1,1025654664870004.8,68437359240508.12,209849094314410.62,6110178096166727.0,2.0621871076732605e+17
23.00173541052013,2658080040626145.0,2.2220908099926102e+17,682403892924798.2,1025822050436865.6,70121325176741.625,215022252144500.78,6260825451858375.0,2.112968059860938e+17
23.561770118730532,2658508814260538.5,2.275495843233325e+17,682513971178801.2,1025987525341489.6,71838745249769.06,220298658429145.4,6414480464232785.0,2.1647595614464013e+17
24.133005521105144,2658933004467458.0,2.3299634493510816e+17,682622872737909.2,1026151231381258.0,73590280192056.16,225680371637717.88,6571203135811173.0,2.2175816403888058e+17
24.715665631527248,2659352966159407.0,2.3855146948522893e+17,682730688718149.4,1026313305526147.0,75376603609535.0,231169491127932.1,6731054662537859.0,2.2714547176754976e+17
25.309978944157795,2659769042535205.0,2.4421710593562694e+17,682837507228310.9,1026473880225523.9,77198402225446.97,236768157952324.78,6894097457382361.0,2.326399614880773e+17
25.91617852304095,2660181565824991.0,2.4999544435569043e+17,682943413561217.9,1026633083695645.8,79056376128526.69,242478555680432.44,7060395174403503.0,2.3824375618639597e+17
26.53450209350177,2660590857989147.5,2.558887177330068e+17,683048490373157.6,1026791040189408.6,80951239025591.12,248302911236954.22,7230012733284009.0,2.4395902046090867e+17
27.165192135371807,2660997231374582.0,2.618992027989305e+17,683152817852371.0,1026947870249622.2,82883718498599.66,254243495756202.06,7403016344344542.0,2.4978796132085475e+17
27.808495978079243,2661400989331713.5,2.6802922086922154e+17,683256473877445.4,1027103690947104.1,84854556266252.12,260302625453140.3,7579473534046485.0,2.557328289992996e+17
28.464665897640828,2661802426794868.5,2.74281138700013e+17,683359534166315.5,1027258616104692.1,86864508450189.31,266482662511325.62,7759453170992318.0,2.6179591778099293e+17
29.133959215593645,2662201830828991.5,2.8065736935935472e+17,683462072416630.1,1027412756508225.0,88914345845862.56,272786015988062.88,7943025492433376.0,2.6797956684533344e+17
29.816638399905518,2662599481145051.0,2.871603731145988e+17,683564160438067.0,1027566220105441.5,91004854198143.4,279215142737099.22,8130262131294375.0,2.7428616112468077e+17
30.51297116790363,2662995650586407.5,2.937926583358769e+17,683665868277185.6,1027719112193698.4,93136834481734.27,285772548349179.44,8321236143724460.0,2.807181321782643e+17
31.223230591261704,2663390605588263.0,3.005567824159411e+17,683767264335405.6,1027871535597273.5,95311103186455.3,292460788110796.44,8516022037184791.0,2.8727795908193837e+17
31.947695203086937,2663784606612156.5,3.074553527066246e+17,683868415480525.1,1028023590835056.9,97528492607469.16,299282467981477.9,8714695799082753.0,2.939681693340253e+17
32.686649107148675,2664177908557222.5,3.144910274721956e+17,683969387152326.6,1028175376279252.9,99789851140517.58,306240245589947.75,8917334925963028.0,3.007913397775131e+17
33.44038208929165,2664570761149875.0,3.216665168598712e+17,684070243462601.5,1028326988305785.2,102096043582233.81,313336831249516.9,9124018453266046.0,3.077500975388547e+17
34.20918973107749,2664963409313474.5,3.2898458388776365e+17,684171047290071.1,1028478521436953.2,104447951435603.39,320574988993052.0,9334826985664494.0,3.148471209836299e+17
34.993373525699035,2665356093519365.0,3.3644804545053523e+17,684271860370488.8,1028630068476898.8,106846473220639.75,327957537627898.1,9549842727988670.0,3.220851406893318e+17
35.793240996213015,2665749050120489.5,3.440597733430346e+17,684372743382307.2,1028781720640378.0,109292524790345.38,335487351811100.94,9769149516751658.0,3.2946694043553856e+17
36.60910581613728,2666142511668993.0,3.5182269530219565e+17,684473756028202.0,1028933567675307.1,111787039652026.67,343167363145326.8,9992832852285946.0,3.369953582117398e+17
37.44128793246003,2666536707218675.5,3.5973979606748544e+17,684574957112727.1,1029085697979508.0,114330969294032.92,351000561295841.8,1.0220979931502168e+16,3.446732872430822e+17
38.29011369110923,2666931862613545.5,3.6781411846017286e+17,684676404616394.1,1029238198712056.1,116925283517985.36,358989995128945.2,1.0453679681282306e+16,3.525036770343015e+17
39.15591596493141,2667328200763311.0,3.760487644817164e+17,684778155766392.4,1029391155899603.8,119570970776569.77,367138773872251.75,1.0691022792518882e+16,3.604895344321196e+17
40.03903428423004,2667725941906723.5,3.8444689643154765e+17,684880267104206.0,1029544654538014.4,122269038516957.9,375450068297212.6,1.0933101754812026e+16,3.6863392470637306e+17
40.93981496991464,2668125303863650.0,3.930117380445483e+17,684982794550321.4,1029698778689635.2,125020513529928.2,383927111924292.9,1.1180010891836848e+16,3.7693997265015315e+17
41.85861126931294,2668526502276587.0,4.01746575648503e+17,685085793466232.5,1029853611576514.0,127826442304750.67,392573202251210.8,1.1431846397393604e+16,3.8541086369923437e+17
42.7957834946992,2668929750842377.5,4.1065475934183245e+17,685189318713928.9,1030009235669813.6,130687891389910.72,401391702004654.8,1.1688706372152836e+16,3.940498450710588e+17
