t(s),Total solute volume 1,Total retention volume 1,Total 1 volume 1,Total 2 volume 1,Total 3 volume 1,Total 4 volume 1,Total 5 volume 1,Total 6 volume 1
0.1,1090211262672958.4,1436790320131653.8,152346489675587.4,194232567783107.2,0.0,0.0,0.0,0.0
0.202,1638407081349725.5,2166926990178692.0,228951559601109.22,291899407640282.3,5839211228.327642,13871507732.221539,276542885959.60486,7372687982652.395
0.30604000000000003,2053513264501746.8,2725746139491940.0,286958638170388.4,365854929281832.0,14783395871.652254,35119173432.134285,700151309679.5016,18669253658988.223
0.41216080000000005,2402444241703705.5,3200605659387111.5,335718371001296.44,428020643411068.5,26202916073.16837,62247243885.759674,1240998761051.222,33092954350028.965
0.5204040160000001,2710342208106720.0,3624263317406096.5,378744137004040.5,482875896127703.25,39810860753.933075,94574148577.31665,1885496069687.0918,50281195088614.42
0.6308120963200001,2989750708606972.5,4013039818317962.0,417788775398399.5,532655451605663.44,55447103065.85669,131719503738.2102,2626059328202.8267,70031656771922.95
0.7434283382464002,3247965453487090.5,4376422061182168.0,453871791211434.3,578659117186713.2,73014143414.99751,173451701960.41183,3458070916084.564,92221162535465.39
0.8582969050113283,3489661213405014.0,4720490388893310.0,487646438477913.25,621719752311175.5,92450686684.98978,219625142801.1744,4378627984809.41,116772280884911.08
0.9754628431115548,3718040538172625.5,5049415325961832.0,519560242592640.94,662407924827031.9,113718587306.5172,270149219816.70795,5385924125954.46,143636828436459.84
1.094972099973786,3935407637172904.5,5366204360615816.0,549935194554611.7,701134153809139.1,136795594065.53902,324971085338.5739,6478905741884.058,172786702657870.0
1.2168715419732616,4143483699260136.0,5673111749532793.0,579011813876740.6,738205087108285.8,161670970538.4187,384065246526.10614,7657064617284.696,204208348453273.12
1.3412089728127268,4343593016460014.5,5971880116169119.0,606975157574771.1,773856661241295.8,188342683947.80804,447426887322.84796,8920304776469.914,237899206545294.66
1.4680331522689813,4536779179442513.0,6263891098563879.0,633971057361988.2,808274802833648.0,216815513144.91257,515067373867.7431,10268852873377.398,273865323165338.78
1.597393815314361,4723880963013669.0,6550263621328143.0,660116723913559.5,841608948416001.2,247099726333.40222,587011113371.0001,11703195566191.33,312119679579024.44
1.729341691620648,4905583758909613.0,6831920426975877.0,685507934102543.2,873981207716027.4,279210128290.69183,663293290759.2725,13224034392386.156,352680988436262.06
1.863928525453061,5082455535785801.0,7109634542473937.0,710224056060996.0,905492770307768.5,313165356305.24835,743958196165.1592,14832252423630.453,395572804343273.25
2.001207095962122,5254972654530337.0,7384062603084978.0,734331656620562.0,936228504880514.4,348987348833.64124,829057962726.3534,16528889101155.727,440822852640859.06
2.1412312378813647,5423538827450070.0,7655769302370598.0,757887150675562.0,966260337016705.5,386700937328.59955,918651596987.8177,18315120904829.84,488462513789106.1
2.284055862638992,5588499320805743.0,7925245691494222.0,780938785850067.1,995649779522556.6,426333527936.66974,1012804222797.2184,20192246278697.965,538526421286415.44
2.4297369798917723,5750151780897435.0,8192923116598939.0,803528155338731.8,1024449861208751.1,467914850088.765,1111586484110.8706,22161673724758.145,591052144095070.6
2.578331719489608,5908754614629429.0,8459183999817406.0,825691369009777.2,1052706619975995.8,511476755763.24493,1215074068177.6106,24224912296737.32,646079933081516.0
2.7298983538794,6064533566845170.0,8724370295035653.0,847459972523980.5,1080460274636216.8,557053057737.5365,1323347321344.6091,26383563940490.543,703652516710709.2
2.884496320956988,6217686946604128.0,8988790203069996.0,868861677656400.6,1107746156028639.6,604679398260.133,1436490937130.881,28639317275214.65,763814935170204.6
3.0421862473761276,6368389826531651.0,9252723565039364.0,889920949114922.1,1134595455177987.5,654393141758.5101,1554593701401.8848,30993942513099.01,826614404858530.6
3.2030299723236504,6516797451400420.0,9516426238826094.0,910659480856594.5,1161035830569040.5,706233286757.055,1677748283181.0127,33449287288847.23,892100207141268.4
3.3670905717701234,6663048030563021.0,9780133683900132.0,931096586303100.1,1187091905647795.5,760240393309.6405,1806051062319.4536,36007273224053.15,960323596706562.4
3.5344323832055258,6807265045095075.0,1.0044063923204516e+16,951249520741715.8,1212785679863190.0,816456523083.924,1939601987223.529,38669893090837.84,1031337725903397.2
3.7051210308696363,6949559168925739.0,1.0308420009993612e+16,971133749784742.5,1238136870936696.2,874925189855.6019,2078504457314.0396,41439208468576.445,1105197582230685.6
3.879223451487029,7090029880124091.0,1.0573392097677712e+16,990763174531202.1,1263163201929840.2,935691318640.2418,2222865226007.3457,44317347809771.92,1181959936738164.0
4.0568079205167695,7228766821389171.0,1.0839159188635348e+16,1010150321682182.1,1287880643629822.5,998801212048.8972,2372794320859.834,47306504848118.62,1261683301553149.8
4.237944078927105,7365850955960135.0,1.1105890621408218e+16,1029306505068112.9,1312303620487008.0,1064302522730.7723,2528404978175.224,50408937294919.88,1344427895097136.5
4.422702960505647,7501355555441587.0,1.1373747343165864e+16,1048241963687801.2,1336445186606380.2,1132244230982.0518,2689813589887.62,53626965780248.484,1430255613828993.2
4.61115701971576,7635347048601427.0,1.1642883004748202e+16,1066965980319748.6,1360317176969789.2,1202676626770.111,2857139660936.4214,56962973003289.89,1519230009566256.0
4.803380160110075,7767885754455698.0,1.1913444908202288e+16,1085486983963662.5,1383930338042686.2,1275651295556.9998,3030505775669.9946,60419403062696.82,1611416271606337.2
4.9994477633122765,7899026518480533.0,1.2185574830975562e+16,1103812638744926.9,1407294441121978.8,1351221107414.1455,3210037572071.1094,63998760942888.734,1706881213005754.0
5.199436718578522,8028819267279082.0,1.2459409746412168e+16,1121949921423951.1,1430418381155731.8,1429440209006.9465,3395863722803.421,67703612136350.71,1805693260485256.2
5.403425452950093,8157309494252156.0,1.2735082456630218e+16,1139905189263959.5,1453310263270543.2,1510364018098.6096,3588115922246.2275,71536582385321.16,1907922447517867.5
5.611493962009095,8284538686607149.0,1.3012722151013746e+16,1157684239701340.2,1475977478847588.2,1594049220280.1604,3786928878821.246,75500357528996.27,2013640410229570.8
5.823723841249277,8410544702263109.0,1.3292454901276548e+16,1175292363014505.8,1498426772672278.0,1680553767680.8,3992440312027.9316,79597683444607.14,2122920385802316.2
6.040198318074262,8535362103777030.0,1.357440410221464e+16,1192734388986857.8,1520664302426677.2,1769936879452.199,4204790953696.6465,83831366072600.14,2235837213118330.0
6.261002284435747,8659022455251394.0,1.3858690865775526e+16,1210014728396750.2,1542695691586746.2,1862259043852.5686,4424124553046.612,88204271517673.9,2352467335426067.5
6.486222330124463,8781554587233161.0,1.4145434374852612e+16,1227137410034577.5,1564526076616841.5,1957582021783.8882,4650587885200.197,92719326218732.0,2472888804842321.5
6.715946776726952,8902984833833418.0,1.4434752202216926e+16,1244106113837909.5,1586160149215066.0,2055968851658.3284,4884330762859.367,97379517181884.73,2597181288534144.0
6.950265712261491,9023337245653282.0,1.4726760599173854e+16,1260924200645882.2,1607602194248289.8,2157483855489.425,5125506050896.214,102187892271555.7,2725426076448478.0
7.18927102650672,9142633781568042.0,1.5021574757851276e+16,1277594738999154.2,1628856123920459.5,2262192646119.802,5374269683648.482,107147560555521.84,2857706090478331.0
7.433056447036854,9260894481976412.0,1.531930905045731e+16,1294120529349814.2,1649925508638795.0,2370162135511.368,5630780684744.13,112261692700383.03,2994105894971659.0
7.681717575977592,9378137625750200.0,1.56200772483725e+16,1310504125993578.8,1670813604976023.2,2481460544035.929,5895201189307.535,117533521414519.83,3134711708504841.0
7.935351927497144,9494379872807374.0,1.5923992723541806e+16,1326747856993021.8,1691523381071253.5,2596157410714.187,6167696468424.469,122966341936089.73,3279611416854939.0
8.194058966047088,9609636393967790.0,1.6231168634297568e+16,1342853842323635.0,1712057539765148.8,2714323604360.38,6448434955763.9795,128563512564035.23,3428894587116819.5
8.45794014536803,9723920989528306.0,1.654171809745999e+16,1358824010443546.2,1732418539725307.0,2836031335597.2344,6737588276273.804,134328455230436.83,3582652482920519.0
8.72709894827539,9837246197803776.0,1.6855754348321168e+16,1374660113461117.8,1752608614783995.0,2961354169712.7437,7035331276881.72,140264656112865.39,3740978080712844.0
9.0016409272409,9949623394720068.0,1.717339088991371e+16,1390363741052063.2,1772629791681689.8,3090367040336.052,7341842059149.223,146375666285669.28,3903966087074734.5
9.281673745785717,1.0061062885406196e+16,1.7494741632789168e+16,1405936333258584.0,1792483906385160.5,3223146263914.932,7657302013836.11,152665102409362.22,4071712957052114.5
9.567307220701432,1.0171573988614268e+16,1.7819921026382012e+16,1421379192286248.5,1812172619127802.2,3359769554981.7744,7981895857345.125,159136647457504.8,4244316913483873.0
9.85865336511546,1.0281165114694952e+16,1.814904418290523e+16,1436693493400286.5,1831697428301735.8,3500316042198.8975,8315811670025.314,165794051480653.5,4421877967315364.0
10.155826432417769,1.0389843837766488e+16,1.848222699461165e+16,1451880295010527.8,1851059683315499.0,3644866285177.704,8659240936320.937,172641132407111.12,4604497938890514.0
10.458942961066125,1.0497616962640668e+16,1.8819586245160456e+16,1466940548023651.8,1870260596517624.0,3793502292068.923,9012378586760.238,179681776880370.28,4792280480219344.0
10.768121820287448,1.0604490587002066e+16,1.9161239715742724e+16,1481875104532174.0,1889301254274526.0,3946307537924.2617,9375423041784.852,186919941133258.03,4985331098220984.0
11.083484256693197,1.0710470159280696e+16,1.9507306286549136e+16,1496684725901505.2,1908182627281050.5,4103366983831.9375,9748576257425.75,194359651898915.22,5183757178945716.0
11.405153941827061,1.081556053260534e+16,1.9857906034098308e+16,1511370090309495.2,1926905580172928.2,4264767096830.8657,10132043772838.13,202005007358840.53,5387668012781999.0
11.733257020663602,1.0919766015185022e+16,2.0213160324889876e+16,1525931799786717.8,1945470880502699.8,4430595870610.021,10526034759710.568,209860178128309.8,5597174820656773.0
12.067922161076874,1.102309041742413e+16,2.05731919057981e+16,1540370386800349.0,1963879207133777.2,4600942847001.376,10930762073568.408,217929408279590.38,5812390781239713.0
12.409280604298411,1.1125537096044956e+16,2.0938124991578572e+16,1554686320419882.8,1982131158101361.2,4775899138275.929,11346442306995.79,226217016403395.62,6033431059163706.0
12.75746621638438,1.1227108995461632e+16,2.130808534982393e+16,1568880012098721.8,2000227257983594.5,4955557450254.274,11773295844801.76,234727396709132.7,6260412834275802.0
13.112615540712067,1.132780868662249e+16,2.1683200383672184e+16,1582951821102028.2,2018167964821791.2,5140012106243.538,12211546921161.201,243465020164519.1,6493455331933965.0
13.474867851526309,1.1427638403516216e+16,2.2063599212541e+16,1596902059608131.5,2035953676624369.2,5329359071814.148,12661423678761.283,252434435675213.72,6732679854366489.0
13.844365208556836,1.1526600077515772e+16,2.2449412751136852e+16,1610730997507720.0,2053584737485561.0,5523695980430.547,13123158229988.473,261640271305129.7,6978209813112235.0
14.221252512727972,1.1624695369716522e+16,2.284077378696475e+16,1624438866922777.2,2071061443346795.0,5723122159950.675,13596986720191.045,271087235538154.34,7230170762560311.0
14.605677562982532,1.1721925701408868e+16,2.3237817056543716e+16,1638025866464903.2,2088384047425758.8,5927738660009.877,14083149393055.287,280780118582019.94,7488690434609101.0
14.997791114242183,1.1818292282812378e+16,2.3640679320517308e+16,1651492165250559.5,2105552765335633.2,6137648280305.242,14581890658133.78,290723793715097.94,7753898774465214.0
15.397746936527026,1.1913796140184378e+16,2.4049499437829004e+16,1664837906689260.2,2122567779914795.8,6352955599797.173,15093459160566.025,300923218676925.8,8025927977603325.0
15.805701875257567,1.2008438141406162e+16,2.4464418439122404e+16,1678063212059023.0,2139429245785282.5,6573767006844.975,15618107853031.994,311383437103258.9,8304912527908732.0
16.221815912762718,1.210221902013981e+16,2.4885579599509404e+16,1691168183881985.8,2156137293656515.0,6800190730294.1045,16156094069981.166,322109580006518.4,8590989237024281.0
16.64625223101797,1.2195139398638372e+16,2.531312851084245e+16,1704152909111995.0,2172692034389302.0,7032336871532.45,16707679604178.404,333106867302449.06,8884297284924635.0
17.079177275638333,1.2287199809287574e+16,2.5747213153612828e+16,1717017462144770.2,2189093562833566.5,7270317437533.542,17273130785610.475,344380609383859.25,9184978261739922.0
17.5207608211511,1.2378400714945674e+16,2.618798396859019e+16,1729761907660263.5,2205341961452246.2,7514246374904.546,17852718562796.1,355936208742301.1,9493176210852004.0
17.97117603757412,1.2468742528146666e+16,2.663559392831134e+16,1742386303306076.5,2221437303742425.0,7764239604957.33,18446718586543.01,367779161638565.75,9809037673286110.0
18.430599558325603,1.2558225629222214e+16,2.7090198608515692e+16,1754890702229859.5,2237379657464040.8,8020415059820.324,19055411296195.535,379915059822857.1,1.0132711733420716e+16
18.899211549492115,1.2646850383396122e+16,2.7551956259622096e+16,1767275155468083.0,2253169087685375.5,8282892719609.514,19679082008416.96,392349592305515.75,1.046435006603895e+16
19.37719578048196,1.2734617156898422e+16,2.8021027878333076e+16,1779539714197826.0,2268805659654004.5,8551794650676.442,20318021008549.07,405088547179167.4,1.080410698474447e+16
19.864739696091597,1.2821526332143692e+16,2.8497577279448876e+16,1791684431857797.0,2284289441500930.0,8827245044951.193,20972523644593.594,418137813493157.44,1.1152139491763834e+16
20.36203449001343,1.2907578322013778e+16,2.8981771167968068e+16,1803709366144211.5,2299620506785221.5,9109370260398.271,21642890423857.52,431503383181135.0,1.150860732915951e+16
20.869275179813698,1.299277358328257e+16,2.947377921154756e+16,1815614580886790.2,2314798936885786.0,9398298862602.977,22329427112306.15,445191353042642.2,1.1873673031474858e+16
21.38666068340997,1.3077112629218022e+16,2.997377411339171e+16,1827400147809723.5,2329824823246507.5,9694161667505.584,23032444836665.52,459207926779556.44,1.2247501979833724e+16
21.91439389707817,1.316059604139246e+16,3.048193168563509e+16,1839066148182097.5,2344698269480430.5,9997091785301.219,23752260189316.53,473559417088222.1,1.2630262457517248e+16
22.452681775019734,1.3243224480732934e+16,3.099843092328198e+16,1850612674362046.8,2359419393338477.5,10307224665522.035,24489195336022.91,488252247808115.2,1.3022125707038816e+16
23.00173541052013,1.332499869783851e+16,3.152345407876207e+16,1862039831238518.2,2373988328547565.0,10624698143318.668,25243578126533.258,503292956127839.2,1.3423265988739772e+16
23.561770118730532,1.340591954259187e+16,3.2057186737159652e+16,1873347737574356.2,2388405226523042.0,10949652486957.893,26015742208098.617,518688194849292.06,1.383386064092609e+16
24.133005521105144,1.3485987973089716e+16,3.259981789217077e+16,1884536527254291.5,2402670257959703.5,11282230446552.678,26806027141944.457,534444734710779.44,1.4254090141567802e+16
24.715665631527248,1.3565205063916068e+16,3.3151540022841156e+16,1895606350441030.8,2416783614305800.5,11622577304040.674,27614778522738.234,550569466769870.3,1.468413817158163e+16
25.309978944157795,1.364357201378114e+16,3.3712549171136816e+16,1906557374642697.5,2430745509123941.0,11970840924427.297,28442348101089.49,567069404846780.9,1.5124191679716726e+16
25.91617852304095,1.3721090152546658e+16,3.4283045020394588e+16,1917389785694604.5,2444556179342771.5,12327171808309.15,29289093909122.555,583951688029039.0,1.5574440949064084e+16
26.53450209350177,1.379776094765944e+16,3.486323097470304e+16,1928103788658214.8,2458215886403166.5,12691723145692.4,30155380389158.01,601223583238193.9,1.6035079665209112e+16
27.165192135371807,1.3873586010012036e+16,3.5453314239257108e+16,1938699608640174.8,2471724917302331.5,13064650871122.363,31041578525542.03,618892487859316.4,1.6506304986046558e+16
27.808495978079243,1.3948567099250486e+16,3.605350590173492e+16,1949177491533976.5,2485083585539497.0,13446113720138.186,31948065979657.516,636965932433992.6,1.698831761327721e+16
28.464665897640828,1.402270612854744e+16,3.666402101473809e+16,1959537704686982.2,2498292231966265.0,13836273287067.38,32875227228156.12,655451583417585.8,1.748132186560464e+16
29.133959215593645,1.409600516885903e+16,3.728507867934042e+16,1969780537495275.5,2511351225545007.0,14235294084175.523,33823453704444.41,674357246001420.0,1.7985525753651026e+16
29.816638399905518,1.4168466452683036e+16,3.791690212978634e+16,1979906301928806.0,2524260964018454.0,14643343602183.617,34793143943460.38,693690867000641.9,1.850114105660978e+16
30.51297116790363,1.424009237733568e+16,3.855971881938172e+16,1989915332989328.5,2537021874493456.0,15060592372168.777,35784703729774.516,713460537808389.8,1.9028383400652896e+16
31.223230591261704,1.4310885507764354e+16,3.9213760507615944e+16,1999807989103416.2,2549634413942105.5,15487214028860.393,36798546249050.08,733674497417022.1,1.9567472339111172e+16
31.947695203086937,1.438084857891233e+16,3.9879263348557816e+16,2009584652452942.5,2562099069623074.0,15923385375346.469,37835092242895.27,754341135507039.2,2.011863143444418e+16
32.686649107148675,1.4449984497653e+16,4.055646798056268e+16,2019245729245339.2,2574416359426173.5,16369286449202.994,38894770167142.586,775468995604354.2,2.06820883420175e+16
33.44038208929165,1.4518296344308376e+16,4.124561961733175e+16,2028791649925812.2,2586586832142898.0,16825100590059.39,39978016353586.664,797066778306647.0,2.125807489570436e+16
34.20918973107749,1.4585787373769384e+16,4.194696814036077e+16,2038222869333896.5,2598611067666035.5,17291014508613.586,41085275175215.19,819143344579371.6,2.1846827195328176e+16
34.993373525699035,1.465246101623281e+16,4.266076819281773e+16,2047539866806407.8,2610489677120962.5,17767218357109.074,42216999214962.945,841707719122130.9,2.2448585695963356e+16
35.793240996213015,1.4718320877570768e+16,4.338727927488715e+16,2056743146229106.0,2622223302931437.5,18253905801287.457,43373649438026.18,864769093806062.9,2.3063595299110436e+16
36.60910581613728,1.4783370739348488e+16,4.412676584061742e+16,2065833236039176.0,2633812618822820.5,18751274093828.77,44555695367764.07,888336831182859.8,2.369210544576253e+16
37.44128793246003,1.484761455850577e+16,4.487949739631174e+16,2074810689180665.5,2645258329765265.5,19259524149292.16,45763615265224.71,912420468066099.5,2.433437021137942e+16
38.29011369110923,1.4911056466716622e+16,4.564574860049556e+16,2083676083015092.0,2656561171859674.5,19778860620570.5,46997896312324.08,937029719185534.6,2.499064840278575e+16
39.15591596493141,1.49737007694434e+16,4.642579936550243e+16,2092430019189174.5,2667721912169165.5,20309491976870.55,48259034798713.75,962174480914969.9,2.566120365701001e+16
40.03903428423004,1.5035551944699132e+16,4.721993496071037e+16,2101073123461942.2,2678741348498578.0,20851630583232.035,49547536312367.79,987864835074395.8,2.6346304542080708e+16
40.93981496991464,1.5096614641533894e+16,4.8028446117470456e+16,2109606045493197.8,2689620309124777.0,21405492781597.863,50863915933921.375,1014111052807047.2,2.704622465979596e+16
41.85861126931294,1.5156893678258838e+16,4.8851629135759016e+16,2118029458595336.2,2700359652480295.0,21971298973449.06,52208698434796.59,1040923598532027.8,2.776124275048415e+16
42.7957834946992,1.5216394040423432e+16,4.968978599259454e+16,2126344059450701.0,2710960266792910.0,22549273704016.336,53582418479146.2,1068313133973156.0,2.849164279977125e+16
