t(s),Total solute volume 1,Total retention volume 1,Total 1 volume 1,Total 2 volume 1,Total 3 volume 1,Total 4 volume 1,Total 5 volume 1,Total 6 volume 1
0.1,1373795654025336.8,3540173632894849.0,759959875137435.1,1406418103732074.5,0.0,0.0,0.0,-1.66771727949885e-108
0.202,1734362407970684.2,5906620038528909.0,959419236666488.2,1775548077979039.2,223575003593.45312,941787216778.1154,42927060518593.125,1393197893173731.5
0.30604000000000003,1889385425525596.8,8141340113672800.0,1045175302533093.0,1934252609823628.8,491985259494.72687,2072549058708.6404,94772389521889.47,3175189851950386.5
0.41216080000000005,1973969541952713.0,1.0348899986760842e+16,1091965778736727.1,2020845427304352.8,778743799318.3978,3280633028731.0825,150217301731886.66,5107842560207111.0
0.5204040160000001,2026785187868240.2,1.2563936701979206e+16,1121182484252140.5,2074915337267569.2,1076826646215.6013,4536439086365.411,207873454712910.56,7127566972145771.0
0.6308120963200001,2062615100021862.0,1.48017965265716e+16,1141002974629396.0,2111596138901843.0,1383647382931.3806,5829068652709.899,267231954113285.75,9212137642869564.0
0.7434283382464002,2088351620130921.2,1.7070615952442348e+16,1155239974509546.0,2137943852236477.8,1698107854900.5337,7153894505857.034,328076418895219.2,1.1352152084309416e+16
0.8582969050113283,2107636686547401.0,1.9375336385051524e+16,1165908141389231.8,2157686903537312.2,2019721067014.2874,8508864749923.733,390310439922089.56,1.3543265627838546e+16
0.9754628431115548,2122567768429617.2,2.171930834974988e+16,1174167759038658.2,2172972572171788.0,2348282901788.637,9893119521518.215,453893192066422.6,1.5783465655620062e+16
1.094972099973786,2134433097551098.0,2.410502006120693e+16,1180731455064349.8,2185119682578548.8,2683732517809.524,11306402742575.137,518812046863116.7,1.8071933643889424e+16
1.2168715419732616,2144064838005949.2,2.6534461977104652e+16,1186059568298821.2,2194980160949339.5,3026087237465.3604,12748787748612.93,585069784535102.0,2.0408512750329364e+16
1.3412089728127268,2152022955847986.5,2.9009323612309092e+16,1190461862313021.0,2203127271346888.2,3375409866870.8447,14220539577952.117,652678166396559.0,2.2793437406959816e+16
1.4680331522689813,2158697209525389.0,3.153110650957205e+16,1194153944765366.2,2209960028176435.0,3731791291015.815,15722041627914.45,721654505995822.5,2.5227186988190084e+16
1.597393815314361,2164366721228737.0,3.410119245406269e+16,1197290221243895.2,2215764182216480.5,4095340743387.0977,17253754650499.342,792019748738203.0,2.771040248524152e+16
1.729341691620648,2169236303282458.5,3.67208864654285e+16,1199983990399489.2,2220749409679564.8,4466180144516.278,18816192894513.63,863797352393968.1,3.0243837036634004e+16
1.863928525453061,2173459434587159.8,3.939144491386716e+16,1202320154117567.8,2225072834293691.2,4844440698212.08,20409909761828.637,937012612641047.6,3.282832552776768e+16
2.001207095962122,2177153257577452.2,4.2114094515980984e+16,1204363513576592.2,2228854380404857.5,5230260790253.757,22035488952505.53,1011692245745593.6,3.5464765368933708e+16
2.1412312378813647,2180408638521648.5,4.4890045549565256e+16,1206164334432438.0,2232187072187062.0,5623784664280.438,23693538885307.48,1087864124926265.5,3.815410405594825e+16
2.284055862638992,2183297080465580.5,4.772050129617102e+16,1207762170939773.0,2235144110753796.5,6025161575371.888,25384689131452.844,1165557111334332.2,4.0897330971970696e+16
2.4297369798917723,2185875575754035.5,5.060666495897542e+16,1209188550283301.2,2237783841916682.2,6434545245032.329,27109588118694.465,1244800944834275.0,4.369547191282346e+16
2.578331719489608,2188190077611027.0,5.354974485274341e+16,1210468892996160.8,2240153310208631.0,6852093510863.673,28868901656004.71,1325626173480013.8,4.6549585403280664e+16
2.7298983538794,2190278026524037.0,5.6550958387624136e+16,1211623910512155.2,2242290845264554.5,7277968104702.784,30663311999765.793,1408064108570087.5,4.9460760216648824e+16
2.884496320956988,2192170217331710.0,5.961153519615094e+16,1212670638006530.0,2244227973248693.5,7712334517199.598,32493517284363.293,1492146796946187.2,5.243011371881625e+16
3.0421862473761276,2193892198502522.5,6.273271964214296e+16,1213623208452825.0,2245990849363382.5,8155361921634.263,34360231202539.45,1577907005130977.8,5.545879078756911e+16
3.2030299723236504,2195465334273549.5,6.591577287760391e+16,1214493440179752.5,2247601345211562.5,8607223139047.124,36264182859954.31,1665378211738147.0,5.854796314020187e+16
3.3670905717701234,2196907620345071.2,6.916197456513229e+16,1215291288099412.8,2249077883862584.0,9068094632675.387,38206116753355.23,1754594605761743.0,6.169882895567738e+16
3.5344323832055258,2198234317067561.8,7.247262435026507e+16,1216025193975446.8,2250436088076183.5,9538156523537.902,40186792837969.14,1845591089115921.5,6.491261271266847e+16
3.7051210308696363,2199458445841283.2,7.584904314526278e+16,1216702361022735.5,2251689288490660.8,10017592621551.068,42206986660443.516,1938403282301525.0,6.819056518832459e+16
3.879223451487029,2200591181855051.0,7.92925742697371e+16,1217328971163734.8,2252848925688457.0,10506590468262.416,44267489540845.11,2033067532415427.2,7.153396357860535e+16
4.0568079205167695,2201642167459404.5,8.280458448204139e+16,1217910358381122.8,2253924871011392.5,11005341388447.541,46369108792108.69,2129620922949496.8,7.494411171205947e+16
4.237944078927105,2202619764194454.5,8.638646492705845e+16,1218451148135262.8,2254925684573709.5,11514040548613.598,48512667968689.4,2228101284985544.5,7.842234033665221e+16
4.422702960505647,2203531256979044.0,9.003963201996491e+16,1218955370318137.0,2255858824300372.5,12032887021008.283,50699007138517.445,2328547209503683.5,8.197000746470414e+16
4.61115701971576,2204383020684272.8,9.37655282810787e+16,1219426551398963.2,2256730816456429.5,12562083852124.596,52928983174001.5,2430998060600061.5,8.558849876491291e+16
4.803380160110075,2205180656899886.0,9.75656231335628e+16,1219867790080997.5,2257547395661365.5,13101838134970.562,55203470059003.03,2535493989465777.5,8.927922799326085e+16
4.9994477633122765,2205929106909157.8,1.0144141367324046e+17,1220281819797304.8,2258313620546940.5,13652361084572.668,57523359209546.914,2642075949019129.0,9.304363745667386e+16
5.199436718578522,2206632745543792.2,1.053944254178705e+17,1220671060629673.5,2259033969841002.5,14213868116327.01,59889559806643.74,2750785709112371.5,9.688319850482077e+16
5.403425452950093,2207295459574239.2,1.0942621304176326e+17,1221037662672791.8,2259712422619419.5,14786578926918.125,62302999140048.3,2861665872255764.0,1.0079941204657408e+17
5.611493962009095,2207920713515938.2,1.1353836110048806e+17,1221383542437132.2,2260352525675151.0,15370717577602.943,64764622962104.625,2974759889817286.0,1.047938090885029e+17
5.823723841249277,2208511605136858.2,1.1773248474954547e+17,1221710413554757.5,2260957450343960.0,15966512579716.277,67275395851075.56,3090112078668245.0,1.0886795129341075e+17
6.040198318074262,2209070912490805.8,1.2201023046018147e+17,1222019812797358.8,2261530040654721.0,16574196982296.13,69836301583534.164,3207767638253785.0,1.1302343155741894e+17
6.261002284435747,2209601133942050.0,1.2637327673498522e+17,1222313122217169.8,2262072854304547.5,17194008461760.867,72448343515535.02,3327772668073834.0,1.1726187460447027e+17
6.486222330124463,2210104522365011.5,1.308233348254738e+17,1222591588065656.5,2262588197670669.5,17826189413594.207,75112544972384.1,3450174185565288.0,1.2158493759742122e+17
6.715946776726952,2210583114480441.8,1.353621494535297e+17,1222856337021793.0,2263078155843319.0,18470987046013.34,77829949646909.47,3575020144379815.5,1.259943107651114e+17
6.950265712261491,2211038756112962.8,1.3999149953827595e+17,1223108390164086.0,2263544618483068.5,19128653475609.527,80601622006192.97,3702359453054899.5,1.3049171804497917e+17
7.18927102650672,2211473124013768.0,1.4471319892975725e+17,1223348675042527.5,2263989302161816.5,19799445824961.945,83428647706771.72,3832241994077880.5,1.3507891774092962e+17
7.433056447036854,2211887744779146.8,1.4952909715061123e+17,1223578036143994.0,2264413769730590.5,20483626322234.375,86312134018358.28,3964718643344601.0,1.3975770319627226e+17
7.681717575977592,2212284011304112.8,1.5444108014677206e+17,1223797243994108.2,2264819447163906.5,21181462402771.1,89253210256149.9,4099841290015799.5,1.445299034816352e+17
7.935351927497144,2212663197136314.8,1.5945107104813078e+17,1224007003097586.2,2265207638254595.0,21893226812713.965,92253028221831.9,4237662856775354.0,1.4939738409783258e+17
8.194058966047088,2213026469035136.5,1.645610309399744e+17,1224207958885697.8,2265579537471116.5,22619197714666.367,95312762653386.62,4378237320495559.5,1.5436204769371894e+17
8.45794014536803,2213374897991367.5,1.6977295964595478e+17,1224400703812183.2,2265936241238995.0,23359658795434.707,98433611683845.92,4521619733315307.0,1.5942583479911747e+17
8.72709894827539,2213709468922414.0,1.750888965232665e+17,1224585782716453.5,2266278757866217.0,24114899375879.656,101616797309129.56,4667866244137644.0,1.645907245729385e+17
9.0016409272409,2214031089224369.5,1.805109212706655e+17,1224763697554467.0,2266608016298434.0,24885214522912.293,104863565865127.05,4817034120553748.0,1.6985873556664643e+17
9.281673745785717,2214340596334609.0,1.8604115474991213e+17,1224934911582213.2,2266924873861152.5,25670905163672.68,108175188514188.11,4969181771200771.0,1.7523192650325552e+17
9.567307220701432,2214638764435459.5,1.916817598211885e+17,1225099853064081.2,2267230123122605.5,26472278201929.91,111552961741194.73,5124368768561413.0,1.8071239707206192e+17
9.85865336511546,2214926310410267.5,1.9743494219301184e+17,1225258918567639.0,2267524497991257.0,27289646636743.848,114998207859394.48,5282655872213376.0,1.8630228873933312e+17
10.155826432417769,2215203899147008.0,2.033029512871406e+17,1225412475897517.2,2267808679145389.5,28123329683431.312,118512275526182.72,5444105052537223.0,1.9200378557520368e+17
10.458942961066125,2215472148271114.2,2.0928808111895098e+17,1225560866713510.0,2268083298878307.0,28973652896878.97,122096540269023.77,5608779514891450.0,1.9781911509703088e+17
10.768121820287448,2215731632377663.2,2.1539267119374714e+17,1225704408871761.5,2268348945431045.0,29840948297248.598,125752405021710.8,5776743724263640.0,2.0375054912948422e+17
11.083484256693197,2215982886823507.8,2.2161910741945162e+17,1225843398522503.0,2268606166874556.5,30725554498118.902,129481300671163.9,5948063430407160.0,2.0980040468165472e+17
11.405153941827061,2216226411131675.8,2.2796982303612333e+17,1225978111993303.2,2268855474594948.5,31627816837111.77,133284686614976.75,6122805693472767.0,2.1597104484147875e+17
11.733257020663602,2216462672053406.2,2.3444729956272925e+17,1226108807482950.8,2269097346428262.0,32548087509049.484,137164051329920.56,6301038910144815.0,2.2226487968778074e+17
12.067922161076874,2216692106327274.2,2.4105406776160266e+17,1226235726587731.0,2269332229485104.0,33486725701692.07,141120912951623.2,6482832840292190.0,2.2868436722025728e+17
12.409280604298411,2216915123169708.8,2.4779270862101117e+17,1226359095679156.5,2269560542700309.0,34444097734103.855,145156819865644.94,6668258634143822.0,2.352320143077186e+17
12.75746621638438,2217132106526916.2,2.5466585435625565e+17,1226479127149684.2,2269782679138366.0,35420577197699.984,149273351310174.56,6857388859999328.0,2.4191037765493338e+17
13.112615540712067,2217343417114431.5,2.6167618942972253e+17,1226596020540960.8,2269999008081377.0,36416545100023.95,153472117990574.8,7050297532485371.0,2.487220647884098e+17
13.474867851526309,2217549394267277.2,2.688264515903109e+17,1226709963567306.5,2270209876923176.0,37432390011308.68,157754762706016.06,7247060141368318.0,2.5566973506146733e+17
13.844365208556836,2217750357620975.2,2.7611943293265526e+17,1226821133045609.5,2270415612890256.5,38468508213873.87,162122960988427.88,7447753680934316.0,2.6275610067896192e+17
14.221252512727972,2217946608641171.0,2.8355798097657142e+17,1226929695741492.2,2270616524607717.5,39525303854414.57,166578421754021.84,7652456679948030.0,2.6998392774202445e+17
14.605677562982532,2218138432017567.5,2.9114499976714765e+17,1227035809140417.2,2270812903526306.0,40603189099234.95,171122887967625.34,7861249232201202.0,2.7735603731319533e+17
14.997791114242183,2218326096936063.2,2.988834509959173e+17,1227139622151410.0,2271005025224767.0,41702584292484.54,175758137320082.44,8074213027662988.0,2.848753065023298e+17
15.397746936527026,2218509858241346.2,3.067763551435403e+17,1227241275750176.0,2271193150600047.0,42823918117452.5,180485982918976.84,8291431384243585.0,2.925446695736689e+17
15.805701875257567,2218689957500847.8,3.1482679264443686e+17,1227340903567680.8,2271377526956511.0,43967627760979.14,185308273992941.2,8512989280183440.0,3.003671190744743e+17
16.221815912762718,2218866623979751.8,3.2303790507381325e+17,1227438632429488.2,2271558389004121.0,45134159081043.09,190226896609815.5,8738973387080237.0,3.0834570698562854e+17
16.64625223101797,2219040075535635.5,3.314128963575297e+17,1227534582850676.0,2271735959774304.5,46323966777583.56,195243774408929.8,8969472103566135.0,3.164835458946165e+17
17.079177275638333,2219210519440459.5,3.399550340052645e+17,1227628869490535.0,2271910451461476.0,47537514566619.51,200360869347786.0,9204575589648102.0,3.247838101913097e+17
17.5207608211511,2219378153136743.8,3.486676503674291e+17,1227721601570881.5,2272082066197172.0,48775275357727.05,205580182463418.12,9444375801724290.0,3.3324973728697875e+17
17.97117603757412,2219543164934063.0,3.575541439163066e+17,1227812883261340.0,2272250996763091.0,50037731434938.36,210903754648722.88,9688966528289608.0,3.418846288569751e+17
18.430599558325603,2219705734651364.0,3.666179805518821e+17,1227902814034669.8,2272417427248640.5,51325374641126.016,216333667444047.1,9938443426344066.0,3.506918521075182e+17
18.899211549492115,2219866034210014.0,3.7586269493284397e+17,1227991488994821.5,2272581533658112.5,52638706565937.68,221872043844333.44,1.0192904058517604e+16,3.596748410670534e+17
19.37719578048196,2220024228182031.2,3.85291891833245e+17,1228078999180207.0,2272743484471892.5,53978238737347.66,227521049122125.8,1.0452447930925304e+16,3.688370979026262e+17
19.864739696091597,2220180474297442.5,3.949092475253086e+17,1228165431844375.0,2272903441165886.5,55344492816892.44,233282891666740.44,1.0717176531767264e+16,3.781821942617499e+17
20.36203449001343,2220334923914390.2,4.047185111888949e+17,1228250870716050.5,2273061558692803.0,56738000798658.64,239159823839921.8,1.0987193370687686e+16,3.877137726402452e+17
20.869275179813698,2220487722455195.0,4.147235063481191e+17,1228335396240367.2,2273217985928538.5,58159305212092.43,245154142848299.28,1.1262604018907826e+16,3.974355477765268e+17
21.38666068340997,2220639009811312.0,4.2492813233565306e+17,1228419085802873.0,2273372866086782.5,59608959328701.914,251268191632970.22,1.1543516150147976e+16,4.073513080728423e+17
21.91439389707817,2220788920719804.2,4.353363657852179e+17,1228502013937801.2,2273526337104414.5,61087527372723.4,257504359776544.34,1.1830039582353686e+16,4.174649170439532e+17
22.452681775019734,2220937585113743.5,4.4595226215282355e+17,1228584252521892.8,2273678532000239.5,62595584735825.06,263865084427983.84,1.2122286320241988e+16,4.2778031479378195e+17
23.00173541052013,2221085128448693.2,4.567799572672664e+17,1228665870955017.2,2273829579209210.0,64133718195921.93,270352851245584.16,1.2420370598683184e+16,4.3830151952052883e+17
23.561770118730532,2221231672007243.5,4.678236689104642e+17,1228746936328616.2,2273979602894194.5,65702526140177.36,276970195358446.97,1.2724408926934772e+16,4.4903262905080045e+17
24.133005521105144,2221377333183385.5,4.7908769842816506e+17,1228827513583031.2,2274128723237124.0,67302618792267.805,283719702346800.3,1.3034520133743818e+16,4.599778224032787e+17
24.715665631527248,2221522225748353.5,4.9057643237161043e+17,1228907665654550.0,2274277056711127.5,68934618443988.89,290604009241529.4,1.3350825413334384e+16,4.7114136138247616e+17
25.309978944157795,2221666460099401.5,5.0229434417071885e+17,1228987453613043.5,2274424716335225.5,70599159691280.52,297625805543288.2,1.3673448372297442e+16,4.825275922031392e+17
25.91617852304095,2221810143492897.8,5.1424599583938694e+17,1229066936790885.5,2274571811912952.5,72296889674753.17,304787834261568.9,1.4002515077400438e+16,4.941409471458531e+17
26.53450209350177,2221953380262927.0,5.2643603971348934e+17,1229146172903903.0,2274718450256168.0,74028468324794.78,312092892974111.7,1.4338154104334192e+16,5.059859462444333e+17
27.165192135371807,2222096272026554.8,5.388692202221991e+17,1229225218164908.0,2274864735395174.0,75794568611343.7,319543834907042.44,1.46804965874155e+16,5.180671990056783e+17
27.808495978079243,2222238917876766.2,5.5155037569322003e+17,1229304127390438.5,2275010768776252.0,77595876798407.7,327143570036143.8,1.50296762702634e+16,5.3038940616207866e+17
28.464665897640828,2222381414564048.0,5.6448444019258003e+17,1229382954101198.0,2275156649447545.0,79433092703419.2,334895066209654.25,1.5385829557468094e+16,5.4295736145808595e+17
29.133959215593645,2222523856667432.0,5.776764453995965e+17,1229461750616679.5,2275302474234184.0,81306929961509.64,342801350293013.5,1.574909556727147e+16,5.5577595347055245e+17
29.816638399905518,2222666336755845.2,5.911315225176755e+17,1229540568144421.5,2275448337903442.5,83218116294792.69,350865509335971.94,1.611961618527869e+16,5.688501674639623e+17
30.51297116790363,2222808945540447.5,6.048549042215835e+17,1229619456864279.2,2275594333320703.0,85167393786745.58,359090691762490.4,1.6497536119220568e+16,5.821850872810884e+17
31.223230591261704,2222951772018662.2,6.188519266418707e+17,1229698466008093.8,2275740551596915.0,87155519161777.98,367480108583864.44,1.6883002954786672e+16,5.957858972697148e+17
31.947695203086937,2223094903610483.0,6.331280313871066e+17,1229777643935104.0,2275887082228146.5,89183264070083.12,376037034635516.2,1.7276167212550038e+16,6.096578842460768e+17
32.686649107148675,2223238426287658.0,6.476887676046218e+17,1229857038203397.0,2276034013227803.0,91251415377860.62,384764809837904.2,1.767718240600391e+16,6.23806439495683e+17
33.44038208929165,2223382424696230.5,6.625397940804521e+17,1229936695637711.8,2276181431252109.5,93360775463009.78,393666840482008.4,1.808620510073191e+16,6.38237060812189e+17
34.20918973107749,2223526982272968.0,6.776868813791822e+17,1230016662393825.5,2276329421719293.0,95512162516386.62,402746600539857.7,1.8503394974733264e+16,6.529553545750068e+17
34.993373525699035,2223672181356072.5,6.931359140244197e+17,1230096984019818.8,2276478068922926.0,97706410848724.1,412007633000574.4,1.8928914879925136e+16,6.679670378663462e+17
35.793240996213015,2223818103290627.8,7.088928927206154e+17,1230177705514387.5,2276627456139870.5,99944371203311.9,421453551232415.9,1.936293090484412e+16,6.832779406283899e+17
36.60910581613728,2223964828529143.2,7.249639366169755e+17,1230258871382475.2,2276777665733216.5,102226911074540.66,431088040371313.4,1.9805612438570076e+16,6.988940078613157e+17
37.44128793246003,2224112436727533.2,7.413552856142236e+17,1230340525688360.5,2276928779250538.5,104554915032406.0,440914858736394.8,2.025713223589529e+16,7.148213018628923e+17
38.29011369110923,2224261006836889.0,7.580733027149435e+17,1230422712106427.8,2277080877517850.5,106929285053082.03,450937839273015.0,2.071766648376254e+16,7.310660045103946e+17
39.15591596493141,2224410617191329.5,7.75124476418331e+17,1230505473969755.5,2277234040729528.5,109350940855664.12,461160891023801.0,2.1187394868996104e+16,7.47634419585565e+17
40.03903428423004,2224561345592199.0,7.925154231600732e+17,1230588854316715.5,2277388348534535.5,111820820245189.38,471588000628242.9,2.166650064735029e+16,7.645329751434065e+17
40.93981496991464,2224713269388912.2,8.102528897982075e+17,1230672895935661.2,2277543880119151.5,114339879462041.42,482223233851367.94,2.2155170713900164e+16,7.817682259255497e+17
