t(s),Total solute volume 1,Total retention volume 1,Total 1 volume 1,Total 2 volume 1,Total 3 volume 1,Total 4 volume 1,Total 5 volume 1,Total 6 volume 1
0.1,878184692305091.0,1002349173156223.1,60489917771387.09,63674563079745.664,0.0,0.0,0.0,0.0
0.202,1322686304005478.0,1510669614578877.0,91107470431367.78,95904054889862.1,2038885098.1564853,3607082234.877967,46227224369.96037,919912060467.8046
0.30604000000000003,1660824158150325.2,1898109012205324.5,114398620023925.77,120421426323042.72,5171306913.470235,9148797858.248718,117248307223.672,2333239296032.6343
0.41216080000000005,1946506918501535.2,2226095549281498.0,134076629520986.45,141135434689428.56,9182239474.593307,16244739231.931322,208187966880.0761,4142951623967.4985
0.5204040160000001,2199916000390928.8,2517618334688539.0,151531607600211.66,159509374489141.34,13975785113.765303,24725253612.774956,316871971476.11615,6305779198050.482
0.6308120963200001,2431106324516907.5,2784129218442943.5,167456143569829.22,176272298159730.5,19500096684.231422,34498619864.09478,442124847171.6349,8798328632755.074
0.7434283382464002,2645921637881516.5,3032283864074927.5,182252758425424.47,191847918439586.25,25725135897.415096,45511699878.263435,583265591965.015,11607046900659.527
0.8582969050113283,2848104998839449.5,3266346272925684.5,196179276397630.47,206507633372213.97,32633531925.70202,57733766202.96472,739900413710.2585,14724096604553.1
0.9754628431115548,3040220707398644.0,3489238916054325.0,209412328095388.88,220437372734437.44,40216075022.303604,71148529654.98265,911820557778.6527,18145322663402.402
1.094972099973786,3224114491791664.5,3703066795081228.5,222079048448545.22,233770964797956.78,48469219004.09062,85749720889.15767,1098945681487.5092,21869125421684.406
1.2168715419732616,3401166165556871.5,3909405105773789.0,234274479887661.97,246608455743887.75,57393578893.356514,101538432539.92044,1301289791639.0183,25895782782301.426
1.3412089728127268,3572438656769334.0,4109468880607606.5,246071837571856.5,259026915329652.4,66992970942.263214,118521420912.02632,1518939479420.4011,30227017065486.492
1.4680331522689813,3738770982195944.0,4304218802172719.5,257528913507497.66,271087178168805.28,77273770329.54218,136709969677.06712,1752039357836.8997,34865705202629.055
1.597393815314361,3900838926999706.0,4494430249920787.0,268692256204682.75,282838243436163.5,88244465709.41025,156119101828.7193,2000781962344.6711,39815677750353.58
1.729341691620648,4059196144685642.5,4680740059666012.0,279600001667542.0,294320254902799.1,99915341420.82814,176767017486.98828,2265400545909.38,45081575505203.15
1.863928525453061,4214302874085529.5,4863679190298452.0,290283851438339.4,305566583119306.6,112298245655.07771,198674683774.98807,2546163822989.1616,50668744902859.37
2.001207095962122,4366546541563061.0,5043696156862694.0,300770491690416.2,316605319220498.3,125406418362.97595,221865530383.951,2843372067992.0605,56583160371982.055
2.1412312378813647,4516256881613313.0,5221174227332320.0,311082634744657.6,327460371275165.7,139254361820.96432,246365220608.34827,3157354180940.1406,62831365935810.69
2.284055862638992,4663717256202373.0,5396444295539156.0,321239798752779.44,338152285017766.3,153857742385.51306,272201477558.2502,3488465460271.7905,69420430886007.94
2.4297369798917723,4809173277046128.0,5569794686807162.0,331258901605350.0,348698869024248.6,169233315528.25452,299403951559.3842,3837085903496.045,76357915960844.61
2.578331719489608,4952839475290058.0,5741478743352228.0,341154720343562.3,359115678310725.94,185398868574.4176,328004118873.75836,4203618909244.0146,83651847511199.22
2.7298983538794,5094904532021099.0,5911720773558469.0,350940251440202.25,369416393582349.75,202373177130.73447,358035204639.9039,4588490289713.946,91310697843336.73
2.884496320956988,5235535430923122.0,6080720776125987.0,360626996837187.3,379613122330026.5,220175972262.29752,389532124830.63635,4992147526840.708,99343370411713.56
3.0421862473761276,5374880777205004.0,6248658234415631.0,370225192557589.6,389716639483790.44,238827915626.08887,422531442814.00366,5415059343205.149,107759206467592.7
3.2030299723236504,5513073560439801.0,6415695190953925.0,379743999003047.6,399736587706717.8,258350584516.31082,457071340829.1124,5857714827574.397,116567907051450.0
3.3670905717701234,5650233276719748.0,6581978769823157.0,389191647142336.7,409681631313611.56,278766456568.5991,493191596092.0936,6320623890078.013,125779632704716.31
3.5344323832055258,5786467814998550.0,6747643256018355.0,398575568434929.6,419559593012028.9,300098905095.2734,530933570489.8035,6804316623843.781,135404930473416.53
3.7051210308696363,5921874959928459.0,6912811826814296.0,407902498349612.25,429377562876643.6,322372195347.01526,570340204519.6339,7309343353643.792,145454749906070.1
3.879223451487029,6056543663343969.0,7077598003098539.0,417178563945089.9,439141990540745.7,345611484666.17554,611456017595.617,7836274639849.31,155940443126627.3
4.0568079205167695,6190555116087726.0,7242106874160139.0,426409357698033.75,448858762911168.06,369842825456.96857,654327113339.6749,8385701346275.047,166873766178140.56
4.237944078927105,6323983657000853.0,7406436137778609.0,435600000114908.8,458533270076465.44,395093170586.6429,699001189175.3698,8958234763165.018,178266881463468.28
4.422702960505647,6456897548145483.0,7570676988642289.0,444755193129793.94,468170461515994.8,421390380905.5208,745527549672.1063,9554506778244.643,190132361142186.7
4.61115701971576,6589359639395927.0,7734914881382222.0,453879265881845.7,477774894287455.5,448763234631.84174,793957123190.3787,10175170090080.186,202483191369095.6
4.803380160110075,6721427940956779.0,7899230189305235.0,462976214150701.3,487350774538469.9,477241438393.2712,844342481459.9292,10820898459027.36,215332777280397.7
4.9994477633122765,6853156118800862.0,8063698775856380.0,472049734482563.4,496901993429320.56,506855639753.6058,896737861787.5962,11492386991883.43,228694948650214.38
5.199436718578522,6984593925221873.0,8228392492662979.0,481103253846936.5,506432158351038.56,537637441082.71625,951199191643.7747,12190352457024.92,242583966153381.94
5.403425452950093,7115787574483374.0,8393379615496225.0,490139955511571.44,515944620162606.2,569619414651.586,1007784115418.615,12915533627354.373,257014528181241.2
5.611493962009095,7246780071783162.0,8558725227484806.0,499162801701733.44,525442497043173.56,602835118853.742,1066552023173.4357,13668691648819.248,272001778165887.38
5.823723841249277,7377611502338421.0,8724491557308644.0,508174553512574.06,534928695452773.1,637319115470.2555,1127564081240.9434,14450610432627.646,287561312375539.7
6.040198318074262,7508319286256793.0,8890738278805461.0,517177788464812.06,544405928612260.5,673106987908.5785,1190883264551.0312,15262097069580.154,303709188149551.8
6.261002284435747,7638938403932760.0,9057522777371674.0,526174916030179.0,553876732846137.4,710235360356.2686,1256574390577.9666,16103982265184.352,320461932546503.56
6.486222330124463,7769501595952966.0,9224900387680974.0,535168191401023.44,563343482077095.4,748741917799.6472,1324704154820.7654,16977120794420.385,337836551382838.06
6.715946776726952,7900039540874454.0,9392924606539132.0,544159727735787.9,572808400716178.4,788665426864.9542,1395341167741.7327,17882391975197.55,355850538642896.7
6.950265712261491,8030581013727834.0,9561647284114282.0,553151507076810.56,582273575155391.8,830045757445.7084,1468555993099.255,18820700159681.07,374521886244022.1
7.18927102650672,8161153027674300.0,9731118796299144.0,562145390107745.4,591740964038812.6,872923905085.4098,1544421187620.227,19792975242791.594,393869094142783.2
7.433056447036854,8291780960891983.0,9901388200561978.0,571143124893577.6,601212407462760.8,917342014088.969,1623011341965.2773,20800173187275.305,413911180770355.44
7.681717575977592,8422488670472696.0,1.0072503377308614e+16,580146354725908.0,610689635234107.8,963343401340.1014,1704403122946.6987,21843276564831.938,434667693786780.94
7.935351927497144,8553298594862421.0,1.0244511158495344e+16,589156625179108.8,620174274297922.4,1010972580804.9962,1788675316964.359,22923295112855.824,456158721145268.6
8.194058966047088,8684231846169739.0,1.0417457444997412e+16,598175390468594.6,629667855430493.0,1060275288705.2897,1875908874629.7969,24041266306407.723,478404902458854.1
8.45794014536803,8815308293490354.0,1.059138731403536e+16,607204019190265.2,639171819280933.9,1111298509345.5803,1966186956552.5315,25198255945085.887,501427440662823.3
8.72709894827539,8946546638245953.0,1.0766345117793088e+16,616243799509894.8,648687521833791.8,1164090501582.6887,2059594980266.1658,26395358754507.113,525248113967093.0
9.0016409272409,9077964482407564.0,1.0942374574215518e+16,625295943862394.4,658216239355696.2,1218700825925.3794,2156220668274.5315,27633699002147.906,549889288093535.44
9.281673745785717,9209578390364378.0,1.1119518850849664e+16,634361593213391.5,667759172881328.0,1275180372254.7725,2256154097200.7773,28914431127323.605,575373928793796.1
9.567307220701432,9341403945106426.0,1.1297820642487538e+16,643441820929111.8,677317452286998.5,1333581388156.6704,2359487748024.0605,30238740385111.14,601725614643717.5
9.85865336511546,9473455799307078.0,1.1477322243276764e+16,652537636294977.4,686892139994541.2,1393957507858.096,2466316557390.522,31607843504044.664,628968550110883.0
10.155826432417769,9605747721824054.0,1.165806561388697e+16,661649987718634.8,696484234342939.9,1456363781761.043,2576737969986.336,33022989357426.777,657127578892168.1
10.458942961066125,9738292640075946.0,1.1840092444250846e+16,670779765648864.9,706094672660917.9,1520856706567.2341,2690851991962.1475,34485459648119.668,686228197518488.8
10.768121820287448,9871102678699842.0,1.2023444212340386e+16,679927805238355.4,715724334069909.0,1587494255988.0728,2808761245398.778,35996569606686.57,716296569224200.2
11.083484256693197,1.000418919485075e+16,1.2208162239386718e+16,689094888775131.8,725374042043491.6,1656335912034.5278,2930571023805.3174,37557668702769.266,747359538078747.9
11.405153941827061,1.0137562810462964e+16,1.2394287741907824e+16,698281747904770.1,735044566746576.8,1727442696881.9988,3056389348640.9453,39170141369591.47,779444643378392.6
11.733257020663602,1.0271233441760276e+16,1.2581861880867942e+16,707489065663038.5,744736627175107.6,1800877205305.4387,3186327026852.5513,40835407741486.98,812580134295889.0
12.067922161076874,1.0405210326270868e+16,1.2770925808260016e+16,716717478336739.0,754450893114818.1,1876703637680.2808,3320497709420.485,42554924404354.19,846794984786158.9
12.409280604298411,1.0539502047576744e+16,1.296152071137031e+16,725967577168436.9,764187986935750.8,1954987833544.7983,3459017950905.1094,44330185158942.59,882118908745991.2
12.75746621638438,1.0674116558003922e+16,1.3153687854959204e+16,735239909919382.6,773948485237452.4,2035797305719.6199,3602007269986.75,46162721796879.2,918582375425882.2
13.112615540712067,1.080906119943934e+16,1.3347468621568554e+16,744534982303408.5,783732920358346.8,2119201274980.1313,3749588210992.1157,48054104889342.39,956216625092132.9
13.474867851526309,1.094434272244253e+16,1.3542904550144632e+16,753853259303333.5,793541781761458.1,2205270705277.5933,3901886406399.819,50005944588293.38,995053684937324.4
13.844365208556836,1.1079967303803214e+16,1.374003737314827e+16,763195166380341.4,803375517307474.6,2294078339504.565,4059030640317.8174,52019891440170.24,1035126385237251.9
14.221252512727972,1.1215940562682984e+16,1.3938909052307022e+16,772561090585851.8,813234534425115.8,2385698735800.3706,4221152912925.5093,54097637211954.09,1076468375752401.5
14.605677562982532,1.1352267575465708e+16,1.413956181314975e+16,781951381584402.2,823119201187909.2,2480208304392.0234,4388388505872.8774,56240915729508.0,1119114142371965.0
14.997791114242183,1.1488952889430728e+16,1.4342038178451804e+16,791366352595471.2,833029847305577.8,2577685344966.145,4560876048628.918,58451503728091.41,1163099023998369.2
15.397746936527026,1.1626000535352104e+16,1.4546381000706524e+16,800806281261341.5,842966765037591.0,2678210084566.953,4738757585771.481,60731221714950.125,1208459229670199.8
15.805701875257567,1.176341403911987e+16,1.4752633493729626e+16,810271410447545.6,852930210035767.0,2781864716015.5796,4922178645210.2705,63081934843871.805,1255231855921379.5
16.221815912762718,1.1901196432468916e+16,1.49608392634931e+16,819761948981908.9,862920402122206.4,2888733436845.442,5111288307334.191,65505553801602.484,1303454904374276.5
16.64625223101797,1.203935026289666e+16,1.5171042338276976e+16,829278072337670.1,872937526008387.5,2998902488748.5522,5306239275074.725,68004035706008.375,1353167299564461.5
17.079177275638333,1.2177877602842138e+16,1.5383287198221554e+16,838819923265747.6,882981731960723.4,3112460197527.172,5507187944875.401,70579385015865.81,1404408906994658.5
17.5207608211511,1.2316780058194878e+16,1.5597618804352824e+16,848387612380829.0,893053136417499.1,3229497013545.1016,5714294478558.507,73233654452157.77,1457220551415357.5
17.97117603757412,1.2456058776195648e+16,1.5814082627152012e+16,857981218705587.2,903151822561741.4,3350105552672.8545,5927722876078.655,75968945930750.03,1511644035329502.0
18.430599558325603,1.259571445278769e+16,1.6032724674730634e+16,867600790177035.0,913277840854239.5,3474380637720.3633,6147641049153.292,78787411506317.31,1567722157718491.5
18.899211549492115,1.2735747339471668e+16,1.625359152067122e+16,877246344118705.8,923431209530573.0,3602419340351.0967,6374220895759.137,81691254327380.66,1625498732986758.5
19.37719578048196,1.287615724971506e+16,1.6476730331586244e+16,886917867682118.9,933611915065826.4,3734321023470.971,6607638375484.047,84682729602320.95,1685018610121935.8
19.864739696091597,1.3016943564961776e+16,1.6702188894446604e+16,896615318260743.9,943819912610343.5,3870187384085.18,6848073585722.535,87764145576218.77,1746327692067703.2
20.36203449001343,1.3158105240286134e+16,1.6930015643725096e+16,906338623879434.2,954055126399676.8,4010122496616.204,7095710838703.651,90937864518373.98,1809472955306157.5
20.869275179813698,1.3299640809731436e+16,1.7160259688398188e+16,916087683562176.0,964317450141675.1,4154232856675.578,7350738739338.8955,94206303720352.2,1874502469646505.8
21.38666068340997,1.3441548391371476e+16,1.7392970838846126e+16,925862367680696.2,974606747383460.5,4302627425282.1636,7613350263877.862,97571936504398.48,1941465418216899.8
21.91439389707817,1.3583825692129896e+16,1.7628199633688048e+16,935662518286445.2,984922851860886.0,4455417673519.265,7883742839359.015,101037293242053.5,2010412117655901.8
22.452681775019734,1.3726470012391326e+16,1.786599736658693e+16,945487949428211.9,995265567832869.4,4612717627622.706,8162118423842.325,104604962382811.5,2081394038500228.5
23.00173541052013,1.3869478250435248e+16,1.810641611305525e+16,955338447457518.4,1005634670402877.5,4774643914491.966,8448683587410.352,108277591492641.38,2154463825765084.0
23.561770118730532,1.4012846906721508e+16,1.834950875729231e+16,965213771323831.8,1016029905829658.5,4941315807615.896,8743649593923.957,112057888302196.45,2229675319713525.0
24.133005521105144,1.415657208805545e+16,1.8595329019078596e+16,975113652861433.4,1026450991829232.1,5112855273404.509,9047232483518.494,115948621764533.48,2307083576810965.5
24.715665631527248,1.4300649511657172e+16,1.8843931480753724e+16,985037797069733.4,1036897617869953.0,5289387017918.259,9359653155825.39,119952623122147.19,2386744890860987.5
25.309978944157795,1.4445074509159392e+16,1.9095371614299796e+16,994985882388641.5,1047369445462389.1,5471038533985.267,9681137453904.475,124072786983133.61,2468716814318382.0
25.91617852304095,1.458984207850191e+16,1.9349705807067316e+16,1004957564272257.0,1057866111919052.6,5657940167100.636,10011916279538.074,128312072338651.97,2553058123588849.5
26.53450209350177,1.473494669584939e+16,1.960699139368998e+16,1014952462236954.6,1068387216728993.9,5850225090031.34,10352225556452.44,132673503925535.25,2639829064302605.5
27.165192135371807,1.488038260790072e+16,1.9867286678901732e+16,1024970179990884.8,1078932342734457.9,6048029460435.627,10702306498590.816,137160172928485.95,2729091039388146.5
27.808495978079243,1.5026143643206488e+16,2.0130650966863664e+16,1035010292440696.9,1089501042461981.4,6251492396806.818,11062405575683.75,141775238354791.6,2820906852427205.0
28.464665897640828,1.5172223264357136e+16,2.0397144589033504e+16,1045072349285485.0,1100092841903417.9,6460756045470.155,11432774630631.14,146521928087657.3,2915340674723709.0
29.133959215593645,1.531861457195074e+16,2.066682893223842e+16,1055155875290068.9,1110707240803619.4,6675965629813.96,11813670967336.967,151403540012523.12,3012458067584320.0
29.816638399905518,1.546531030860696e+16,2.093976646695245e+16,1065260370561496.5,1121343712951494.4,6897269499832.009,12205357439126.56,156423443150861.7,3112326004742675.5
30.51297116790363,1.5612302863037324e+16,2.121602077578314e+16,1075385310829394.9,1132001706475119.0,7124819181963.556,12608102537721.916,161585078801166.3,3215012894920412.0
31.223230591261704,1.5759584274178958e+16,2.1495656582168644e+16,1085530147730703.8,1142680644141462.8,7358769429215.662,13022180482750.604,166891961686799.5,3320588604518777.5
31.947695203086937,1.5907146235397562e+16,2.1778739779284548e+16,1095694309099189.0,1153379923661130.8,7599278271551.445,13447871311760.174,172347681110346.84,3429124480433031.0
32.686649107148675,1.6054980098763902e+16,2.2065337459156028e+16,1105877199260007.8,1164098917998458.2,7846507066527.136,13885460970708.354,177955902114103.94,3540693372982335.5
33.44038208929165,1.6203076879406052e+16,2.2355517941970124e+16,1116078199329484.5,1174836975687050.0,8100620550158.195,14335241404896.88,183720366646278.53,3655369658946217.5
34.20918973107749,1.6351427259937078e+16,2.2649350805577284e+16,1126296667520094.5,1185593421150838.5,8361786887993.849,14797510650312.738,189644894732445.38,3773229264698513.0
34.993373525699035,1.6500021594957122e+16,2.2946906915170228e+16,1136531939450592.0,1196367555030515.0,8630177726377.186,15272572925338.621,195733385651765.8,3894349689428509.5
35.793240996213015,1.6648849915626758e+16,2.32482584531251e+16,1146783328460982.8,1207158654515112.2,8905968243865.59,15760738722789.068,201989819117425.0,4018810028438172.0
36.60910581613728,1.6797901934305568e+16,2.355347894898509e+16,1157050125932083.2,1217965973678364.2,9189337202784.58,16262324902226.629,208418256460679.66,4146690996503389.0
37.44128793246003,1.6947167049250898e+16,2.386264330956647e+16,1167331601609123.2,1228788743819368.2,9480467000885.006,16777654782505.994,215022841817883.53,4278074951285788.5
38.29011369110923,1.7096634349367288e+16,2.417582784916139e+16,1177627003928936.0,1239626173806973.2,9779543723071.31,17307058234491.717,221807803319762.12,4413045916780900.0
39.15591596493141,1.724629261899882e+16,2.4493110319812148e+16,1187935560350028.5,1250477450427246.0,10086757193165.861,17850871773887.895,228777454282174.66,4551689606786820.0
40.03903428423004,1.739613034275301e+16,2.4814569941624876e+16,1198256477684855.2,1261341738733247.0,10402301025671.12,18409438654115.598,235936194397525.28,4694093448376490.0
40.93981496991464,1.754613571034647e+16,2.5140287433094348e+16,1208588942433609.2,1272218182396365.2,10726372677488.645,18983108959166.355,243288510925917.2,4840346605355312.0
41.85861126931294,1.7696296621460038e+16,2.547034504140233e+16,1218932121118623.0,1283105904058353.0,11059173499551.504,19572239696356.82,250838979885083.88,4990540001684387.0
42.7957834946992,1.7846600690592796e+16,2.5804826572658612e+16,1229285160618738.5,1294004005683281.5,11400908788322.23,20177194888902.84,258592267238054.47,5144766344848479.0
43.751699164593184,1.7997035251903224e+16,2.6143817422043708e+16,1239647188502752.2,1304911568908547.2,11751787837107.273,20798345668227.168,266553130077461.84,5303120149146392.0
44.72673314788505,1.8147587364026932e+16,2.6487404603820708e+16,1250017313361275.2,1315827655394210.2,12112023987134.389,21436070365909.215,274726417805310.16,5465697758879965.0
