t(s),Total solute volume 1,Total retention volume 1,Total 1 volume 1,Total 2 volume 1,Total 3 volume 1,Total 4 volume 1,Total 5 volume 1,Total 6 volume 1
0.1,1063829490026819.8,1368988609462191.8,135960145783138.03,169198973652234.8,0.0,0.0,0.0,0.0
0.202,1602180684934612.2,2061828603679027.5,204762814485230.34,254822163842815.38,54457196.053964436,124642446.26958565,2350175452.0972686,60411141276.01878
0.30604000000000003,2012327601692265.0,2589722786815148.0,257180646009538.47,320054835004032.56,138161438.98379925,316226144.1985712,5962638527.781172,153287083204.4367
0.41216080000000005,2359260422794402.0,3036297148737118.5,301519553375034.06,375233488351391.6,245405177.45192105,561687480.0511781,10591026028.88987,272286097598.5078
0.5204040160000001,2667357084546453.0,3432919498019539.0,340895099618033.75,424235363756350.94,373654477.9922244,855226733.5297877,16125973710.111477,414595243782.6794
0.6308120963200001,2948767511735153.5,3795223389500848.5,376860076403016.3,468992871365645.06,521550148.7300345,1193732960.0155573,22508820032.932148,578705893893.7667
0.7434283382464002,3210554331657369.5,4132296464209324.0,410317105676924.1,510629301466346.0,688315169.594512,1575427701.7688186,29706029666.07577,763755636143.9475
0.8582969050113283,3457242269768546.5,4449960856686043.0,441844458998323.75,549864298450656.3,873511206.3468355,1999307691.8982348,37698684596.64503,969257965028.4304
0.9754628431115548,3691932044297752.5,4752206471158193.0,471838416136964.0,587191022511502.0,1076918642.8229225,2464870269.695146,46477306392.51656,1194969116669.2563
1.094972099973786,3916856407305672.5,5041906445961120.0,500584328552319.2,622964586352968.5,1298470144.6659768,2971961319.9899564,56038988877.16306,1440814329822.9966
1.2168715419732616,4133685428269039.0,5321209961456119.0,528295635421479.75,657450609654733.5,1538210740.349367,3520683905.8263474,66385675274.047676,1706843540944.7532
1.3412089728127268,4343706558836297.5,5591773926853050.0,555136876378363.5,690853857846572.4,1796272354.6014132,4111339980.0809617,77523059103.22992,1993203120377.7942
1.4680331522689813,4547936963349997.0,5854907513046966.0,581238047643595.8,723336107950467.5,2072856807.2556434,4744391472.914618,89459850436.17833,2300117004183.894
1.597393815314361,4747196827315481.0,6111666476005058.0,606703971035472.0,755027808078791.8,2368224059.0019383,5420433388.431728,102207268600.16951,2627873649262.933
1.729341691620648,4942159008230254.0,6362917040264670.0,631620639473740.5,786035974253961.5,2682683861.170329,6140174692.554636,115778681796.06651,2976816766370.857
1.863928525453061,5133383725240289.0,6609380532302759.0,656059650406949.1,816449707697093.1,3016589699.0901775,6904424450.477153,130189345703.48634,3347338598576.391
2.001207095962122,5321343445061783.0,6851665399817768.0,680081386297286.9,846344152861282.9,3370334331.0516505,7714081616.162767,145456210949.74695,3739874970515.0107
2.1412312378813647,5506441145833057.0,7090290710722598.0,703737348787869.1,875783402244000.0,3744346468.313201,8570127433.490687,161597779824.57953,4154901603961.05
2.284055862638992,5689023989169860.0,7325703744152239.0,727071906026583.2,904822670887595.5,4139088291.0331883,9473619750.680828,178633999071.98257,4592931361089.568
2.4297369798917723,5869393734504083.0,7558293390003140.0,750123623645376.8,933509952749511.1,4555053589.900999,10425688766.83193,196586179686.24463,5054512182120.407
2.578331719489608,6047814795108965.0,7788400514230052.0,772926294341017.8,961887301989580.1,4992766385.303921,11427533871.452374,215476937317.6151,5540225552913.332
2.7298983538794,6224520556065550.0,8016326087951433.0,795509745327462.0,989991837824181.2,5452779917.509613,12480421333.179218,235330148690.37823,6050685384300.017
2.884496320956988,6399718390631058.0,8242337641932604.0,817900479440640.5,1017856542364977.5,5935675929.93148,13585682659.310534,256170920669.8859,6586537216664.623
3.0421862473761276,6573593687737151.0,8466674448813695.0,840122189863097.4,1045510901180778.2,6442064187.569188,14744713493.611963,278025569479.34705,7148457685509.107
3.2030299723236504,6746313118368146.0,8689551726112082.0,862196177575550.5,1072981422805475.8,6972582187.002865,15958972952.55482,300921608183.73804,7737154199593.142
3.3670905717701234,6918027309147352.0,8911164076573639.0,884141693048074.1,1100292063964130.5,7527895024.678463,17229983323.854763,324887741005.2871,8353364794735.559
3.5344323832055258,7088873049221742.0,9131688328102620.0,905976218285668.1,1127464580571563.8,8108695397.8478565,18559330068.632965,349953863364.101,8997858134826.826
3.7051210308696363,7258975126063185.0,9351285896293204.0,927715701448370.2,1154518819711177.2,8715703718.216436,19948662081.545677,376151066783.05896,9671433637916.371
3.879223451487029,7428447863516775.0,9570104763910120.0,949374753417786.5,1181472964257054.2,9349668322.651207,21399692173.067333,403511647981.6579,10374921710010.059
4.0568079205167695,7597396418921257.0,9788281150428858.0,970966813572419.9,1208343739177183.8,10011365768.587746,22914197745.63471,432069121625.3234,11109184072859.863
4.237944078927105,7765917883759568.0,1.000594092883592e+16,992504290453642.8,1235146586588716.5,10701601204.313976,24494021641.171688,461858236306.26636,11875114174845.662
4.422702960505647,7934102222933323.0,1.0223200834839172e+16,1013998681807402.5,1261895815146826.8,11421208806.2902,26141073142.04765,492914993417.5213,12673637676248.135
4.61115701971576,8102033080591889.0,1.044016950442461e+16,1035460677571239.1,1288604728209492.2,12171052277.226517,27857329111.099808,525276668649.1569,13505713001944.602
4.803380160110075,8269788474918373.0,1.0656948368581762e+16,1056900248669725.2,1315285734341156.8,12952025399.878843,29644835259.1855,558981835889.218,14372331955936.877
4.9994477633122765,8437441399969661.0,1.0873632428481234e+16,1078326723931173.8,1341950443033644.5,13765052642.5211,31505707531.012867,594070393354.921,15274520393223.682
5.199436718578522,8605060349289045.0,1.1090310930041638e+16,1099748857006683.9,1368609747985234.2,14611089812.854073,33442133601.83503,630583591814.3029,16213338945424.363
5.403425452950093,8772709773337982.0,1.1307067953384198e+16,1121174884831083.1,1395273899853812.5,15491124757.767885,35456374479.09566,668564064786.8313,17189883797285.73
5.611493962009095,8940450480664622.0,1.152398292993627e+16,1142612578893310.8,1421952570061591.5,16406178106.911901,37550766204.34273,708055860634.6848,18205287511802.58
5.823723841249277,9108339991021132.0,1.1741131097748566e+16,1164069290365722.2,1448654906957378.5,17357304058.47172,39727721651.74657,749104476475.6124,19260719902175.098
6.040198318074262,9276432847264510.0,1.1958583903820512e+16,1185551989965798.0,1475389585423471.0,18345591205.92281,41989732420.40936,791756893864.2924,20357388949238.28
6.261002284435747,9444780891757860.0,1.217640936078909e+16,1207067303280952.0,1502164850836507.2,19372163404.84282,44339370818.35971,836061616202.5684,21496541763344.008
6.486222330124463,9613433512077384.0,1.2394672364164764e+16,1228621542170523.0,1528988558146422.2,20438180679.126312,46779291936.73567,882068707850.2352,22679465589968.65
6.715946776726952,9782437860081498.0,1.2613434975333094e+16,1250220732763358.8,1555868206718760.8,21544840166.172504,49312235813.16919,929829834917.8219,23907488858567.76
6.950265712261491,9951839047781158.0,1.2832756674747912e+16,1271870640490547.2,1582810971487271.8,22693377100.80586,51941029683.825966,979398307731.0713,25181982274413.266
7.18927102650672,1.0121680322939156e+16,1.3052694589083588e+16,1293576792527475.8,1609823730882489.0,23885065837.859646,54668590323.937164,1030829124964.0288,26504359953335.02
7.433056447036854,1.0292003226899792e+16,1.3273303695564944e+16,1315344497964843.8,1636913091934039.8,25121220913.495686,57497926476.9938,1084179019443.9468,27876080599446.766
7.681717575977592,1.0462847736794764e+16,1.3494637006237064e+16,1337178865982958.8,1664085412888122.8,26403198145.461784,60432141373.064026,1139506505636.6868,29298648726082.406
7.935351927497144,1.0634252393971692e+16,1.37167457345508e+16,1359084822265236.0,1691346823633650.5,27732395772.60312,63474435336.95492,1196871928826.2754,30773615920290.64
8.194058966047088,1.0806254420240066e+16,1.3939679446317122e+16,1381067123854709.2,1718703244190855.5,29110255634.041756,66628108487.17267,1256337516006.4858,32302582151351.207
8.45794014536803,1.0978889823316066e+16,1.4163486196808454e+16,1403130372630169.8,1746160401481959.5,30538264388.534798,69896563526.84166,1317967428506.474,33887197123875.293
8.72709894827539,1.1152193492666068e+16,1.4388212655552038e+16,1425279027555214.5,1773723844574837.0,32017954774.59961,73283308627.93604,1381827816375.8826,35529161676146.03
9.0016409272409,1.132619928679621e+16,1.461390422016276e+16,1447517415834060.0,1801398958566122.2,33550906912.073017,76791960410.34888,1447986874558.1963,37230229224438.414
9.281673745785717,1.150094011290067e+16,1.484060512039219e+16,1469849743090792.8,1829190977249051.5,35138749645.84249,80426247017.48412,1516514900884.1758,38992207254136.22
9.567307220701432,1.1676447999670664e+16,1.506835851342652e+16,1492280102674590.5,1857104994693560.0,36783161932.55004,84190011290.20947,1587484355919.934,40816958858537.55
9.85865336511546,1.185275416396824e+16,1.5297206571338804e+16,1514812484180746.2,1885145975850493.0,38485874271.13385,88087214041.14871,1660969924707.0535,42706404326304.88
10.155826432417769,1.2029889071983618e+16,1.552719056149559e+16,1537450781266783.5,1913318766278549.0,40248670178.12842,92121937431.41634,1737048580434.3853,44662522778585.54
10.458942961066125,1.2207882495424456e+16,1.57583509206221e+16,1560198798833547.5,1941628101080984.5,42073387708.70089,96298388452.04044,1815799650083.7954,46687353856884.15
10.768121820287448,1.2386763563220284e+16,1.5990727323151016e+16,1583060259633195.0,1970078613129085.0,43961921024.453255,100620902512.4251,1897304882094.2886,48782999462832.02
11.083484256693197,1.2566560809172094e+16,1.622435874440799e+16,1606038810358931.0,1998674840640669.0,45916222009.072815,105093947138.33011,1981648516091.19,50951625551054.38
11.405153941827061,1.2747302215928388e+16,1.645928351912683e+16,1629138027265236.8,2027421234174366.2,47938301932.9609,109722125781.95776,2068917354729.227,53195463976386.66
11.733257020663602,1.29290152556273e+16,1.6695539395732332e+16,1652361421362070.0,2056322163093610.5,50030233168.02008,114510181746.84279,2159200837700.363,55516814396754.74
12.067922161076874,1.3111726927508158e+16,1.6933163586782776e+16,1675712443221701.0,2085381921548685.0,52194150953.82785,119463002230.36436,2252591117959.46,57918046233076.72
12.409280604298411,1.3295463792763576e+16,1.7172192815921792e+16,1699194487432896.2,2114604734019787.8,54432255216.4702,124585622486.78545,2349183140222.6655,60401600687602.37
12.75746621638438,1.348025198317888e+16,1.7412663362471436e+16,1722810893713678.8,2143994756734520.2,56746812356.817085,129883230184.34363,2449074859150.074,62970023942660.1
13.112615540712067,1.3666117325910226e+16,1.7654611099802716e+16,1746564962823833.5,2173556097339926.8,59140157514.27022,135361169537.49081,2552366776677.127,65625845624978.96
13.474867851526309,1.3853085229311982e+16,1.7898071536156508e+16,1770459942025056.5,2203292797004122.2,61614696051.88749,141024946269.8249,2659162841306.012,68371765331715.805
13.844365208556836,1.4041180803708386e+16,1.8143079849574944e+16,1794499040481424.5,2233208849450953.8,64172905930.51681,146880232012.22733,2769569997278.954,71210532798934.33
14.221252512727972,1.4230428861921024e+16,1.8389670921523904e+16,1818685429335379.5,2263308201087314.0,66817339729.42661,152932869185.16275,2883698409246.3193,74144980562077.08
14.605677562982532,1.4420853941877272e+16,1.8637879368492704e+16,1843022244597193.2,2293594754598978.5,69550626810.43768,159188875952.06998,3001661555669.5015,77178026360806.33
14.997791114242183,1.4612480327725494e+16,1.888773957174008e+16,1867512589843518.5,2324072372308918.0,72375475544.93544,165654451316.67438,3123576324936.133,80312675610301.08
15.397746936527026,1.4805332069571554e+16,1.913928570534203e+16,1892159538739776.8,2354744879316341.0,75294675605.39546,172335980367.96738,3249563114259.5205,83552023944148.44
15.805701875257567,1.4999433001943306e+16,1.939255176267878e+16,1916966137399969.5,2385616066433375.0,78311100323.11523,179240039676.71796,3379745931435.5137,86899259830702.08
16.221815912762718,1.5194806761079834e+16,1.9647571581487376e+16,1941935406596275.8,2416689692934907.0,81427709113.88686,186373402847.50455,3514252499531.7705,90357667264837.95
16.64625223101797,1.5391476801133122e+16,1.990437886759606e+16,1967070343829677.8,2447969489135411.5,84647549973.39835,193743046230.34048,3653214364586.4126,93930628537088.97
17.079177275638333,1.5589466409362214e+16,2.016300721744491e+16,1992373925271811.5,2479459158805509.5,87973762044.202,201356154796.10388,3796767006395.381,97621627082193.97
17.5207608211511,1.5788798720392986e+16,2.0423490139488424e+16,2017849107587399.8,2511162381439989.0,91409578256.12286,209220128180.08215,3945049952469.6865,101434250409151.84
17.97117603757412,1.5989496729609544e+16,2.068586107456797e+16,2043498829645716.2,2543082814387624.5,94958328042.05186,217342586898.04675,4098206895246.0283,105372193114925.08
18.430599558325603,1.6191583305738322e+16,2.0950153415335344e+16,2069326014128844.0,2575224094852646.5,98623440131.10216,225731378739.40652,4256385812636.408,109439259983996.58
18.899211549492115,1.6395081202680246e+16,2.121640052479959e+16,2095333569043880.2,2607589841776641.0,102408445421.15884,234394585342.10147,4419739092004.514,113639369176033.16
19.37719578048196,1.660001307064186e+16,2.1484635754066796e+16,2121524389145517.8,2640183657608915.0,106316979932.9193,243340528953.9963,4588423657658.954,117976555503976.3
19.864739696091597,1.6806401466611786e+16,2.1754892459333576e+16,2147901357274949.5,2673009129972692.5,110352787847.55133,252577779385.68674,4762601101955.677,122454973804927.73
20.36203449001343,1.7014268864225404e+16,2.2027204018192396e+16,2174467345620614.0,2706069833234170.0,114519724630.16924,262115161159.72562,4942437820104.056,127078902406270.33
20.869275179813698,1.7223637663056676e+16,2.230160384530201e+16,2201225216905696.8,2739369329980226.0,118821760241.37094,271961760861.41263,5128105148773.916,131852746689508.1
21.38666068340997,1.743453019737293e+16,2.2578125407471092e+16,2228177825507065.5,2772911172410990.5,123262982439.13652,282126934696.4199,5319779508602.34,136781042754384.78
21.91439389707817,1.764696874438648e+16,2.2856802238201364e+16,2255328018509764.0,2806698903652076.5,127847600173.44589,292620316260.63983,5517642550702.366,141868461185894.44
22.452681775019734,1.7860975532032132e+16,2.313766795173064e+16,2282678636701071.0,2840736058991689.5,132579947076.02867,303451824527.77795,5721881307277.529,147119810926860.22
23.00173541052013,1.807657274629963e+16,2.342075625661644e+16,2310232515507576.5,2875026167046823.0,137464485047.71445,314631672060.3505,5932688346448.833,152540043258823.4
23.561770118730532,1.829378253814634e+16,2.3706100968894544e+16,2337992485878637.5,2909572750862632.0,142505807945.91336,326170373449.87756,6150261931403.464,158134255894047.1
24.133005521105144,1.8512627030013972e+16,2.3993736024847016e+16,2365961375119232.0,2944379328948950.5,147708645374.813,338078753992.1726,6374806183976.609,163907697181503.78
24.715665631527248,1.8733128321970948e+16,2.4283695493410896e+16,2394142007674980.0,2979449416257215.5,153077866580.93823,350367958603.8116,6606531252780.785,169865770429786.8
25.309978944157795,1.8955308497501136e+16,2.4576013588255684e+16,2422537205871959.0,3014786525101138.5,158618484456.77887,363049460985.9544,6845653485999.477,176014038349938.56
25.91617852304095,1.9179189628957144e+16,2.4870724679557668e+16,2451149790613628.5,3050394166024020.5,164335659655.25684,376135073041.87384,7092395608964.522,182358227621282.5
26.53450209350177,1.9404793782695e+16,2.5167863305496956e+16,2479982582037096.5,3086275848615462.5,170234704817.85605,389636954554.6553,7346986906639.295,188904233583372.97
27.165192135371807,1.9632143023907524e+16,2.5467464183498656e+16,2509038400130757.0,3122435082280009.5,176321088919.31625,403567623131.69086,7609663411132.651,195658125057300.9
27.808495978079243,1.986125942116834e+16,2.576956222124366e+16,2538320065315158.5,3158875376959980.0,182600441731.83777,417939964422.7404,7880668094371.088,202626149299599.47
28.464665897640828,2.0092165050703868e+16,2.607419252746668e+16,2567830398988816.5,3195600243814751.0,189078558411.82318,432767242618.4601,8160251066059.55,209814737092125.12
29.133959215593645,2.032488200040116e+16,2.6381390422563916e+16,2597572224040554.0,3232613195858382.5,195761404212.23184,448063111236.4667,8448669777063.803,217230507971315.88
29.816638399905518,2.055943237356747e+16,2.6691191449026976e+16,2627548365329912.0,3269917748557425.0,202655119323.71365,463841624202.15674,8746189228350.55,224880275600321.22
30.51297116790363,2.0795838292449132e+16,2.7003631381720884e+16,2657761650136931.5,3307517420390651.0,209766023847.71597,480117247231.60925,9053082185623.857,232771053287569.22
31.223230591261704,2.103412190152092e+16,2.731874623802322e+16,2688214908582460.5,3345415733372206.0,217100622904.8637,496904869524.12665,9369629399799.668,240910059655401.38
31.947695203086937,2.1274305370554864e+16,2.7636572287838524e+16,2718910974020404.5,3383616213539648.0,224665611881.9514,514219815772.05176,9696119833462.791,249304724462479.38
32.686649107148675,2.151641089747578e+16,2.7957146063504256e+16,2749852683402715.0,3422122391408212.0,232467881820.97266,532077858495.6909,10032850893453.969,257962694583752.7
33.44038208929165,2.1760460711012704e+16,2.82805043696005e+16,2781042877618142.0,3460937802392406.0,240514524953.6591,550495230711.3223,10380128669737.037,266891840151834.1
34.20918973107749,2.200647707315151e+16,2.860668429267725e+16,2812484401805793.5,3500065987196164.0,248812840385.0919,569488638940.4038,10738268180699.898,276100260863705.56
34.993373525699035,2.2254482281396596e+16,2.8935723210911584e+16,2844180105644094.5,3539510492172537.5,257370339930.00012,589075276568.2999,11107593625044.896,285596292456764.3
35.793240996213015,2.250449867084569e+16,2.9267658803705748e+16,2876132843616019.5,3579274869653667.5,266194754105.43484,609272837560.9181,11488438640428.174,295388513358267.56
36.60910581613728,2.2756548616084296e+16,2.9602529061237724e+16,2908345475251181.5,3619362678252111.0,275294038283.57153,630099530547.9043,11881146569009.576,305485751512324.8
37.44128793246003,2.301065453290288e+16,2.994037229397315e+16,2940820865345290.5,3659777483133972.5,284676379008.4618,651574093281.0938,12286070730078.09,315897091388651.7
38.29011369110923,2.326683887984205e+16,3.028122714214952e+16,2973561884157610.5,3700522856264595.5,294350200480.6211,673715807477.1438,12703574699920.4,326631881177358.3
39.15591596493141,2.3525124159566748e+16,3.0625132585239124e+16,3006571407586653.5,3741602376627216.5,304324171213.40753,696544514053.3826,13134032599102.754,337699740174128.3
40.03903428423004,2.3785532920074092e+16,3.0972127951400652e+16,3039852317324446.0,3783019630414964.5,314607210865.18176,720080628766.0391,13577829387339.023,349110566360193.75
40.93981496991464,2.4048087755734004e+16,3.1322252926923264e+16,3073407500989625.0,3824778211196445.0,325208497251.3509,744345158260.1893,14035361166121.053,360874544181580.56
41.85861126931294,2.431281130816507e+16,3.1675547565670844e+16,3107239852239291.0,3866881720055001.5,336137473540.38074,769359716540.8455,14507035489287.791,373002152532152.2
42.7957834946992,2.457972626694339e+16,3.2032052298528764e+16,3141352270859654.5,3909333765701497.0,347403855637.9839,795146541874.7465,14993271681714.508,385504172945030.75
43.751699164593184,2.4848855370143704e+16,3.2391807942856412e+16,3175747662835169.5,3952137964560332.5,359017639763.6823,821728514132.4966,15494501166302.8,398391697997004.44
