t(s),Total solute volume 1,Total retention volume 1,Total 1 volume 1,Total 2 volume 1,Total 3 volume 1,Total 4 volume 1,Total 5 volume 1,Total 6 volume 1
0.1,1277535415264620.8,2216485712870468.2,368078767489456.25,570871530116391.1,0.0,0.0,0.0,3.710125213445117e-74
0.202,1901844069247161.5,3357303606310017.5,547952274145806.3,849846304976237.1,16077429609.251919,51628656781.69646,1612454600000.779,55980797254423.72
0.30604000000000003,2363732848754088.0,4246190187475751.0,681029961463306.2,1056243088106776.6,40363331537.900475,129617586663.35402,4049218262117.09,140965089971261.53
0.41216080000000005,2742700406455679.0,5014043942879719.0,790216692584042.0,1225586200452059.0,70955999030.3032,227859593028.1147,7119033571981.481,248122794223897.28
0.5204040160000001,3069065367999907.0,5710105558321406.0,884247758221272.0,1371423639940494.5,106930242263.38681,343383616918.3761,10729008572733.682,374189469727811.94
0.6308120963200001,3358111075420305.0,6358866251968819.0,967526538435511.1,1500584827424446.2,147726524896.84775,474392842832.54205,14822982162980.822,517198709157853.3
0.7434283382464002,3618814975165175.5,6974538318219498.0,1042639581909216.6,1617081369531108.5,192967479777.92505,619675459127.1055,19363083551449.477,675826665123644.0
0.8582969050113283,3856986790253737.0,7566222090501358.0,1111260764550423.9,1723509363352850.5,242381705739.96143,778359943723.86,24322079115433.984,849122351579449.9
0.9754628431115548,4076647111334200.5,8140159923879301.0,1174548484061394.2,1821665425260950.2,295765813245.77344,949793180636.4917,29679561697621.0,1036373782531254.8
1.094972099973786,4280718973585792.5,8700858984025472.0,1233344914521175.2,1912855724733257.0,352963162932.2673,1133472182962.8677,35419816227849.97,1237033119611503.8
1.2168715419732616,4471409346675635.0,9251706271463208.0,1288285919862060.2,1998066454618279.0,413850928295.5873,1329002547343.4993,41530521103494.69,1450671175728092.0
1.3412089728127268,4650435183050710.0,9795330515154558.0,1339866182067734.2,2078064841687064.5,478331724043.3902,1536071570189.5146,48001907916386.91,1676947997138422.5
1.4680331522689813,4819165072306441.0,1.033382739199697e+16,1388480014106063.0,2153462445433531.0,546327924847.23987,1754430003600.9058,54826191246877.266,1915592910975607.8
1.597393815314361,4978712100066692.0,1.0868906158430576e+16,1434448114086140.0,2224756652422262.0,617777660935.1547,1983879196119.1558,61997166772311.54,2166390468226123.2
1.729341691620648,5129997018803431.0,1.140198873061311e+16,1478035765801133.0,2292358904411989.0,692631907069.3778,2224261744662.6836,69509919120215.74,2429170228824606.0
1.863928525453061,5273792577887851.0,1.1934278752818062e+16,1519465610938612.8,2356614507409161.0,770852311457.4156,2475454522604.739,77360603987069.39,2703799145761298.5
2.001207095962122,5410755464728731.0,1.2466811039324236e+16,1558926851843143.2,2417816904688174.5,852409541244.0074,2737363366743.159,85546282103740.06,2990175763052459.5
2.1412312378813647,5541449848737094.0,1.3000487786157188e+16,1596582034916259.5,2476218197502249.0,937281998337.7845,3009918953522.478,94064790368665.97,3288225713681041.5
2.284055862638992,5666365082629537.0,1.3536105627626212e+16,1632572150650440.0,2532037054978653.5,1025454806863.8286,3293073547525.635,102914640241531.11,3597898170771674.0
2.4297369798917723,5785929244412140.0,1.4074376210875498e+16,1667020535295445.2,2585464765406102.0,1116919003848.8506,3586798402605.1396,112094936533092.52,3919163011822266.0
2.578331719489608,5900519658129066.0,1.461594208769553e+16,1700035902057436.0,2636669937471565.0,1211670884653.8672,3891081659953.705,121605311724990.14,4252008525767845.5
2.7298983538794,6010471180445594.0,1.5161389162365654e+16,1731714728598604.2,2685802203151598.0,1309711468082.5105,4205926630489.1733,131445872299676.06,4596439539771607.0
2.884496320956988,6116082808466075.0,1.5711256565792282e+16,1762143160857216.8,2732995170441062.0,1411046055338.0378,4531350378615.841,141617154488451.72,4952475875105529.0
3.0421862473761276,6217623007849229.0,1.626604457847434e+16,1791398548164492.0,2778368804241864.0,1515683863503.4946,4867382545302.769,152120087498140.84,5320151064311811.0
3.2030299723236504,6315334052655831.0,1.6826221054928414e+16,1819550693625437.2,2822031365640487.5,1623637718875.3093,5214064363370.556,162955962744179.94,5699511278180227.0
3.3670905717701234,6409435592923536.0,1.7392226683567732e+16,1846662881995311.2,2864081006092395.0,1734923798869.217,5571447828759.819,174126407958000.03,6090614422970869.0
3.5344323832055258,6500127612213491.0,1.796447933182074e+16,1872792731796983.2,2904607089013101.5,1849561413720.462,5939594999592.905,185633365287794.97,6493529377096054.0
3.7051210308696363,6587592898502982.0,1.854337766560697e+16,1897992907225392.5,2943691293905947.5,1967572821074.3381,6318577400858.472,197479072699828.44,6908335343050895.0
3.879223451487029,6671999123301600.0,1.9129304187979468e+16,1922311717174794.2,2981408545423095.0,2088983067983.259,6708475517108.787,209666048129983.34,7335121295364873.0
4.0568079205167695,6753500602714359.0,1.9722627808972812e+16,1945793622629742.2,3017827800303345.5,2213819855915.3223,7109378359056.786,222197075944502.47,7773985509165924.0
4.237944078927105,6832239798288617.0,2.0323706034180784e+16,1968479669083552.0,3053012718031273.5,2342113425222.4,7521383092666.044,235075195353480.25,8225035156905946.0
4.422702960505647,6908348603423340.0,2.093288684104462e+16,1990407857173783.8,3087022235674166.5,2473896456175.1797,7944594721445.48,248303690486853.56,8688385963108844.0
4.61115701971576,6981949451874812.0,2.155051029767729e+16,2011613462060768.8,3119911063221961.5,2609203984192.6533,8379125814329.873,261886081894801.75,9164161908826464.0
4.803380160110075,7053156277740221.0,2.217690996812932e+16,2032129310014570.0,3151730112559641.0,2748073327307.386,8825096272856.695,275826119276033.62,9652494978938700.0
4.9994477633122765,7122075350719106.0,2.2812414139517884e+16,2051986019067367.5,3182526870706923.0,2890544024239.642,9282633132414.88,290127775270689.1,1.0153524946597128e+16
5.199436718578522,7188806006060617.0,2.3457346899788864e+16,2071212209323219.8,3212345725998073.0,3036657781721.1646,9751870393201.008,304795240181493.2,1.06673991900505e+16
5.403425452950093,7253441285124325.0,2.4112029089626452e+16,2089834687514011.0,3241228254318835.0,3186458429927.3203,10232948877218.012,319832917508622.94,1.1194272537853538e+16
5.611493962009095,7316068499702548.0,2.4776779147848584e+16,2107878609589950.2,3269213471276091.5,3339991885054.243,10726016108222.947,335245420201649.9,1.1734307139085072e+16
5.823723841249277,7376769731019724.0,2.5451913866279196e+16,2125367624489412.5,3296338055177609.5,3497306118224.4136,11231226212002.021,351037567546601.56,1.228767235571567e+16
6.040198318074262,7435622272517847.0,2.6137749067395016e+16,2142324001712624.2,3322636544892375.5,3658451130025.207,11748739834739.426,367214382618394.1,1.2854544674689012e+16
6.261002284435747,7492699024067686.0,2.683460021585678e+16,2158768744900368.5,3348141516005425.0,3823478930086.18,12278724077572.229,383781090238985.06,1.3435107637636664e+16
6.486222330124463,7548068844043877.0,2.7542782973257364e+16,2174721693272527.5,3372883738143889.0,3992443521184.907,12821352445693.146,400743115390093.0,1.4029551786440084e+16
6.715946776726952,7601796864713004.0,2.826261370395661e+16,2190201612496524.0,3396892315909374.5,4165400887442.5366,13376804810592.105,418106082036429.8,1.4638074623103276e+16
6.950265712261491,7653944775566693.0,2.899440993867468e+16,2205226276320255.2,3420194815486477.0,4342408986229.687,13945267384218.496,435875812321420.06,1.526088058260938e+16
7.18927102650672,7704571078553442.0,2.9738490801516908e+16,2219812540108468.8,3442817378694002.0,4523527743454.438,14526932704010.611,454058326102445.6,1.5898181017611088e+16
7.433056447036854,7753731318595783.0,3.0495177405281296e+16,2233976407258575.8,3464784825992537.5,4708819051947.014,15121999627875.768,472659840797017.94,1.6550194193957506e+16
7.681717575977592,7801478292305845.0,3.1264793219205428e+16,2247733089334963.0,3486120749749728.0,4898346772693.047,15730673338324.33,491686771514973.2,1.721714529618889e+16
7.935351927497144,7847862237412144.0,3.204766441273426e+16,2261097060645963.0,3506847598886368.0,5092176738698.56,16353165355062.32,511145731454954.8,1.7899266442241058e+16
8.194058966047088,7892931005073848.0,3.2844120178400748e+16,2274082107890383.5,3526986755875700.5,5290376761297.538,16989693555434.766,531043532546204.2,1.8596796706697876e+16
8.45794014536803,7936730216972221.0,3.3654493036502616e+16,2286701375418125.0,3546558606940316.0,5493016638736.044,17640482202187.3,551387186319026.94,1.9309982152012004e+16
8.72709894827539,7979303408825912.0,3.447911912390738e+16,2298967406579294.0,3565582606182504.5,5700168166887.783,18305761978080.016,572183904989364.4,2.003907586718533e+16
9.0016409272409,8020692161768676.0,3.531833846902334e+16,2310892181576192.0,3584077334290884.5,5911905151973.111,18985770026943.58,593441102744667.5,2.0784338013463932e+16
9.281673745785717,8060936222849980.0,3.61724952547192e+16,2322487152181600.0,3602060552386553.5,6128303425169.706,19680750000817.816,615166397219853.5,2.154603587665523e+16
9.567307220701432,8100073615766129.0,3.704193807076078e+16,2333763273642148.5,3619549251503740.5,6349440859016.138,20390952112857.375,637367611153436.5,2.2324443925723412e+16
9.85865336511546,8138140742797446.0,3.7927020157143416e+16,2344731034048103.5,3636559698140770.0,6575397385521.723,21116633195725.113,660052774215191.1,2.3119843877360716e+16
10.155826432417769,8175172478812774.0,3.882809963954413e+16,2355400481417599.5,3653107476266375.5,6806255015906.433,21858056765230.465,683230124997677.0,2.3932524766268564e+16
10.458942961066125,8211202258103876.0,3.974553975797191e+16,2365781248715069.0,3669207526121962.0,7042097861904.016,22615493088996.758,706908113164955.8,2.4762783020915116e+16
10.768121820287448,8246262154726541.0,4.067970908958331e+16,2375882576998748.5,3684874180122311.0,7283012158569.425,23389219259970.562,731095401752594.1,2.5610922544564616e+16
11.083484256693197,8280382956949248.0,4.163098176651962e+16,2385713336870630.5,3700121196123288.0,7529086288539.217,24179519274607.152,755800869613830.5,2.6477254801399464e+16
11.405153941827061,8313594236346107.0,4.259973768953354e+16,2395282048383239.5,3714961788296277.5,7780410807699.905,24986684115588.24,781033614007380.9,2.736209890757725e+16
11.733257020663602,8345924412012330.0,4.3586362738099064e+16,2404596899541123.0,3729408655823081.5,8037078472224.789,25811011838947.22,806802953322974.1,2.8265781727088356e+16
12.067922161076874,8377400810330480.0,4.4591248977620616e+16,2413665763520534.5,3743474009602721.0,8299184266945.607,26652807665491.316,833118429941220.0,2.9188637972293224e+16
12.409280604298411,8408049720671590.0,4.561479486430704e+16,2422496214717813.0,3757169597141649.5,8566825435029.29,27512384076428.78,859989813224871.8,3.013101030903969e+16
12.75746621638438,8437896447375785.0,4.665740544821537e+16,2431095543725809.5,3770506725781571.5,8840101508934.494,28390060913118.684,887427102638970.2,3.1093249466271164e+16
13.112615540712067,8466965358322686.0,4.77194925749272e+16,2439470771327874.0,3783496284403230.5,9119114342626.92,29286165480875.727,915440530997721.2,3.207571435005222e+16
13.474867851526309,8495279930371350.0,4.880147508627951e+16,2447628661589807.0,3796148763731456.0,9403968145034.502,30201032656772.68,944040567836340.2,3.3078772161948704e+16
13.844365208556836,8522862791922051.0,4.99037790205328e+16,2455575734122607.5,3808474275354052.0,9694769514728.484,31135005001392.73,973237922906345.6,3.4102798521711588e+16
14.221252512727972,8549735762828526.0,5.102683781233239e+16,2463318275581830.0,3820482569556716.0,9991627475817.342,32088432874492.49,1003043549793133.9,3.5148177594221816e+16
14.605677562982532,8575919891867054.0,5.217109249278541e+16,2470862350463083.5,3832183052066293.0,10294653515044.283,33061674554546.66,1033468649654861.2,3.621530222066456e+16
14.997791114242183,8601435491950786.0,5.3336991889956e+16,2478213811247764.5,3843584799786359.5,10603961620081.33,34055096362151.09,1064524675081955.6,3.730457405390693e+16
15.397746936527026,8626302173259010.0,5.452499283005524e+16,2485378307948231.0,3854696575601191.5,10919668319014.154,35069072787267.85,1096223334076753.8,3.841640369806384e+16
15.805701875257567,8650538874437138.0,5.573556033958645e+16,2492361297097005.5,3865526842317624.5,11241892721015.24,36103986620303.61,1128576594152955.0,3.955121085224035e+16
16.221815912762718,8674163892008628.0,5.696916784868558e+16,2499168050220759.0,3876083775807839.5,11570756558203.654,37160229087017.77,1161596686554833.8,4.070942445844829e+16
16.64625223101797,8697194908127769.0,5.822629739588403e+16,2505803661836424.5,3886375277410824.5,11906384228691.676,38238199987262.14,1195296110596208.2,4.189148285369682e+16
17.079177275638333,8719649016791400.0,5.950743983450653e+16,2512273057003192.5,3896408985645178.0,12248902840820.709,39338307837557.91,1229687638119435.0,4.309783392626896e+16
17.5207608211511,8741542748617486.0,6.081309504090316e+16,2518580998461609.0,3906192287281479.0,12598442258589.121,40460970017525.164,1264784318074793.2,4.4328935276191736e+16
17.97117603757412,8762892094289170.0,6.214377212470603e+16,2524732093388210.5,3915732327818419.5,12955135148277.512,41606612920174.55,1300599481220715.8,4.558525437992107e+16
18.430599558325603,8783712526755394.0,6.349998964129135e+16,2530730799791859.5,3925036021403142.0,13319117026276.688,42775672106089.766,1337146744945572.2,4.68672687592629e+16
18.899211549492115,8804019022271022.0,6.488227580661576e+16,2536581432575761.5,3934110060233167.5,13690526308126.168,43968592461516.27,1374440018211677.0,4.817546615455446e+16
19.37719578048196,8823826080353121.0,6.6291168714594616e+16,2542288169287199.0,3942960923473941.0,14069504358770.895,45185828360389.7,1412493506622476.2,4.951034470213865e+16
19.864739696091597,8843147742724248.0,6.772721655717476e+16,2547855055575393.0,3951594885723639.5,14456195544046.135,46427843830333.66,1451321717613800.8,5.08724131161633e+16
20.36203449001343,8861997611307307.0,6.9190977847258184e+16,2553286010376130.5,3960018025054324.0,14850747283400.508,47695112722658.68,1490939465770327.2,5.226219087474399e+16
20.869275179813698,8880388865332245.0,7.068302164461726e+16,2558584830840444.5,3968236230656063.0,15253310103868.467,48988118886403.99,1531361878268389.0,5.368020841052997e+16
21.38666068340997,8898334277609957.0,7.220392778494766e+16,2563755197023430.0,3976255210109047.5,15664037695304.77,50307356346458.59,1572604400446399.8,5.5127007305717064e+16
21.91439389707817,8915846230024556.0,7.375428711219195e+16,2568800676347803.0,3984080496306328.5,16083086966893.664,51653329485807.086,1614682801504251.8,5.6603140491556504e+16
22.452681775019734,8932936728291515.0,7.53347017142712e+16,2573724727855966.5,3991717454048560.0,16510618104946.9,53026553231946.02,1657613180333145.2,5.810917245240534e+16
23.00173541052013,8949617416025727.0,7.694578516235149e+16,2578530706263234.5,3999171286330365.5,16946794632005.29,54427553247517.195,1701411971477322.8,5.9645679434375176e+16
23.561770118730532,8965899588160034.0,7.858816275377557e+16,2583221865823946.5,4006447040336466.5,17391783467259.01,55856866125211.945,1746095951229321.8,6.121324965863327e+16
24.133005521105144,8981794203752396.0,8.026247175878493e+16,2587801364021423.5,4013549613164627.5,17845754988303.223,57315039586997.26,1791682243860461.8,6.281248353941086e+16
24.715665631527248,8997311898216684.0,8.196936167115371e+16,2592272265091826.0,4020483757290976.0,18308883094245.66,58802632687720.43,1838188327988248.5,6.444399390678405e+16
25.309978944157795,9012462995009894.0,8.37094944628563e+16,2596637543391478.5,4027254085792526.0,18781345270184.13,60320216023151.33,1885632043082539.5,6.610840623428649e+16
25.91617852304095,9027257516806350.0,8.548354484289155e+16,2600900086616299.0,4033865077340394.5,19263322653071.19,61868371942519.914,1934031596112374.8,6.780635887142048e+16
26.53450209350177,9041705196187088.0,8.729220052037864e+16,2605062698881608.5,4040321080976445.0,19755000098986.918,63447694765614.09,1983405568335386.8,6.953850328113338e+16
27.165192135371807,9055815485871452.0,8.913616247204406e+16,2609128103670003.5,4046626320685196.5,20256566251837.04,65058791004499.984,2033772922231849.0,7.1305504282329256e+16
27.808495978079243,9069597568514942.0,9.101614521421877e+16,2613098946654302.0,4052784899772163.5,20768213613498.082,66702279589934.195,2085153008585449.5,7.310804029748874e+16
28.464665897640828,9083060366097062.0,9.293287707945765e+16,2616977798402311.0,4058800805058786.5,21290138615430.242,68378792102533.164,2137565573712849.5,7.494680360546875e+16
29.133959215593645,9096212548920552.0,9.488710049790096e+16,2620767156969648.5,4064677910903735.0,21822541691778.594,70088973008772.484,2191030766844405.5,7.682250059956205e+16
29.816638399905518,9109062544242208.0,9.687957228349304e+16,2624469450386430.5,4070419983059672.5,22365627353985.56,71833479901888.58,2245569147658155.2,7.873585205089078e+16
30.51297116790363,9121618544554224.0,9.891106392517222e+16,2628087039043305.0,4076030682373857.0,22919604266936.504,73612983747756.19,2301201693969514.0,8.068759337721672e+16
31.223230591261704,9133888515534400.0,1.0098236188315106e+17,2631622217981949.5,4081513568340583.5,23484685326662.156,75428169135819.0,2357949809579005.0,8.267847491725275e+16
31.947695203086937,9145880203680966.0,1.0309426789039778e+17,2635077219094839.5,4086872102512947.5,24061087739620.785,77279734535151.9,2415835332280565.5,8.470926221055365e+16
32.686649107148675,9157601143648388.0,1.0524759925944075e+17,2638454213238862.0,4092109651780872.0,24649033103585.684,79168392555732.31,2474880542032812.0,8.678073628308059e+16
33.44038208929165,9169058665299098.0,1.0744318919460962e+17,2641755312266885.0,4097229491522080.0,25248747490161.184,81094870215008.67,2535108169295942.5,8.889369393852074e+16
34.20918973107749,9180259900483738.0,1.0968188710982944e+17,2644982570981456.0,4102234808632073.0,25860461528954.023,83059909209841.8,2596541403536879.0,9.104894805545664e+16
34.993373525699035,9191211789564874.0,1.1196455895208722e+17,2648137989014203.0,4107128704439093.5,26484410493424.688,85064266193913.03,2659203901905260.5,9.324732789047658e+16
35.793240996213015,9201921087694580.0,1.142920875306894e+17,2651223512634647.5,4111914197509391.0,27120834388446.555,87108713060679.31,2723119798083178.0,9.548967938731853e+16
36.60910581613728,9212394370858888.0,1.1666537285242771e+17,2654241036491600.5,4116594226348138.0,27769978039597.836,89194037231970.42,2788313711311257.0,9.777686549214635e+16
37.44128793246003,9222638041698912.0,1.1908533246277405e+17,2657192405290442.5,4121171652000738.5,28432091184216.863,91321041952316.4,2854810755594117.5,1.001097664750533e+17
38.29011369110923,9232658335120148.0,1.2155290179322514e+17,2660079415409130.0,4125649260559196.5,29107428564244.695,93490546589098.0,2922636549088040.5,1.0248928025789512e+17
39.15591596493141,9242461323698342.0,1.2406903451492016e+17,2662903816455796.0,4130029765577889.5,29796250020887.277,95703386938615.16,2991817223673784.5,1.0491632274855483e+17
40.03903428423004,9252052922892246.0,1.2663470289864965e+17,2665667312770604.5,4134315810402857.0,30498820591124.383,97960415538173.1,3062379434717621.0,1.0739182818173712e+17
40.93981496991464,9261438896071308.0,1.2925089818138488e+17,2668371564874312.0,4138509970418429.0,31215410606094.58,100262501984278.31,3134350371023650.0,1.0991674946640646e+17
41.85861126931294,9270624859366754.0,1.3191863093944698e+17,2671018190865933.5,4142614755214963.5,31946295791387.844,102610533257049.06,3207757764980582.5,1.124920585399702e+17
42.7957834946992,9279616286353894.0,1.3463893146844867e+17,2673608767771812.5,4146632610681180.0,32691757369274.547,105005414050941.3,3282629902906025.0,1.1511874672931544e+17
