t(s),Total solute volume 1,Total retention volume 1,Total 1 volume 1,Total 2 volume 1,Total 3 volume 1,Total 4 volume 1,Total 5 volume 1,Total 6 volume 1
0.1,1171626138357391.5,1690659390667246.5,218249522949102.88,300783729360751.56,0.0,0.0,0.0,0.0
0.202,1762610244743252.2,2546171305257065.5,328337543911663.94,452503138697963.94,1375989743.780997,3684649234.188641,87870045846.1713,2627447219362.01
0.30604000000000003,2212244074144894.8,3199174253956980.0,412094953306292.94,567934626624383.4,3488491738.8493347,9341559491.903147,222785900732.35516,6664983929445.949
0.41216080000000005,2591904218385090.5,3752375680353447.5,482817723680168.8,665402237160614.0,6192195417.721012,16581608612.574345,395461812794.2693,11833265510748.377
0.5204040160000001,2928436839020565.0,4244385634840354.0,545506735415415.44,751798006658259.6,9422022786.534712,25230528614.125797,601740730546.5853,18007660464168.414
0.6308120963200001,3235231209758835.0,4694454797741786.0,602656131115661.2,830559274014478.6,13142607411.075748,35193614458.7084,839363668071.4746,25120482962868.58
0.7434283382464002,3520072267813204.5,5113775928177113.0,655716082305524.9,903684614165914.0,17333290204.73627,46415544988.3416,1107011087391.529,33132203969888.12
0.8582969050113283,3787947358495344.5,5509521765069493.0,705615627452135.6,972454394949742.5,21981948246.502277,58863857486.3935,1403908684495.6045,42019629682041.555
0.9754628431115548,4042273313370784.0,5886609671210725.0,752991251049136.4,1037745796697162.9,27081950939.678684,72520796773.01056,1729632961416.965,51770074384511.19
1.094972099973786,4285509252456601.5,6248582563962873.0,798301035892662.0,1100190132851878.6,32630472068.66998,87378795176.7907,2084003410909.8018,62378130083574.516
1.2168715419732616,4519493146807124.0,6598092563033702.0,841887357675407.1,1160259253435258.5,38627473696.31165,103437751584.83095,2467017615388.6987,73843722275242.08
1.3412089728127268,4745640390892458.0,6937186243669920.0,884013874881438.6,1218316523206601.8,45075056280.457016,120703291166.91553,2878809737768.413,86170866604205.9
1.4680331522689813,4965067711133993.0,7267482574698713.0,924888610363406.2,1274648631873526.5,51977023299.02058,139185599517.3398,3319622713593.502,99366835991380.28
1.597393815314361,5178674049371148.0,7590289034589656.0,964679018246326.2,1329486358763858.8,59338578797.97976,158898612742.00015,3789788933250.983,113441582083529.11
1.729341691620648,5387195355808295.0,7906680249551424.0,1003522190711357.0,1383018639452643.8,67166111131.45332,179859438353.29547,4289716429414.1533,128407321600221.14
1.863928525453061,5591242878685163.0,8217552932276946.0,1041531990563226.5,1435402395613307.0,75467034724.30862,202087931539.54797,4819878770457.958,144278233678532.44
2.001207095962122,5791330637508829.0,8523665292371193.0,1078804168920636.4,1486769588036832.0,84249672143.56525,225606379374.57394,5380807528434.982,161070234324945.9
2.1412312378813647,5987895588750864.0,8825665958956796.0,1115420121665261.6,1537232393636386.2,93523164936.35007,250439262059.24335,5973086584391.35,178800805892892.28
2.284055862638992,6181312723491077.0,9124115631679996.0,1151449701818039.2,1586887081364437.2,103297405481.54315,276613070434.188,6597347775838.104,197488866754695.3
2.4297369798917723,6371906568804068.0,9419503573334900.0,1186953362007744.0,1635816964886856.8,113582984509.05626,304156165447.8473,7254267544920.846,217154670941355.72
2.578331719489608,6559960085296384.0,9712260368682692.0,1221983811896662.0,1684094686788112.2,124391150514.87459,333098669479.4119,7944564346375.69,237819730535174.1
2.7298983538794,6745721645294561.0,1.0002767931824512e+16,1256587318071550.0,1731784010034850.0,135733778356.38025,363472382245.1149,8668996641833.095,259506755621110.72
2.884496320956988,6929410573426510.0,1.0291367453341592e+16,1290804736138466.0,1778941240372274.5,147623345037.66772,395310715958.1804,9428361353348.844,282239607989983.3
3.0421862473761276,7111221594820243.0,1.0578365782426988e+16,1324672339329441.2,1825616368280513.2,160072911202.5341,428648645773.0727,10223492681487.234,306043265758329.2
3.2030299723236504,7291328442373219.0,1.0864040604638426e+16,1358222490461578.8,1871853995044706.0,173096107215.1432,463522672514.88525,11055261216421.525,330943796762778.25
3.3670905717701234,7469886808965252.0,1.1148644681789798e+16,1391484191872758.5,1917694090656919.0,186707122971.03195,499970795398.0591,11924573287295.025,356968339089210.94
3.5344323832055258,7647036783868478.0,1.1432409353609636e+16,1424483539274037.8,1963172619299355.8,200920700774.37982,538032492956.1904,12832370507427.396,384145087466618.9
3.7051210308696363,7822904878969179.0,1.171554745253939e+16,1457244099192530.5,2008322059522752.0,215752130761.57346,577748710790.5159,13779629482157.443,412503284531230.0
3.879223451487029,7997605725810389.0,1.1998255747753264e+16,1489787225095058.8,2053171839916781.2,231217248459.87772,619161855036.0001,14767361653059.18,442073216174494.3
4.0568079205167695,8171243506239278.0,1.22807170083476e+16,1522132323887964.0,2097748706390576.0,247332434153.07053,662315790666.3407,15796613257573.627,472886210347400.44
4.237944078927105,8343913165787191.0,1.2563101756068338e+16,1554297081944482.5,2142077033675685.0,264114613789.95496,707255843930.6921,16868465387189.553,504974638816070.56
4.422702960505647,8515701448567335.0,1.2845569763119436e+16,1586297657884622.2,2186179091008421.5,281581261221.5457,754028808348.5372,17984034130492.11,538371921458991.6
4.61115701971576,8686687784564340.0,1.3128271339257338e+16,1618148847858717.0,2230075269917781.0,299750401591.91296,802682953794.0422,19144470789901.418,573112532771219.4
4.803380160110075,8856945054082195.0,1.3411348443624538e+16,1649864227948137.0,2273784280477065.5,318640615738.68994,853268038284.3354,20350962162905.805,609232010300199.1
4.9994477633122765,9026540249361596.0,1.3694935649961926e+16,1681456277410809.2,2317323321156466.0,338271045484.0662,905835322152.5281,21604730880175.742,646766964785271.2
5.199436718578522,9195535049644260.0,1.3979160988492714e+16,1712936485803697.5,2360708226455485.0,358661399716.9412,960437584339.5555,22907035794217.5,685755091810974.4
5.403425452950093,9363986323009698.0,1.426414668354046e+16,1744315446464553.8,2403953595736096.0,379831961183.0537,1017129140582.1189,24259172413252.637,726235184815104.9
5.611493962009095,9531946565957200.0,1.4550009802578392e+16,1775602938396867.2,2447072906073767.0,401803593913.0239,1075965863309.0251,25662473375848.625,768247149317487.8
5.823723841249277,9699464289821118.0,1.4836862829704152e+16,1806807998250973.8,2490078611459192.0,424597751228.9406,1137005203087.0637,27118308962509.895,811832018256051.9
6.040198318074262,9866584361584410.0,1.512481417435844e+16,1837938983810522.0,2532982230293142.5,448236484278.99963,1200306211481.1726,28628087641004.414,857031968333602.4
6.261002284435747,1.0033348305421314e+16,1.5413968624335962e+16,1869003630163577.5,2575794422799426.0,472742451056.98425,1265929565213.155,30193256642665.867,903890337292706.6
6.486222330124463,1.0199794570290914e+16,1.5704427750695508e+16,1900009099549734.0,2618525059722458.0,498138925869.46466,1333937591519.6482,31815302567301.453,952451642047721.4
6.715946776726952,1.0365958768076264e+16,1.5996290270990996e+16,1930962025720461.8,2661183283463100.0,524449809218.63776,1404394294623.377,33495752014657.457,1002761597612651.9
6.950265712261491,1.0531873886081284e+16,1.6289652376269414e+16,1961868553522859.0,2703777562631554.5,551699638073.0321,1477365383243.3455,35236172240666.65,1054867136771726.5
7.18927102650672,1.069757047713184e+16,1.6584608026472942e+16,1992734374311500.5,2746315740850763.0,579913596501.8026,1552918299078.9966,37038171836930.49,1108816430446324.8
7.433056447036854,1.0863076830056694e+16,1.6881249218207692e+16,2023564757705504.0,2788805080522824.0,609117526651.4335,1631122246211.5996,38903401432081.67,1164658908717728.2
7.681717575977592,1.1028419122930426e+16,1.717966622828029e+16,2054364580134495.2,2831252302170072.5,639337940046.1648,1712048221372.9016,40833554413834.74,1222445282470027.0
7.935351927497144,1.1193621561129748e+16,1.7479947835929238e+16,2085138350555607.2,2873663619877277.0,670602029195.6833,1795769045036.8926,42830367670673.87,1282227565621721.2
8.194058966047088,1.1358706501975914e+16,1.778218152628102e+16,2115890233671754.2,2916044773290302.5,702937679495.4447,1882359393295.5872,44895622352243.66,1344059097918034.2
8.45794014536803,1.1523694567500448e+16,1.8086453677222276e+16,2146624070937569.2,2958401056565699.0,736373481406.5782,1971895830483.9343,47031144647610.84,1407994568259035.8
8.72709894827539,1.1688604746671414e+16,1.8392849731595292e+16,2177343399601981.2,3000737344614516.0,770938742903.734,2064456842522.56,49238806580651.555,1474090038541303.2
9.0016409272409,1.185345448824578e+16,1.870145435637836e+16,2208051470004730.2,3043058116939776.0,806663502180.3411,2160122870950.2776,51520526821896.08,1542402967993041.5
9.281673745785717,1.2018259785269846e+16,1.9012351590305388e+16,2238751261316981.8,3085367479329578.0,843578540601.8099,2258976347621.0386,53878271516221.46,1612992237984550.8
9.567307220701432,1.2183035252121848e+16,1.9325624981199844e+16,2269445495892793.0,3127669183635832.5,881715395898.0876,2361101730042.239,56314055125850.63,1685918177297642.5
9.85865336511546,1.234779419488587e+16,1.9641357714145068e+16,2300136652378300.5,3169966645840832.5,921106375587.7156,2466585537333.4614,58829941288149.195,1761242587838987.8
10.155826432417769,1.2512548675751742e+16,1.9959632731479004e+16,2330826977708045.5,3212262962590209.0,961784570626.2327,2575516386786.522,61428043687771.22,1839028770783768.5
10.458942961066125,1.2677309572055832e+16,2.0280532845489052e+16,2361518498103107.0,3254560926350096.0,1003783869272.3469,2687985031009.1343,64110526942729.03,1919341553137032.8
10.768121820287448,1.2842086630508276e+16,2.0604140844581292e+16,2392213029172445.0,3296863039328529.5,1047138971165.8315,2804084395636.1484,66879607504003.98,2002247314701252.8
11.083484256693197,1.3006888517091274e+16,2.093053959361154e+16,2422912185207936.0,3339171526285462.0,1091885401611.5502,2923909617593.2646,69737554568340.6,2087814015439316.2
11.405153941827061,1.3171722863059924e+16,2.1259812128992664e+16,2453617387753361.5,3381488346342306.5,1138059526064.4202,3047558083899.5283,72686691003894.03,2176111223223189.5
11.733257020663602,1.3336596307431838e+16,2.1592041749124304e+16,2484329873519363.5,3423815203889963.0,1185698564810.5615,3175129470995.7246,75729394288426.23,2267210141958943.0
12.067922161076874,1.3501514536310172e+16,2.1927312100634604e+16,2515050701708473.5,3466153558683998.5,1234840607840.0974,3306725784586.652,78868097459764.69,2361183640079784.5
12.409280604298411,1.3666482319350284e+16,2.226570726087205e+16,2545780760808115.5,3508504635206429.5,1285524629907.5364,3442451399986.4287,82105290078263.47,2458106279399003.0
12.75746621638438,1.3831503543647612e+16,2.2607311817041816e+16,2576520774903155.0,3550869431365603.0,1337790505775.8508,3582413102956.3438,85443519201013.92,2558054344315672.5
13.112615540712067,1.3996581245297962e+16,2.2952210942341708e+16,2607271309555026.0,3593248726598405.0,1391679025640.677,3726720131025.802,88885390367588.17,2661105871366076.0
13.474867851526309,1.4161717638856398e+16,2.3300490469416428e+16,2638032777289234.5,3635643089433056.5,1447231910731.3293,3875484215287.538,92433568597094.81,2767340679114656.5
13.844365208556836,1.4326914144899186e+16,2.3652236961420376e+16,2668805442729549.5,3678052884564926.5,1504491829085.556,4028819622658.9014,96090779396356.86,2876840398378647.5
14.221252512727972,1.4492171415874154e+16,2.400753778095055e+16,2699589427413455.0,3720478279492891.0,1563502411495.2727,4186843198601.69,99859809779035.23,2989688502780910.5
14.605677562982532,1.4657489360407888e+16,2.436648115708709e+16,2730384714320045.0,3762919250759565.0,1624308267620.6526,4349674410293.858,103743509295528.34,3105970339626184.0
14.997791114242183,1.482286716622239e+16,2.4729156250758204e+16,2761191152138917.0,3805375589834579.5,1686955002270.302,4517435390246.67,107744791073509.14,3225773161096285.5
15.397746936527026,1.4988303321801028e+16,2.509565321862516e+16,2792008459306063.5,3847846908676661.0,1751489231845.4177,4690250980362.136,111866632868958.6,3349186155760215.5
15.805701875257567,1.5153795636930128e+16,2.5466063275668588e+16,2822836227830420.0,3890332645007235.5,1817958600946.1047,4868248776425.429,116112078127590.95,3476300480395787.5
16.221815912762718,1.5319341262233174e+16,2.584047875663935e+16,2853673926932539.0,3932832067325192.5,1886411799138.352,5051559173028.631,120484237056562.78,3607209292119722.5
16.64625223101797,1.5484936707802688e+16,2.6218993176525456e+16,2884520906515511.5,3975344279690250.5,1956898577880.2754,5240315408922.127,124986287706386.44,3742007780823772.5
17.079177275638333,1.5650577861028362e+16,2.660170129017206e+16,2915376400485778.0,4017868226299749.0,2029469767606.6829,5434653612790.783,129621477062990.39,3880793201914792.5
17.5207608211511,1.581626000370934e+16,2.698869915118397e+16,2946239529940945.5,4060402695881845.5,2104177294971.203,5634712849453.516,134393122149869.86,4023664909357516.5
17.97117603757412,1.5981977828533684e+16,2.7380084170225364e+16,2977109306239486.0,4102946325926110.5,2181074200245.533,5840635166484.436,139304611140308.75,4170724389018996.5
18.430599558325603,1.614772545499938e+16,2.777595517282713e+16,3007984633966495.0,4145497606770880.0,2260214654875.6914,6052565641256.041,144359404479661.7,4322075292314612.5
18.899211549492115,1.6313496444846452e+16,2.8176412456801084e+16,3038864313808423.0,4188054885564993.5,2341653979195.469,6270652428404.225,149561036017715.75,4477823470155902.5
19.37719578048196,1.64792838170641e+16,2.8581557849353596e+16,3069747045348509.5,4230616370120513.5,2425448660297.645,6495046807717.447,154913114151158.66,4638077007201268.0
19.864739696091597,1.6645080062530752e+16,2.8991494763985884e+16,3100631429793997.0,4273180132671162.5,2511656370063.817,6725903232451.792,160419322976223.78,4802946256411236.0
20.36203449001343,1.681087715834186e+16,2.9406328257261184e+16,3131515972645053.0,4315744113550529.5,2600335983354.201,6963379378075.873,166083423451580.75,4972543873910721.0
20.869275179813698,1.6976666581874056e+16,2.982616508551236e+16,3162399086314671.0,4358306124802820.0,2691547596358.9326,7207636191449.949,171909254571593.6,5146984854161386.0
21.38666068340997,1.714243932463264e+16,3.0251113761562056e+16,3193279092708113.5,4400863853737632.0,2785352545113.152,7458837940444.683,177900734550070.12,5326386565448063.0
21.91439389707817,1.7308185905922934e+16,3.0681284611519216e+16,3224154225769632.0,4443414866439898.5,2881813424178.1226,7717152264006.596,184061862014668.0,5510868785683923.0
22.452681775019734,1.7473896386385578e+16,3.1116789831714508e+16,3255022634003830.5,4485956611244569.0,2980994105491.525,7982750222678.049,190396717212142.66,5700553738540182.0
23.00173541052013,1.7639560381430112e+16,3.155774354583168e+16,3285882382978021.5,4528486422185437.0,3082959757390.248,8255806349580.78,196909463224665.0,5895566129906426.0
23.561770118730532,1.7805167074599892e+16,3.2004261862290436e+16,3316731457811863.0,4571001522426129.0,3187776863809.554,8536498701873.765,203604347197447.0,6096033184689459.0
24.133005521105144,1.7970705230897804e+16,3.2456462931931412e+16,3347567765659622.5,4613499027681160.0,3295513243663.049,8825008912696.945,210485701577969.44,6302084683958518.0
24.715665631527248,1.8136163210099868e+16,3.2914467006051804e+16,3378389138190261.0,4655975949633892.0,3406238070408.3574,9121522243614.227,217557945367113.47,6513853002446643.0
25.309978944157795,1.8301528980081204e+16,3.337839649483852e+16,3409193334069792.5,4698429199357539.0,3520021891803.8965,9426227637570.428,224825585382560.38,6731473146418080.0
25.91617852304095,1.846679013017679e+16,3.3848376026242812e+16,3439978041450056.0,4740855590745269.0,3636936649862.782,9739317772377.928,232293217534827.2,6955082791913648.0
26.53450209350177,1.8631933884596736e+16,3.432453250533687e+16,3470740880467750.5,4783251843954136.0,3757055701010.441,10060989114751.35,239965528116372.5,7184822323386148.0
27.165192135371807,1.879694711591414e+16,3.480699517419399e+16,3501479405756947.0,4825614588867769.0,3880453836453.0054,10391441974908.498,247847295104228.2,7420834872739566.0
27.808495978079243,1.896181635864119e+16,3.5295895672328964e+16,3532191108977994.0,4867940368581713.0,4007207302764.3374,10730880561759.67,255943389476645.53,7663266358786950.0
28.464665897640828,1.9126527822907596e+16,3.579136809773645e+16,3562873421365544.5,4910225642914891.0,4137393822699.9277,11079513038706.627,264258776544302.94,7912265527142709.0
29.133959215593645,1.9291067408253304e+16,3.629354906856121e+16,3593523716297850.0,4952466791950600.0,4271092616246.7827,11437551580075.98,272798517296644.28,8167983990566524.0
29.816638399905518,1.9455420717545428e+16,3.680257778543551e+16,3624139311889217.5,4994660119609333.0,4408384421918.815,11805212428212.955,281567769763966.5,8430576269777388.0
30.51297116790363,1.961957307102875e+16,3.7318596094514504e+16,3654717473607277.0,5036801857255813.0,4549351518308.089,12182715951262.84,290571790395920.44,8700199834757117.0
31.223230591261704,1.9783509520515696e+16,3.784174855124297e+16,3685255416916320.0,5078888167341841.0,4694077745902.832,12570286701669.814,299815935457119.2,8977015146564364.0
31.947695203086937,1.9947214863721536e+16,3.837218248488248e+16,3715750309947620.5,5120915147086640.0,4842648529183.856,12968153475424.025,309305662440596.2,9261185699681410.0
32.686649107148675,2.011067365874869e+16,3.8910048063829256e+16,3746199276197592.0,5162878832195161.0,4995150899011.659,13376549372090.582,319046531499923.25,9552878064916758.0
33.44038208929165,2.0273870238722144e+16,3.945549836175209e+16,3776599397254009.5,5204775200615350.0,5151673515317.174,13795711855654.281,329044206900778.9,9852261932888868.0
34.20918973107749,2.0436788726576364e+16,4.000868942457717e+16,3806947715550559.5,5246600176334394.0,5312306690109.807,14225882816218.203,339304458492888.56,1.0159510158116606e+16
34.993373525699035,2.0599413049994e+16,4.056978033834814e+16,3837241237149579.0,5288349633213801.0,5477142410817.276,14667308632593.236,349833163203218.0,1.047479880374411e+16
35.793240996213015,2.07617269564937e+16,4.113893329798893e+16,3867476934552600.5,5330019398862671.0,5646274363971.978,15120240235820.018,360636306551413.5,1.0798307186928714e+16
36.60910581613728,2.0923714028663948e+16,4.171631367699394e+16,3897651749538091.0,5371605258548715.0,5819797959259.983,15584933173665.281,371719984188470.7,1.1130217924921762e+16
37.44128793246003,2.1085357699538144e+16,4.230209009807304e+16,3927762596025538.0,5413102959145396.0,5997810353948.744,16061647676136.318,383090403459707.75,1.1470716981874198e+16
38.29011369110923,2.124664126810625e+16,4.289643450477684e+16,3957806362964912.5,5454508213113968.0,6180410477710.959,16550648722060.182,394753884993122.8,1.181999371639883e+16
39.15591596493141,2.1407547914953744e+16,4.349952223412516e+16,3987779917249926.0,5495816702518620.0,6367699057861.917,17052206106774.844,406716864314280.6,1.2178240929923892e+16
40.03903428423004,2.15680607180232e+16,4.411153209026753e+16,4017680106653995.0,5537024083072566.0,6559778645029.339,17566594510981.832,418985893488910.5,1.2545654915872782e+16
40.93981496991464,2.1728162668485576e+16,4.473264641919619e+16,4047503762786847.5,5578125988212801.0,6756753639274.1455,18094093570812.453,431567642794434.25,1.2922435509706472e+16
41.85861126931294,2.188783668671427e+16,4.536305118453936e+16,4077247704070115.5,5619118033200900.0,6958730316682.522,18634987949159.062,444468902421695.6,1.3308786139866468e+16
42.7957834946992,2.2047065638348916e+16,4.600293604445512e+16,4106908738729578.0,5659995819246940.0,7165816856449.19,19189567408327.926,457696584208186.06,1.370491387965673e+16
