t(s),Total solute volume 1,Total retention volume 1,Total 1 volume 1,Total 2 volume 1,Total 3 volume 1,Total 4 volume 1,Total 5 volume 1,Total 6 volume 1
0.1,1225891390677807.5,1918426285810987.5,281662698191601.44,410872196941578.9,0.0,0.0,0.0,0.0
0.202,1844647253228188.5,2886750860317610.5,423829006091797.3,618255682843586.2,7139301.077747609,20863730.398583684,566773629.1460954,18323377377.76721
0.30604000000000003,2316482094648041.0,3625165453086001.5,532238509771150.6,776396802021355.1,18109973.829634234,52924326.96102035,1437876833.5528488,46537734320.86422
0.41216080000000005,2715683808257835.0,4249922953175949.0,623959713281511.8,910194053402867.8,32165467.259221334,94000008.61527447,2553958930.0607576,82698109327.96509
0.5204040160000001,3070240864516043.5,4804822294773296.0,705423291149177.8,1029028110847663.4,48974097.1153427,143121453.99305934,3888672107.551617,125947492750.07986
0.6308120963200001,3394115629095825.0,5311713039620137.0,779837258173297.6,1137578629368044.8,68357992.85569817,199768851.96994072,5427888775.858653,175826967339.43015
0.7434283382464002,3695427470066878.0,5783301107728938.0,849067132943767.8,1238566912857254.5,90215536.68770908,263645233.70687947,7163538118.863433,232074462149.98325
0.8582969050113283,3979379277688116.5,6227728472305379.0,914308339584501.9,1333736772549753.8,114489481.42388968,334583299.4598525,9091073375.657736,294542336844.91156
0.9754628431115548,4249537034542329.5,6650575547394060.0,976380203774765.5,1424283390376237.5,141151239.5282051,412499504.63629377,11208223920.943808,363156826051.91956
1.094972099973786,4508468806078528.0,7055861136084115.0,1035872768207333.2,1511067484338094.0,170192182.15425292,497368632.00612116,13514304193.6045,437895595154.16034
1.2168715419732616,4758095651301916.0,7446591565007788.0,1093227418372523.4,1594732920447783.8,201618411.0769868,589208513.1509203,16009798474.965178,518774260166.46625
1.3412089728127268,4999898634186547.0,7825084632505978.0,1148784445821092.2,1675776095093849.5,235447423.5692066,688070281.8770894,18696096014.51307,605837790778.5219
1.4680331522689813,5235047980100880.0,8193171722640310.0,1202812723344604.2,1754589223370057.2,271705886.1309168,794031868.1507285,21575314223.38822,699154772784.2517
1.597393815314361,5464487372856154.0,8552329719537008.0,1255529073195791.5,1831488592244610.2,310428095.52818006,907193500.6309075,24650176454.322052,798813442395.8779
1.729341691620648,5688991052080491.0,8903770357506165.0,1307111385869636.8,1906733697431489.5,351654885.76383597,1027674512.396868,27923925197.057194,904918869944.0869
1.863928525453061,5909203707902007.0,9248502651063440.0,1357707786367505.8,1980540614572975.0,395432835.5294149,1155611024.8029964,31400259137.363068,1017590917948.6393
2.001207095962122,6125669102280103.0,9587377683574116.0,1407443210278534.2,2053091592022846.5,441813684.71455616,1291154242.2843518,35083286818.78336,1136962737886.1895
2.1412312378813647,6338851075153586.0,9921121479115138.0,1456424230184743.0,2124542091309355.8,490853900.43393624,1434469184.1126351,38977492178.51492,1263179652195.0986
2.284055862638992,6549149269906483.0,1.0250359610764332e+16,1504742668768373.8,2195026057714072.0,542614352.6056286,1585733736.3056633,43087708783.393555,1396398318519.8723
2.4297369798917723,6756911112227613.0,1.0575635945955302e+16,1552478351093235.0,2264659935130624.0,597160071.5454851,1745137943.220618,47419100579.200066,1536786105240.1035
2.578331719489608,6962441076649973.0,1.0897427147425218e+16,1599701233699105.8,2333545771856705.0,654560068.1716027,1912883482.1191456,51977147612.129265,1684520628281.501
2.7298983538794,7166007954073888.0,1.121615404598415e+16,1646473074399108.5,2401773656391799.5,714887202.868088,2089183279.934519,56767635614.506905,1839789413265.19
2.884496320956988,7367850622229844.0,1.153219067060185e+16,1692848758110188.5,2469423651477123.5,778218092.8022486,2274261242.415084,61796648644.244934,2002789656701.5552
3.0421862473761276,7568182678747976.0,1.1845871498642794e+16,1738877361354307.8,2536567346924533.0,844633050.1126313,2468352073.4847827,67070564175.864334,2173728066694.6155
3.2030299723236504,7767196198776303.0,1.2157497336154232e+16,1784603015614643.2,2603269119027439.5,914216045.2569466,2671701168.1308246,72596050189.54611,2352820768444.819
3.3670905717701234,7965064810751025.0,1.2467340131169028e+16,1830065614029336.5,2669587161442156.5,987054691.1660192,2884564566.0950575,78380063912.45471,2540293263335.0986
3.5344323832055258,8161946235345959.0,1.2775646946971806e+16,1875301394744410.2,2735574336147327.5,1063240244.8491262,3107208956.565185,84429851945.92094,2736380432958.7114
3.7051210308696363,8357984397581167.0,1.3082643267431088e+16,1920343426195146.8,2801278881342475.5,1142867623.8415098,3339911726.240763,90752951571.2805,2941326581368.2183
3.879223451487029,8553311196437804.0,1.338853576638889e+16,1965222013695518.0,2866745004555734.0,1226035435.4483428,3582961044.795538,97357193071.9042,3155385510276.1987
4.0568079205167695,8748047997341441.0,1.3693514643390418e+16,2009965042353479.2,2932013382867521.5,1312846017.1699855,3836655983.0161233,104250702943.16173,3378820623047.626
4.237944078927105,8942306898652625.0,1.39977556057787e+16,2054598268061775.0,2997121587390085.5,1403405487.026407,4101306659.8697467,111441907888.48628,3611905054181.433
4.422702960505647,9136191812531852.0,1.430142156032279e+16,2099145565839166.0,3062104445532362.5,1497823802.7582018,4377234415.513179,118939539520.35204,3854921821647.7305
4.61115701971576,9329799392307780.0,1.4604664064656898e+16,2143629142903986.5,3126994351818610.0,1596214829.086629,4664772007.853245,126752639701.21971,4108163999974.7456
4.803380160110075,9523219832117928.0,1.4907624578855398e+16,2188069722400800.0,3191821535897573.0,1698696412.3777533,4964263830.745088,134890566472.45685,4371934912398.742
4.9994477633122765,9716537559639596.0,1.5210435549720436e+16,2232486702563372.5,3256614294719581.5,1805390462.186481,5276066152.296233,143363000529.5901,4646548340726.862
5.199436718578522,9909831838842426.0,1.551322135427718e+16,2276898295204000.0,3321399194556296.0,1916423039.2618349,5600547372.052944,152179952210.65338,4932328751834.483
5.403425452950093,1.0103177296619668e+16,1.5816099124162002e+16,2321321646713133.0,3386201247507534.0,2031924449.6809752,5938088296.097327,161351768971.21936,5229611539940.714
5.611493962009095,1.0296644384708082e+16,1.6119179468757268e+16,2365772944190805.0,3451044066319256.5,2152029344.850242,6289082429.290102,170889143325.3329,5538743283988.033
5.823723841249277,1.0490299786342688e+16,1.642256711185569e+16,2410267508880266.0,3515950000678766.5,2276876827.170055,6653936284.065387,180803121236.21506,5860082019602.61
6.040198318074262,1.0684206775508966e+16,1.6726361454158138e+16,2454819878710299.5,3580940257622444.0,2406610561.209425,7033069705.326976,191105110944.4844,6193997525238.142
6.261002284435747,1.0878425535369834e+16,1.703065707189724e+16,2499443881457537.5,3646035008260370.0,2541378890.277014,7426916211.115257,201806892224.9155,6540871622211.67
6.486222330124463,1.1073013441395314e+16,1.7335544160237492e+16,2544152699798761.5,3711253482670621.0,2681334958.310449,7835923348.816332,212920626065.52274,6901098488430.009
6.715946776726952,1.1268025313861614e+16,1.7641108928754708e+16,2588958929325412.5,3776614054527337.5,2826636837.035438,8260553066.77146,224458864765.11392,7275084985681.495
6.950265712261491,1.1463513643675968e+16,1.7947433955186864e+16,2633874630429557.5,3842134316788684.5,2977447658.371786,8701282101.220293,236434562447.50494,7663251000434.39
7.18927102650672,1.1659528794896056e+16,1.8254598502727012e+16,2678911374835011.5,3907831149573664.0,3133935752.085851,9158602378.575956,248861085992.34235,8066029798140.172
7.433056447036854,1.1856119186821852e+16,1.8562678805362908e+16,2724080287435049.5,3973720781192331.0,3296274788.7082214,9633021433.087473,261752226384.04413,8483868391090.407
7.681717575977592,1.2053331458128484e+16,1.887174832512649e+16,2769392084003822.5,4039818843156990.0,3464643927.752785,10125062839.994965,275122210481.7184,8917227919919.842
7.935351927497144,1.2251210615165308e+16,1.918187798457812e+16,2814857105269782.5,4106140419886278.0,3639227971.2886605,10635266664.327843,288985713214.1447,9366584048888.42
8.194058966047088,1.2449800166255294e+16,1.9493136377398004e+16,2860485347772549.5,4172700093717369.5,3820217522.9301867,11164189925.53685,303357870205.0122,9832427375109.701
8.45794014536803,1.2649142243585432e+16,1.980558995957187e+16,2906286491868575.0,4239511985758888.5,4007809152.3226023,11712407078.186968,318254290834.5549,10315263851925.873
8.72709894827539,1.2849277714068278e+16,2.011930322333321e+16,2952269927202915.0,4306589793047537.5,4202205565.2127175,12280510508.971245,333691071744.6947,10815615226658.484
9.0016409272409,1.3050246280379422e+16,2.043433885574574e+16,2998444775923738.5,4373946822412011.0,4403615779.204062,12869111050.337631,349684810795.5812,11334019492991.77
9.281673745785717,1.3252086573222622e+16,2.075075788357429e+16,3044819913881319.5,4441596021396781.5,4612255305.306052,13478838511.047983,366252621482.2392,11871031358270.137
9.567307220701432,1.3454836235744998e+16,2.1068619805885596e+16,3091403990023358.5,4509550006554844.0,4828346335.396013,14110342224.016546,383412147820.7428,12427222726015.088
9.85865336511546,1.365853200091194e+16,2.1387982715648868e+16,3138205444172840.5,4577821089380852.0,5052117935.721286,14764291611.800257,401181579714.0252,13003183193990.062
10.155826432417769,1.3863209762555754e+16,2.1708903411451864e+16,3185232523352193.5,4646421300123919.0,5283806246.577123,15441376770.137371,419579668808.12604,13599520568162.258
10.458942961066125,1.406890464072798e+16,2.203143750031954e+16,3232493296798802.0,4715362409691267.0,5523654688.304412,16142309069.954473,438625744850.2627,14216861392931.133
10.768121820287448,1.4275651041912508e+16,2.2355639492507944e+16,3279995669799634.5,4784655949829274.0,5771914173.758288,16867821778.284857,458339732560.7711,14855851498014.135
11.083484256693197,1.4483482714594574e+16,2.268156288904716e+16,3327747396458878.0,4854313231748271.0,6028843327.406915,17618670698.56212,478742169031.53546,15517156562398.066
11.405153941827061,1.4692432800624718e+16,2.3009260262722696e+16,3375756091499376.5,4924345363337609.0,6294708711.226591,18395634830.77596,499854221664.11285,16201462695784.846
11.733257020663602,1.4902533882769182e+16,2.3338783333106744e+16,3424029241187927.5,4994763265102848.0,6569785057.566994,19199517051.99719,521697706661.3461,16909477037978.428
12.067922161076874,1.5113818028796254e+16,2.3670183036187696e+16,3472574213464574.0,5065577684941761.0,6854355509.167096,20031144817.799854,544295108086.81866,17641928376678.203
12.409280604298411,1.5326316832410608e+16,2.4003509589086876e+16,3521398267347789.5,5136799211864061.0,7148711866.510039,20891370885.130703,567669597507.075,18399567784162.4
12.75746621638438,1.5540061451315802e+16,2.4338812550300452e+16,3570508561679741.5,5208438288748413.0,7453154842.711587,21781074057.195328,591845054232.0927,19183169273364.18
13.112615540712067,1.5755082642655442e+16,2.4676140875860132e+16,3619912163269358.0,5280505224221018.0,7767994326.144704,22701159950.951324,616846086170.0593,19993530473860.195
13.474867851526309,1.5971410796059594e+16,2.501554297176724e+16,3669616054485031.5,5353010203731482.0,8093549651.009296,23652561787.821476,642698051313.096,20831473328310.383
13.844365208556836,1.6189075964498586e+16,2.5357066743017024e+16,3719627140343736.5,5425963299893906.0,8430149876.063822,24636241208.25854,669427079871.0741,21697844809906.883
14.221252512727972,1.640810789312848e+16,2.5700759639503304e+16,3769952255138542.0,5499374482154664.0,8778134071.742435,25653189110.815914,697060097071.3457,22593517661408.023
14.605677562982532,1.6628536046293272e+16,2.6046668699059788e+16,3820598168642745.5,5573253625842655.0,9137851615.888678,26704426516.399845,725624846642.7158,23519391156350.91
14.997791114242183,1.6850389632834e+16,2.6394840587876692e+16,3871571591924805.0,5647610520651864.0,9509662498.344587,27791005458.4,755149915002.586,24476391883059.066
15.397746936527026,1.7073697629839796e+16,2.6745321638503016e+16,3922879182805584.0,5722454878601836.0,9893937634.64091,28914009899.417572,785664756166.8424,25465474552076.156
15.805701875257567,1.7298488804965152e+16,2.709815788562961e+16,3974527550985884.5,5797796341517614.0,10291059189.042412,30074556675.332874,817199717402.6095,26487622827680.996
16.221815912762718,1.7524791737424276e+16,2.7453395099827772e+16,4026523262870164.5,5873644488066178.0,10701420907.209688,31273796467.475685,849786065644.6599,27543850184155.426
16.64625223101797,1.7752634837765032e+16,2.7811078819404332e+16,4078872846109882.0,5950008840383990.0,11125428458.747261,32512914803.687366,883456014696.857,28635200787499.414
17.079177275638333,1.79820463665149e+16,2.817125438051826e+16,4131582793887556.0,6026898870326366.0,11563499789.914728,33793133089.08436,918242753240.6863,29762750403308.74
17.5207608211511,1.8213054451783776e+16,2.853396694569265e+16,4184659568961221.5,6104324005367257.0,12016065486.787952,35115709667.359604,954180473673.5693,30927607331548.51
17.97117603757412,1.844568710590068e+16,2.889926153084374e+16,4238109607486933.0,6182293634175297.0,12483569149.1632,36481940913.47974,991304401800.3057,32130913368982.855
18.430599558325603,1.8679972241155092e+16,2.9267183030937896e+16,4291939322635528.5,6260817111889667.0,12966467775.5079,37893162358.66564,1029650827401.7146,33373844800037.227
18.899211549492115,1.891593768470821e+16,2.9637776244379136e+16,4346155108018587.0,6339903765117716.0,13465232159.269201,39350749848.56374,1069257135705.1708,34657613416897.926
19.37719578048196,1.9153611192732e+16,3.0011085896220636e+16,4400763340937157.5,6419562896673990.0,13980347296.86102,40856120735.547775,1110161839782.5488,35983467569671.69
19.864739696091597,1.939302046383218e+16,3.038715666028613e+16,4455770385465712.0,6499803790078976.0,14512312807.658886,42410735106.110985,1152404613901.6973,37352693247455.47
20.36203449001343,1.96341931518037e+16,3.0766033180280524e+16,4511182595383024.0,6580635713834303.0,15061643366.342024,44016097044.34262,1196026327858.3787,38766615191188.164
20.869275179813698,1.9877156877765708e+16,3.114776008996221e+16,4567006316960093.0,6662067925489873.0,15628869147.93091,45673755932.50649,1241069082316.3914,40226598039182.3
21.38666068340997,2.0121939241716976e+16,3.1532382032444896e+16,4623247891615413.0,6744109675516953.0,16214536285.879047,47385307789.766975,1287576245184.2705,41734047506258.21
21.91439389707817,2.036856783355277e+16,3.191994367868948e+16,4679913658445957.0,6826770211000300.0,16819207343.587063,49152396650.1427,1335592489057.885,43290411597427.234
22.452681775019734,2.0617070243576332e+16,3.2310489745245084e+16,4737009956642500.0,6910058779161632.0,17443461799.71761,50976715980.79067,1385163829758.9668,44897181857102.8
23.00173541052013,2.086747407254092e+16,3.27040650112903e+16,4794543127796829.0,6993984630724961.0,18087896547.70101,52860010141.76156,1436337666000.4548,46555894654836.11
23.561770118730532,2.111980694125105e+16,3.310071433502466e+16,4852519518107713.0,7078557023134791.0,18753126409.8306,54804075888.39181,1489162820210.473,48268132508609.92
24.133005521105144,2.1374096499751828e+16,3.3500482669455956e+16,4910945480492298.0,7163785223635947.0,19439784666.359173,56810763917.53495,1543689580547.4763,50035525446745.016
24.715665631527248,2.1630370436133124e+16,3.3903415077624256e+16,4969827376608962.0,7249678512224412.0,20148523600.01795,58881980458.86568,1599969744140.177,51859752409508.516
25.309978944157795,2.188865648497192e+16,3.430955674730286e+16,5029171578797009.0,7336246184476855.0,20880015056.393005,61019688912.521935,1658056661586.6072,53742542691537.71
25.91617852304095,2.2148982435435572e+16,3.4718953005212324e+16,5088984471938546.0,7423497554266646.0,21634951020.60303,63225911534.38927,1718005282747.7278,55685677426228.305
26.53450209350177,2.241137613906758e+16,3.513164933078047e+16,5149272455247293.0,7511441956373174.0,22414044210.736317,65502731170.362,1779872203871.873,57690991113262.07
27.165192135371807,2.2675865517273784e+16,3.5547691369481916e+16,5210041943988689.0,7600088748991114.0,23218028688.51723,67852293040.95402,1843715716087.3806,59760373190485.38
27.808495978079243,2.294247856852847e+16,3.5967124945783132e+16,5271299371135446.0,7689447316145486.0,24047660487.68363,70276806577.67065,1909595855301.6135,61895769651378.05
28.464665897640828,2.3211243375315456e+16,3.638999607572474e+16,5333051188962580.0,7779527070018176.0,24903718260.571007,72778547312.58603,1977574453545.8318,64099184709389.0
29.133959215593645,2.3482188110821524e+16,3.681635097916266e+16,5395303870584980.0,7870337453191187.0,25787003943.411514,75359858822.6138,2047715191806.1548,66372682510447.02
29.816638399905518,2.3755341045394384e+16,3.724623609169476e+16,5458063911441564.0,7961887940811295.0,26698343440.869553,78023154729.9944,2120083654382.1248,68718388894989.2
30.51297116790363,2.4030730552781216e+16,3.7679698076294024e+16,5521337830728338.0,8054188042680709.0,27638587330.350258,80770920760.56651,2194747384815.3984,71138493210886.7
31.223230591261704,2.430838511615752e+16,3.811678383466988e+16,5585132172783827.0,8147247305277965.0,28608611586.629623,83605716861.4281,2271775943432.2236,73635250178684.77
31.947695203086937,2.458833333396045e+16,3.8557540518377304e+16,5649453508429152.0,8241075313712842.0,29609318327.37143,86530179379.6354,2351240966544.4995,76210981810604.06
32.686649107148675,2.487060392553534e+16,3.900201553969188e+16,5714308436265535.0,8335681693619013.0,30641636580.109352,89547023303.6325,2433216227355.4014,78868079384801.94
33.44038208929165,2.5155225736607132e+16,3.945025658226902e+16,5779703583931414.0,8431076112987819.0,31706523071.28821,92659044569.14696,2517777698616.673,81609005476415.14
34.20918973107749,2.544222774458554e+16,3.990231161160267e+16,5845645609321270.0,8527268283946249.0,32804963037.97437,95869122431.33246,2605003617086.1685,84436296046956.12
34.993373525699035,2.5731639063712556e+16,4.035822888529966e+16,5912141201768353.0,8624267964482308.0,33937971062.859444,99180221904.98692,2694974549834.987,87352562593673.03
35.793240996213015,2.602348895006035e+16,4.081805696318483e+16,5979197083193145.0,8722084960120154.0,35106591933.19935,102595396274.71584,2787773462455.4233,90360494360522.23
36.60910581613728,2.6317806806388604e+16,4.128184471724857e+16,6046820009219128.0,8820729125547923.0,36311901524.34582,106117789676.96698,2883485789221.7485,93462860612446.12
37.44128793246003,2.6614622186866364e+16,4.174964134145222e+16,6115016770257977.0,8920210366200493.0,37555007708.54502,109750639755.90602,2982199505257.436,96662512974694.48
38.29011369110923,2.6913964801666744e+16,4.222149636140253e+16,6183794192565012.0,9020538639799378.0,38837051289.69445,113497280395.15135,3084005200763.8,99962387838966.53
39.15591596493141,2.7215864521440184e+16,4.269745964390634e+16,6253159139267110.0,9121723957851982.0,40159206964.76826,117361144527.44469,3188996157366.2266,103365508838200.11
40.03903428423004,2.7520351381671876e+16,4.317758140641765e+16,6323118511363825.0,9223776387112010.0,41522684312.63457,121345767024.37578,3297268426635.8477,106874989391879.14
40.93981496991464,2.782745558692889e+16,4.366191222638631e+16,6393679248703203.0,9326706051003074.0,42928728811.01476,125454787668.34354,3408920910845.686,110494035323774.44
41.85861126931294,2.8137207515002428e+16,4.415050305052011e+16,6464848330933583.0,9430523131006880.0,44378622882.34351,129691954208.98297,3524055446021.97,114225947554085.94
42.7957834946992,2.8449637720949676e+16,4.464340520396763e+16,6536632778432168.0,9535237868018048.0,45873686969.31478,134061125506.34137,3642776887352.8325,118074124867996.98
43.751699164593184,2.8764776941039596e+16,4.514067039943275e+16,6609039653211690.0,9640860563666336.0,47415280640.91507,138566274763.1544,3765193197017.793,122042066762705.86
