t(s),Total solute volume 1,Total retention volume 1,Total 1 volume 1,Total 2 volume 1,Total 3 volume 1,Total 4 volume 1,Total 5 volume 1,Total 6 volume 1
0.1,1390364305082634.2,4522349373840332.0,1040967157064613.5,2091017911693084.5,0.0,0.0,0.0,-7.577716622845604e-138
0.202,2023458158344385.0,6844607949427789.0,1514965374936330.2,3043152859613703.5,44145511905.26223,210797902738.91733,10942887741220.361,251833725377506.22
0.30604000000000003,2467728724421290.0,8706706323558036.0,1847591272976338.0,3711308045203627.5,108752880452.1821,519350132436.3368,27136078994725.02,652314098949163.1
0.41216080000000005,2812254643645261.0,1.0350464117552902e+16,2105538229830064.0,4229453430325009.0,187768635898.25632,896724779486.1083,46984232627588.56,1155149087709591.8
0.5204040160000001,3093183225362669.5,1.1869530227026424e+16,2315869785001273.0,4651952392874844.0,278137977790.67,1328329360531.271,69706879713332.55,1737211476735980.8
0.6308120963200001,3329223169913688.0,1.331068562740044e+16,2492593165717334.5,5006941665040362.0,377980166284.6889,1805180589629.2717,94827292410843.47,2384917173562293.0
0.7434283382464002,3531562195883741.5,1.4701054665881556e+16,2644084630251965.5,5311246878744226.0,486015008848.5751,2321163926386.8403,122022013404870.11,3089331768661513.5
0.8582969050113283,3707538076384835.5,1.60579681201482e+16,2775837977898856.0,5575903585042183.0,601318782453.1615,2871867524174.811,151058042956176.2,3844157251559520.5
0.9754628431115548,3862279129755537.5,1.739328813651553e+16,2891692786492320.0,5808624452229766.0,723199926751.6932,3453988426943.545,181761102385107.03,4644753477299097.0
1.094972099973786,3999538730241396.5,1.8715565761216876e+16,2994459211597244.5,6015054318535564.0,851127951341.8817,4064992984731.7773,213997565614737.75,5487599814291859.0
1.2168715419732616,4122161483864527.5,2.003122236701678e+16,3086267012950818.0,6199471291738348.0,984689337806.6475,4702906221833.87,247663285780652.53,6369971697122781.0
1.3412089728127268,4232362750673100.5,2.1345243952092812e+16,3168774833105096.0,6365207133225301.0,1123558495665.4011,5366173113328.928,282676252777925.8,7289733250702393.0
1.4680331522689813,4331905809305157.0,2.2661612456000052e+16,3243302840744895.5,6514913702425252.0,1267477734612.9758,6053562928421.503,318971539086165.6,8245197523775545.0
1.597393815314361,4422219272345867.0,2.3983585984352724e+16,3310920639702681.0,6650739542148178.0,1416242946413.413,6764100845529.08,356497691607233.1,9235028494756814.0
1.729341691620648,4504477809248048.0,2.5313887726478016e+16,3372507706302380.5,6774451280787358.0,1569693067368.676,7497017624601.126,395214079298916.06,1.0258170140149346e+16
1.863928525453061,4579659368791924.0,2.665483733330777e+16,3428796231880548.5,6887519691297424.0,1727702136892.5518,8251711679026.5,435088896177723.0,1.131379373134421e+16
2.001207095962122,4648586808001601.0,2.8008444731189684e+16,3480402290403458.0,6991182298460288.0,1890173193603.7593,9027719923802.95,476097627590688.4,1.2401257813616256e+16
2.1412312378813647,4711958856945179.0,2.937647866079014e+16,3527849021847913.5,7086489947989254.0,2057033505635.5054,9824694996026.51,518221852480110.44,1.3520077253026e+16
2.284055862638992,4770373598066436.0,3.0760517759963856e+16,3571584211203254.5,7174342117959365.0,2228230791046.3604,10642387204119.068,561448294730077.3,1.4669898920009546e+16
2.4297369798917723,4824346570596395.0,3.2161989312578964e+16,3611993843264538.5,7255514146696236.0,2403730186888.9707,11480630052615.799,605768062685205.0,1.5850482329097082e+16
2.578331719489608,4874324937751962.0,3.3582199105521908e+16,3649412709629883.5,7330678539345022.0,2583511793674.9272,12339328514994.693,651176033179287.2,1.7061684045307106e+16
2.7298983538794,4920698718480606.0,3.5022354760117716e+16,3684132817920182.0,7400421859701856.0,2767568668423.2383,13218449448884.432,697670348148742.1,1.8303444997749036e+16
2.884496320956988,4963809795925328.0,3.648358419762621e+16,3716410136426719.5,7465258278373227.0,2955905171844.2627,14118013702567.064,745252000075629.6,1.9575780067950868e+16
3.0421862473761276,5003959218103232.0,3.79669504240877e+16,3746470060137268.5,7525640552532660.0,3148535598218.618,15038089571579.955,793924488307257.1,2.0878769479837464e+16
3.2030299723236504,5041413170019731.0,3.947346349488725e+16,3774511882064545.5,7581969007600817.0,3345483033182.2427,15978787343751.389,843693532494821.5,2.221255163233039e+16
3.3670905717701234,5076407900309872.0,4.100409029284435e+16,3800712481827947.0,7634598946600580.0,3546778396876.6504,16940254729500.744,894566832476668.6,2.3577317098502892e+16
3.5344323832055258,5109153816568651.0,4.255976259304969e+16,3825229391831824.0,7683846809273221.0,3752459639064.3164,17922673017891.51,946553866230806.6,2.4973303576488212e+16
3.7051210308696363,5139838913365759.0,4.414138377213909e+16,3848203363823888.5,7729995327594396.0,3962571059722.4824,18926253831941.934,999665719258608.5,2.6400791623204764e+16
3.879223451487029,5168631659929132.0,4.574983443543821e+16,3869760530906962.0,7773297868666141.0,4177162733919.907,19951236381970.07,1053914940090390.1,2.7860101036729684e+16
4.0568079205167695,5195683446831736.0,4.738597717318589e+16,3890014239376116.0,7813982114378150.0,4396290023876.2915,20997885135306.703,1109315417631117.8,2.9351587779809576e+16
4.237944078927105,5221130670121310.0,4.905066061055668e+16,3909066609108801.5,7852253195805945.0,4620013164305.061,22066487835997.656,1165882276867159.2,3.087564135765317e+16
4.422702960505647,5245096515371871.0,5.074472288109684e+16,3927009869286210.5,7888296376310859.0,4848396909665.34,23157353820176.164,1223631790087832.5,3.2432682579310204e+16
4.61115701971576,5267692491824834.0,5.2468994626413976e+16,3943927507006341.0,7922279358790377.0,5081510233958.202,24270812582381.547,1282581301278687.0,3.4023161644697384e+16
4.803380160110075,5289019757202021.0,5.422430160435163e+16,3959895259172985.5,7954354278112644.0,5319426075312.686,25407212555791.766,1342749161746697.8,3.5647556509486212e+16
4.9994477633122765,5309170266247734.0,5.601146697187587e+16,3974981972410402.5,7984659428450502.0,5562221118908.088,26566920075549.84,1404154675362976.5,3.7306371488209816e+16
5.199436718578522,5328227770099876.0,5.7831313296377656e+16,3989250351293574.5,8013320766272085.0,5809975612835.87,27750318499412.082,1466818052073037.2,3.900013606252688e+16
5.403425452950093,5346268688841082.0,5.968466433921529e+16,4002757611628185.0,8040453222602119.0,6062773212369.114,28957807464074.906,1530760368540866.0,4.072940386692654e+16
5.611493962009095,5363362875766551.0,6.157234664747618e+16,4015556052658779.0,8066161852432135.0,6320700848818.5205,30189802258931.285,1596003534970669.8,4.249475182854026e+16
5.823723841249277,5379574288823439.0,6.349519098366322e+16,4027693559776179.0,8090542844522560.0,6583848619740.945,31446733301814.406,1662570267297089.2,4.4296779441322376e+16
6.040198318074262,5394961582169874.0,6.5454033617964056e+16,4039214047418365.0,8113684411069957.0,6852309697755.302,32729045703616.9,1730484064056668.5,4.613610815784788e+16
6.261002284435747,5409578628751869.0,6.744971750367602e+16,4050157850324360.5,8135667573629318.0,7126180255627.002,34037198910617.125,1799769187354973.0,4.8013380884449256e+16
6.486222330124463,5423474983110520.0,6.948309335303317e+16,4060562070038522.5,8156566859146838.0,7405559405623.711,35371666414974.45,1870450647429156.2,4.992926156748752e+16
6.715946776726952,5436696292238859.0,7.155502062796404e+16,4070460882519507.5,8176450917862469.0,7690549151431.769,36732935525223.89,1942554190377319.8,5.188443486028922e+16
6.950265712261491,5449284661150443.0,7.366636845806763e+16,4079885811841869.0,8195383073101861.0,7981254351164.803,38121507189757.55,2016106288686563.2,5.387960586174597e+16
7.18927102650672,5461278978856455.0,7.581801649624976e+16,4088865974255493.0,8213421811525270.0,8277782690201.023,39537895867258.64,2091134134242884.2,5.5915499918812216e+16
7.433056447036854,5472715209639441.0,7.801085572092592e+16,4097428296262540.5,8230621221184789.0,8580244662759.928,40982629438886.15,2167665633549610.8,5.799286248618797e+16
7.681717575977592,5483626653831188.0,8.024578919241963e+16,4105597709862159.5,8247031383717731.0,8888753561277.523,42456249157716.87,2245729404918174.0,6.011245903737136e+16
7.935351927497144,5494044181727837.0,8.25237327701125e+16,4113397327683007.0,8262698726140206.0,9203425472765.992,43959309631557.94,2325354777426765.5,6.2275075022030376e+16
8.194058966047088,5503996443788291.0,8.484561579600853e+16,4120848600358966.5,8277666336972162.0,9524379281452.5,45492378835760.15,2406571791469595.0,6.448151586530222e+16
8.45794014536803,5513510059847618.0,8.721238174960974e+16,4127971458193507.5,8291974250802398.0,9851736677085.062,47056038153110.57,2489411200742832.0,6.673260700519323e+16
8.72709894827539,5522609789723970.0,8.962498887836803e+16,4134784438893230.5,8305659704870613.0,10185622168373.875,48650882438265.484,2573904475533530.0,6.902919396474011e+16
9.0016409272409,5531318687294899.0,9.208441080742494e+16,4141304802925010.5,8318757370788417.0,10526163101105.75,50277520104515.37,2660083807195039.0,7.137214245601595e+16
9.281673745785717,5539658239859183.0,9.459163713189456e+16,4147548637856335.0,8331299564130775.0,10873489680529.701,51936573230962.81,2747982113707630.5,7.376233851342914e+16
9.567307220701432,5547648494376850.0,9.714767399454634e+16,4153530952871349.5,8343316434292991.0,11227734997663.064,53628677688439.95,2837633046236059.0,7.620068865408299e+16
9.85865336511546,5555308171986919.0,9.975354465140411e+16,4159265764510448.5,8354836136718217.0,11589035059213.5,55354483282709.17,2929070996606977.0,7.86881200632397e+16
10.155826432417769,5562654772035473.0,1.0241029002749018e+17,4164766174556167.5,8365884989349054.0,11957528820851.06,57114653913679.82,3022331105639311.5,8.122558080317565e+16
10.458942961066125,5569704666701535.0,1.051189692646898e+17,4170044440879739.0,8376487614939061.0,12333358223598.863,58909867749534.29,3117449272268950.5,8.381404004392742e+16
10.768121820287448,5576473187182551.0,1.0788066026349694e+17,4175112041968208.0,8386667070670111.0,12716668233141.264,60740817414804.54,3214462163416924.5,8.645448831461117e+16
11.083484256693197,5582974702290894.0,1.1069646022021477e+17,4179979735769773.5,8396444966356742.0,13107606881874.139,62608210191561.016,3313407224556774.0,8.914793777416714e+16
11.405153941827061,5589222690217415.0,1.13567486161022e+17,4184657613423208.0,8405841572373985.0,13506325313545.24,64512768232989.55,3414322690942461.5,9.18954225005184e+16
11.733257020663602,5595229804133537.0,1.1649487547417709e+17,4189155148374242.5,8414875918318799.0,13912977830352.918,66455228788725.98,3517247599463523.0,9.469799879726795e+16
12.067922161076874,5601007932230213.0,1.194797864415073e+17,4193481241326772.5,8423565883304856.0,14327721942388.834,68436344441404.56,3622221801098408.5,9.75567455171633e+16
12.409280604298411,5606568252726733.0,1.2252339877022618e+17,4197644261428082.5,8431928278692454.0,14750718419326.678,70456883353951.53,3729285973941121.5,1.0047276440166454e+17
12.75746621638438,5611921284326126.0,1.2562691412602749e+17,4201652084044788.0,8439978923970164.0,15182131344272.145,72517629527220.14,3838481636779608.5,1.0344718043603538e+17
13.112615540712067,5617076932542783.0,1.2879155666832421e+17,4205512125448417.5,8447732716428754.0,15622128169702.145,74619383067623.72,3949851163207557.0,1.064811422194594e+17
13.474867851526309,5622044532284240.0,1.3201857358842901e+17,4209231374696451.0,8455203695201470.0,16070879775431.895,76762960464474.55,4063437796253981.0,1.0957582234975304e+17
13.844365208556836,5626832887029220.0,1.3530923565141109e+17,4212816422964965.5,8462405100185462.0,16528560528558.395,78949194876783.48,4179285663517450.5,1.1273241782230859e+17
14.221252512727972,5631450304909648.0,1.3866483774230794e+17,4216273490563237.0,8469349426306761.0,16995348345337.324,81178936429315.1,4297439792793964.5,1.1595215044295966e+17
14.605677562982532,5635904631972901.0,1.4208669941732758e+17,4219608451837310.0,8476048473544729.0,17471424754958.152,83453052517731.53,4417946128189426.5,1.1923626725451062e+17
14.997791114242183,5640203282873622.0,1.4557616546062848e+17,4222826858148910.5,8482513393090562.0,17956974965188.98,85772428122689.69,4540851546709501.0,1.2258604097671792e+17
15.397746936527026,5644353269219432.0,1.4913460644723088e+17,4225933959097976.0,8488754729977545.0,18452187929869.18,88137966132788.58,4666203875321107.0,1.2600277045955224e+17
15.805701875257567,5648361225773425.0,1.5276341931258397e+17,4228934722140457.0,8494782462487916.0,18957256418233.004,90550587676286.1,4794051908481239.0,1.2948778114960645e+17
16.221815912762718,5652233434696547.0,1.5646402792927725e+17,4231833850738642.5,8500606038611930.0,19472377086052.727,93011232461531.38,4924445426130131.0,1.3304242556955245e+17
16.64625223101797,5655975847995754.0,1.602378836913677e+17,4234635801168099.5,8506234409808484.0,19997750548594.31,95520859126082.06,5057435212146853.0,1.3666808381057384e+17
17.079177275638333,5659594108328078.0,1.6408646610676832e+17,4237344798093725.0,8511676062293153.0,20533581455381.83,98080445594489.48,5193073073266563.0,1.40366164037737e+17
17.5207608211511,5663093568296830.0,1.6801128339812538e+17,4239964849016802.0,8516939046058450.0,21080078566773.004,100690989444758.97,5331411858459424.0,1.4413810300828208e+17
17.97117603757412,5666479308363550.0,1.7201387311259258e+17,4242499757685753.0,8522031001812350.0,21637454832348.055,103353508283504.86,5472505478772301.0,1.47985366602843e+17
18.430599558325603,5669756153488151.0,1.7609580274090765e+17,4244953136554583.0,8526959186003970.0,22205927471120.312,106069040129836.33,5616408927634864.0,1.5190945036962528e+17
18.899211549492115,5672928688599379.0,1.8025867034614186e+17,4247328418365650.0,8531730494090193.0,22785718053578.3,108838643808022.25,5763178301632772.0,1.5591188008159242e+17
19.37719578048196,5676001272988713.0,1.8450410520250896e+17,4249628866926422.5,8536351482183282.0,23377052585571.695,111663399348998.11,5912870821750865.0,1.5999421230672522e+17
19.864739696091597,5678978053712613.0,1.8883376844458992e+17,4251857587143698.0,8540828387206888.0,23980161594056.707,114544408400785.72,6065544855090394.0,1.6415803499144157e+17
20.36203449001343,5681862978080291.0,1.9324935372733245e+17,4254017534373297.5,8545167145677076.0,24595280214717.297,117482794647912.69,6221259937064397.0,1.6840496805727485e+17
20.869275179813698,5684659805298045.0,1.9775258789717613e+17,4256111523138115.5,8549373411214521.0,25222648281482.715,120479704239922.47,6380076794076290.0,1.727366640109275e+17
21.38666068340997,5687372117334430.0,2.0234523167464438e+17,4258142235262905.5,8553452570885083.0,25862510417961.547,123536306229080.42,6542057366686949.0,1.7715480856782816e+17
21.91439389707817,5690003329065443.0,2.070290803487483e+17,4260112227470034.5,8557409760457631.0,26515116130816.0,126653793017385.52,6707264833276128.0,1.8166112128933088e+17
22.452681775019734,5692556697754049.0,2.118059644835325e+17,4262023938476769.5,8561249878660596.0,27180719905101.027,129833380813009.22,6875763634204539.0,1.8625735623371843e+17
23.00173541052013,5695035331913295.0,2.16677750637102e+17,4263879695631123.5,8564977600511569.0,27859581301594.61,133076310096288.56,7047619496483214.0,1.9094530262116512e+17
23.561770118730532,5697442199598813.0,2.2164634209345984e+17,4265681721120447.0,8568597389788659.0,28551965056147.06,136383846095408.61,7222899458957322.0,1.95726785512843e+17
24.133005521105144,5699780136172156.0,2.2671367960748374e+17,4267432137783870.5,8572113510706170.0,29258141181079.09,139757279271915.72,7401671898011804.0,2.006036665043569e+17
24.715665631527248,5702051851573610.0,2.3188174216337597e+17,4269132974557449.0,8575530038852416.0,29978385068658.79,143197925816210.94,7584006553806686.0,2.0557784443370102e+17
25.309978944157795,5704259937139501.0,2.371525477469111e+17,4270786171578301.0,8578850871442514.0,30712977596689.84,146707128153179.78,7769974557050281.0,2.106512561039505e+17
25.91617852304095,5706406871996598.0,2.4252815413181446e+17,4272393584972088.5,8582079736935187.0,31462205236244.62,150286255458114.34,7959648456318571.0,2.158258770208975e+17
26.53450209350177,5708495029063331.0,2.480106596806016e+17,4273956991346157.0,8585220204058250.0,32226360161576.375,153936704183104.44,8153102245929892.0,2.2110372214585942e+17
27.165192135371807,5710526680685514.0,2.5360220416021098e+17,4275478092009004.0,8588275690284392.0,33005740362245.867,157659898594060.56,8350411394383721.0,2.2648684666389213e+17
27.808495978079243,5712504003931848.0,2.593049695727613e+17,4276958516935008.0,8591249469795231.0,33800649757500.734,161457291318553.94,8551652873373114.0,2.3197734676765e+17
28.464665897640828,5714429085572593.0,2.651211810017718e+17,4278399828492001.5,8594144680969009.0,34611398312944.023,165330363904656.1,8756905187380593.0,2.3757736045713974e+17
29.133959215593645,5716303926763129.0,2.7105310747418416e+17,4279803524947833.0,8596964333424348.0,35438302159532.12,169280627390966.62,8966248403867284.0,2.4328906835563117e+17
29.816638399905518,5718130447452390.0,2.7710306283852403e+17,4281171043770967.0,8599711314650215.0,36281683714942.11,173309622888024.66,9179764184065776.0,2.4911469454198182e+17
30.51297116790363,5719910490534475.0,2.8327340665954755e+17,4282503764738829.5,8602388396249818.0,37141871807349.555,177418922171304.56,9397535814387126.0,2.5505650739965875e+17
31.223230591261704,5721645825760874.0,2.895665451297213e+17,4283803012866845.0,8604998239824200.0,38019201801659.766,181610128286001.0,9619648238452822.0,2.611168204827287e+17
31.947695203086937,5723338153428697.0,2.9598493199788397e+17,4285070061169882.5,8607543402519260.0,38914015728234.92,185884876163812.06,9846188089763070.0,2.6729799339911082e+17
32.686649107148675,5724989107860069.0,3.025310695154476e+17,4286306133267225.5,8610026342258429.0,39826662414162.91,190244833251938.0,1.0077243725012354e+16,2.7360243271138336e+17
33.44038208929165,5726600260685860.0,3.092075094004919e+17,4287512405841139.5,8612449422681278.0,40757497617112.375,194691700154516.5,1.0312905258064336e+16,2.800325928554477e+17
34.20918973107749,5728173123946655.0,3.1601685382012224e+17,4288690010958555.5,8614814917807142.0,41706884161820.484,199227211286717.12,1.0553264594597682e+16,2.8659097707736387e+17
34.993373525699035,5729709153022528.0,3.2296175639144966e+17,4289840038264613.0,8617125016441349.0,42675192079261.66,203853135541726.62,1.0798415467435192e+16,2.9328013838866496e+17
35.793240996213015,5731209749402594.0,3.300449232015701e+17,4290963537056194.0,8619381826340470.0,43662798748545.55,208571276970864.3,1.1048453472568656e+16,3.001026805404825e+17
36.60910581613728,5732676263304369.0,3.372691138469239e+17,4292061518243101.0,8621587378151634.0,44670089041593.31,213383475477061.3,1.1303476105891942e+16,3.070612590168141e+17
37.44128793246003,5734109996152453.0,3.4463714249240525e+17,4293134956203760.0,8623743629140313.0,45697455470643.664,218291607521953.9,1.1563582800655674e+16,3.141585820472604e+17
38.29011369110923,5735512202925081.0,3.5215187895062106e+17,4294184790542200.0,8625852466719504.0,46745298338639.945,223297586846842.84,1.182887496565637e+16,3.213974116395924e+17
39.15591596493141,5736884094377042.0,3.598162497816855e+17,4295211927752240.5,8627915711792703.0,47814025892550.61,228403365207768.6,1.2099456024173658e+16,3.2878056463248915e+17
40.03903428423004,5738226839146141.0,3.6763323941394746e+17,4296217242794683.5,8629935121921984.0,48904054479677.31,233610933124968.66,1.237543145366973e+16,3.3631091376881056e+17
40.93981496991464,5739541565750579.0,3.7560589128605946e+17,4297201580592726.5,8631912394331962.0,50015808707005.12,238922320646980.75,1.2656908826264284e+16,3.439913887897656e+17
41.85861126931294,5740829364483786.0,3.837373090107922e+17,4298165757450613.5,8633849168759440.0,51149721603650.64,244339598129662.03,1.2943997850000212e+16,3.518249775503654e+17
