t(s),Total solute volume 1,Total retention volume 1,Total 1 volume 1,Total 2 volume 1,Total 3 volume 1,Total 4 volume 1,Total 5 volume 1,Total 6 volume 1
0.1,964857416365797.9,1154672529873703.2,88762465329957.31,101052648177948.16,0.0,0.0,0.0,0.0
0.202,1453438985531700.8,1739574157724974.8,133709733380355.97,152223382803800.97,280073399.0522692,558979417.9584059,8583441232.380174,192633515065.13116
0.30604000000000003,1825514377903964.8,2185158037839844.5,167938966301348.5,191192046576121.53,710563932.4340802,1418166544.2067327,21776842045.88751,488741485887.1621
0.41216080000000005,2140178166958107.0,2562123125896937.5,196886594502887.16,224147806680307.9,1262077285.5626085,2518895177.4120355,38679298437.711105,868097484738.3052
0.5204040160000001,2419567782855370.0,2896952498572174.0,222589160238881.0,253409188101483.16,1921557676.387781,3835108193.813237,58890678769.382835,1321720031806.3003
0.6308120963200001,2674713571666652.5,3202841428446528.0,246061404859045.34,280131434804494.47,2681994038.751418,5352812720.951751,82196110483.49269,1844786199089.882
0.7434283382464002,2912026597245443.0,3487459321657177.5,267893116891888.9,304985998322826.6,3539370249.78865,7063993295.460949,108472509483.92195,2434533323988.3335
0.8582969050113283,3135613814137050.0,3755719447498651.5,288462117356126.7,328403013339733.3,4491412055.190232,8964110934.635405,137650175951.21457,3089396966802.885
0.9754628431115548,3348289429094562.5,4010988818238392.5,308027300390989.5,350677220864674.56,5536969644.619534,11050870860.252563,169693871644.24487,3808586176020.7314
1.094972099973786,3552079708839342.0,4255692060302520.5,326775073259551.2,372020838389374.1,6675675698.048956,13323540016.462221,204592339807.68658,4591848258733.8125
1.2168715419732616,3748500119062625.5,4491642926189264.0,344844851868288.8,392592585555322.94,7907739885.697233,15782536926.283371,242352007080.2603,5439327419132.447
1.3412089728127268,3938718782924245.5,4720239815325215.0,362344098200757.7,412514803693073.3,9233817736.033415,18429169974.333515,282992964614.452,6351474554820.434
1.4680331522689813,4123658449700405.5,4942587739683795.0,379357700966423.44,431884135329764.25,10654923063.182747,21265462626.839016,326546284190.49927,7328987017325.2295
1.597393815314361,4304063039933672.5,5159577916567353.0,395954097449857.9,450778493678733.9,12172367391.253738,24294032532.986664,373052161722.35315,8372766943448.251
1.729341691620648,4480542715073728.5,5371941673668161.0,412189419711370.7,469261782929297.44,13787716892.055584,27518005580.075745,422558597507.4033,9483891633785.453
1.863928525453061,4653605366120385.0,5580288109873051.0,428110391398033.25,487387196154562.75,15502761121.564339,30940953497.00374,475120438079.6209,10663592047374.98
2.001207095962122,4823679203008297.0,5785131111991936.0,443756405863672.9,505199581171025.9,17319489963.088043,34566847836.958595,530798669578.36017,11913236941552.34
2.1412312378813647,4991129332890985.0,5986909182062938.0,459161051295100.8,522737176836059.25,19240076437.678905,38400025670.16235,589659890934.1877,13234321047744.58
2.284055862638992,5156270170284803.0,6186000279625271.0,474353252388565.2,540032912802597.75,21266863811.31424,42445163852.25739,651775918740.4095,14628456202902.18
2.4297369798917723,5319374890062712.0,6382733127404917.0,489358139981898.6,557115399561852.4,23402355916.701862,46707259708.55777,717223490645.1583,16097364692185.418
2.578331719489608,5480682739711733.0,6577395956888864.0,504197723748733.3,574009694279763.1,25649209926.92039,51191616611.76512,786084043886.4739,17642874278200.223
2.7298983538794,5640404773875686.0,6770243367176183.0,518891419750174.9,590737901394291.0,28010231032.39886,55903833358.44598,858443552160.2632,19266914539486.92
2.884496320956988,5798728407369191.0,6961501770943646.0,533456469291267.1,607319649467346.5,30488368619.83826,60849796543.150215,934392408519.3512,20971514242151.203
3.0421862473761276,5955821070534066.0,7151373767026783.0,547908275197025.8,623772474022120.9,33086713654.719875,66035675334.70388,1014025345159.8104,22758799539407.656
3.2030299723236504,6111833173672125.0,7340041686859430.0,562260674526704.8,640112128017783.5,35808497042.54843,71467918205.9101,1097441383203.3342,24630992844365.16
3.3670905717701234,6266900533350461.0,7527670497502844.0,576526161782762.1,656352835964275.0,38657088797.27431,77153251274.2645,1184743807218.0154,26590412258048.12
3.5344323832055258,6421146375034677.0,7714410198141171.0,590716073143958.1,672507503664619.5,41635997884.5672,83098677989.58034,1276040160421.9565,28639471461627.223
3.7051210308696363,6574682998845409.0,7900397813839696.0,604840739707335.4,688587892674994.0,44748872636.87597,89311479962.82745,1371442257411.0752,30780680001966.523
3.879223451487029,6727613175002769.0,8085759066166787.0,618909615862694.0,704604766454150.6,47999501659.3206,95799218774.60698,1471066211930.0686,33016643914799.098
4.0568079205167695,6880031320540194.0,8270609782362588.0,632931387544914.4,720568013604498.1,51391815162.35057,102569738635.41118,1575032477723.089,35350066641464.3
4.237944078927105,7032024497644254.0,8455057091313809.0,646914064076627.0,736486752431446.5,54929886670.15352,109631169795.83842,1683465900900.6501,37783750204113.99
4.422702960505647,7183673265475833.0,8639200444426675.0,660865056531866.6,752369420157425.4,58617935063.97419,116991932625.2611,1796495782571.1746,40320596611294.73
4.61115701971576,7335052410826701.0,8823132491717015.0,674791244953132.2,768223849445903.6,62460326927.51529,124660742293.4274,1914255950731.0024,42963609471325.62
4.803380160110075,7486231566717312.0,9006939837960241.0,688699035263672.4,784057333206512.0,66461579085.93023,132646614067.09494,2036884920512.4841,45715909659084.21
4.9994477633122765,7637275802905085.0,9190703695849224.0,702594413574983.9,799876686371078.9,70626361806.91557,140958868789.36484,2164525664174.6384,48580682103315.33
5.199436718578522,7788246032346299.0,9374500457668008.0,716482983604425.0,815688288569012.1,74959501427.2463,149607139481.32526,2297326181502.0225,51561260325848.39
5.403425452950093,7939199470990419.0,9558402192865376.0,730370008957430.9,831498132212426.6,79465984010.20293,158601377740.59076,2435439286803.6294,54661074056530.484
5.611493962009095,8090189989501406.0,9742477085236904.0,744260445488495.0,847311859350833.8,84150958812.64209,167951860886.1761,2579022796094.6055,57883665280373.04
5.823723841249277,8241268432780705.0,9926789818013906.0,758158970695800.0,863134795135809.0,89019742035.2343,177669199444.1148,2728239642044.981,61232690818070.22
6.040198318074262,8392482902044035.0,1.011140191428011e+16,772070009671006.2,878971977363818.6,94077820768.66193,187764345024.22635,2883257994934.098,64711925040538.234
6.261002284435747,8543879004641338.0,1.029637203892319e+16,785997758081534.5,894828182640669.5,99330857130.30084,198248598577.1005,3044251389443.638,68325262714487.15
6.486222330124463,8695500075981047.0,1.048175626733698e+16,799946202586592.6,910707949624366.6,104784692587.24414,209133619023.02734,3211398857162.2427,72076721976177.31
6.715946776726952,8847387377240956.0,1.0667608325279292e+16,813919139025660.5,926615599731990.2,110445352462.63463,220431432246.8315,3384885064708.857,75970447431271.83
6.950265712261491,8999580271986668.0,1.0853979803618646e+16,827920188666584.1,942555255637559.9,116319050623.2295,232154440454.46692,3564900457411.2886,80010713379361.31
7.18927102650672,9152116384355212.0,1.1040920351149032e+16,841952812757744.2,958530857839074.9,122412194346.93913,244315431888.8534,3751641408501.214,84201927162291.94
7.433056447036854,9305031741073816.0,1.1228477848189562e+16,856020325593126.0,974546179532630.4,128731389369.78763,256927590903.87003,3945310373809.012,88548632635918.34
7.681717575977592,9458360899261082.0,1.14166985632988e+16,870125906269459.1,990604839997435.4,135283445112.3545,270004508396.61588,4146116051960.194,93055513765324.56
7.935351927497144,9612137061686550.0,1.1605627295110142e+16,884272609289551.8,1006710316667328.5,142075380086.29877,283560192599.144,4354273550091.7505,97727398343923.72
8.194058966047088,9766392180935180.0,1.1795307501020412e+16,898463374144952.1,1022865956040260.2,149114427482.03473,297609080231.8093,4570004555121.54,102569261837175.1
8.45794014536803,9921157053730620.0,1.1985781414232484e+16,912701033993268.9,1039074983557072.1,156408040939.051,312166048021.2061,4793537510616.245,107586231351943.3
8.72709894827539,1.007646140650598e+16,1.2177090150457036e+16,926988323530271.6,1055340512563603.9,163963900500.74088,327246424586.42126,5025107799315.239,112783589732786.58
9.0016409272409,1.0232333973171138e+16,1.236927380541031e+16,941327886144136.9,1071665552455513.8,171789918755.93982,342866002698.0106,5264957931377.784,118166779786683.88
9.281673745785717,1.0388802565906074e+16,1.2562371544102328e+16,955722280428105.9,1088053016092695.4,179894247169.68228,359041051914.6877,5513337738430.633,123741408637929.92
9.567307220701432,1.0545894139706254e+16,1.2756421682786832e+16,970173986118386.8,1104505726559337.6,188285282605.9573,375788331603.2917,5770504573501.134,129513252215108.36
9.85865336511546,1.0703634851319134e+16,1.2951461764339204e+16,984685409515997.4,1121026423336501.1,196971674045.4947,393125104348.09717,6036723516928.931,135488259872236.84
10.155826432417769,1.0862050113132704e+16,1.3147528627737016e+16,999258888444315.0,1137617767946087.2,205962329501.85965,411069149755.9943,6312267588356.977,141672559146327.9
10.458942961066125,1.1021164642513018e+16,1.3344658472239458e+16,1013896696787873.4,1154282349118086.0,215266423139.34003,429638778664.4917,6597417964908.028,148072460653768.6
10.768121820287448,1.1181002507029156e+16,1.354288691679322e+16,1028601048652855.9,1171022687527131.0,224893402596.3016,448852847759.9324,6892464205660.423,154694463128053.94
11.083484256693197,1.1341587165954484e+16,1.3742249055133828e+16,1043374102185027.2,1187841240139085.2,234852996517.90887,468730774613.6286,7197704482541.483,161545258601546.5
11.405153941827061,1.1502941508390268e+16,1.3942779506998284e+16,1058217963076926.5,1204740404203828.8,245155222302.2502,489292553144.05273,7513445817763.531,168631737734038.9
11.733257020663602,1.1665087888318958e+16,1.4144512465820642e+16,1073134687792611.1,1221722520926511.5,255810394064.10168,510558769513.4922,7840004327931.333,175960995291047.97
12.067922161076874,1.1828048156861882e+16,1.4347481743242206e+16,1088126286535227.9,1238789878846020.2,266829130820.70667,532550618467.938,8177705474956.111,183540335774836.25
12.409280604298411,1.1991843691986542e+16,1.455172081073302e+16,1103194725979923.5,1255944716946284.0,278222364904.1207,555289920129.2754,8526884323914.891,191377279211295.47
12.75746621638438,1.2156495425882928e+16,1.4757262838590554e+16,1118341931792356.6,1273189227523514.8,290001350604.7898,578799137249.1146,8887885807999.111,199479567095913.25
13.112615540712067,1.2322023870205826e+16,1.4964140732555458e+16,1133569790950884.8,1290525558829916.0,302177673051.2096,603101392933.9264,9261065000700.37,207855168502143.78
13.474867851526309,1.2488449139360266e+16,1.5172387168258536e+16,1148880153888686.8,1307955817512425.0,314763257330.61127,628220488851.3762,9646787395385.533,216512286355592.66
13.844365208556836,1.2655790971988716e+16,1.5382034623694102e+16,1164274836470525.0,1325482070863144.8,327770377855.7745,654180923928.029,10045429192417.73,225459363877532.56
14.221252512727972,1.2824068750803876e+16,1.5593115409894484e+16,1179755621817239.0,1343106348896515.5,341211667983.1945,681007913548.883,10457377593982.773,234705091201330.4
14.605677562982532,1.2993301520896338e+16,1.5805661699964416e+16,1195324261989985.2,1360830646266693.5,355100129887.9428,708727409269.3613,10883031106785.883,244258412165471.4
14.997791114242183,1.3163508006633814e+16,1.6019705556619694e+16,1210982479544886.8,1378656924037509.0,369449144700.6884,737366119050.7354,11322799852785.34,254128531286940.3
15.397746936527026,1.3334706627258458e+16,1.6235278958360232e+16,1226731968967904.8,1396587111315988.2,384272482912.468,766951528030.0796,11777105888135.258,264324920918800.62
15.805701875257567,1.3506915511277252e+16,1.645241382439675e+16,1242574397998697.2,1414623106759528.0,399584315052.89545,797511919836.1808,12246383530511.666,274857328595892.6
16.221815912762718,1.3680152509733382e+16,1.6671142038439456e+16,1258511408851523.0,1432766779965826.8,415399222647.62476,829076398462.9775,12731079695000.184,285735784572646.2
16.64625223101797,1.3854435208437054e+16,1.6891495471447376e+16,1274544619340432.5,1451019972753900.5,431732209460.985,861674910712.349,13231654238726.922,296970609557079.25
17.079177275638333,1.4029780939228268e+16,1.7113506003429022e+16,1290675623915366.5,1469384500343609.5,448598713029.7916,895338269218.2972,13748580314416.959,308572422645124.94
17.5207608211511,1.4206206790336226e+16,1.7337205544377248e+16,1306905994615186.8,1487862152440686.8,466014616494.4932,930098176064.7428,14282344733069.012,320552149459506.56
17.97117603757412,1.4383729615896172e+16,1.7562626054413882e+16,1323237281943186.8,1506454694233429.2,483996260733.83466,965987247009.3739,14833448335936.26,332921030497428.0
18.430599558325603,1.4562366044677028e+16,1.778979956321439e+16,1339671015669990.0,1525163867306808.0,502560456809.3916,1003039036326.1665,15402406376007.898,345690629691445.4
18.899211549492115,1.4742132488070788e+16,1.8018758188776652e+16,1356208705568546.8,1543991390479179.0,521724498726.37714,1041288062279.4062,15989748909188.002,358872843187926.4
19.37719578048196,1.4923045147388238e+16,1.8249534155592628e+16,1372851842085281.8,1562938960566434.5,541506176517.2233,1080769833242.19,16596021195371.285,372479908347563.25
19.864739696091597,1.5105120020503258e+16,1.8482159812278684e+16,1389601896951365.2,1582008253077847.8,561923789654.5359,1121520874472.594,17221784109617.92,386524412972490.1
20.36203449001343,1.5288372907883794e+16,1.8716667648713636e+16,1406460323737524.5,1601200922847724.8,582996160800.1018,1163578755560.8333,17867614563632.574,401019304764584.2
20.869275179813698,1.5472819418044672e+16,1.8953090312732684e+16,1423428558355670.8,1620518604606497.5,604742649896.6943,1206982118560.9392,18534105937754.395,415977901019607.75
21.38666068340997,1.5658474972454034e+16,1.9191460626419936e+16,1440508019510287.8,1639962913494610.2,627183168609.5337,1251770706820.5754,19221868523668.582,431413898561887.25
21.91439389707817,1.5845354809923578e+16,1.943181160204012e+16,1457700109102300.8,1659535445522281.2,650338195124.2777,1297985394522.839,19931529978050.48,447341383924275.6
22.452681775019734,1.6033473990509246e+16,1.967417645764711e+16,1475006212587920.8,1679237777978074.5,674228789308.5702,1345668216953.9502,20663735787357.168,463774843778201.25
23.00173541052013,1.6222847398947794e+16,1.9918588632403684e+16,1492427699294781.2,1699071469788791.8,698876608244.1173,1394862401510.9192,21419149743981.76,480729175618637.06
23.561770118730532,1.6413489747651678e+16,2.016508180164679e+16,1509965922697505.2,1719038061833170.2,724303922136.4728,1445612399463.386,22198454433988.965,498219698708876.8
24.133005521105144,1.6605415579284474e+16,2.0413689891726416e+16,1527622220654562.2,1739139077211581.8,750533630609.613,1497963918483.9033,23002351736651.152,516262165290021.75
24.715665631527248,1.6798639268934982e+16,2.066444709464853e+16,1545397915608318.2,1759376021473749.8,777589279392.5592,1551963955961.1072,23831563336005.652,534872772060137.94
25.309978944157795,1.6993175025909134e+16,2.0917387882548704e+16,1563294314749891.2,1779750382806431.0,805495077405.2488,1607660833110.1426,24686831244656.074,554068171928039.5
25.91617852304095,1.7189036895155664e+16,2.117254702201953e+16,1581312710150260.2,1800263632182699.2,834275914250.9495,1665104229895.055,25568918340040.113,573865486046713.6
26.53450209350177,1.7386238758340342e+16,2.1429959588317612e+16,1599454378859141.8,1820917223474475.2,863957378122.5151,1724345220777.5452,26478608913388.54,594282316131372.0
27.165192135371807,1.7584794334583316e+16,2.168966097947007e+16,1617720582972787.5,1841712593529777.0,894565774129.7898,1785436311306.8394,27416709231599.215,615336757067162.6
27.808495978079243,1.7784717180871438e+16,2.195168693030162e+16,1636112569671939.8,1862651162215835.2,926128143055.46,1848431475565.2363,28384048112250.855,637047409811549.9
28.464665897640828,1.7986020692157144e+16,2.2216073526400948e+16,1654631571230898.5,1883734332429517.0,958672280546.696,1913386194483.954,29381477511980.434,659433394596354.6
29.133959215593645,1.818871810115375e+16,2.2482857218043036e+16,1673278804998724.5,1904963490075841.0,992226756749.7996,1980357495043.7952,30409873128447.28,682514364434477.8
29.816638399905518,1.839282247783621e+16,2.275207483408425e+16,1692055473353272.5,1926340004015709.2,1026820936395.1278,2049403990375.0818,31470135016106.414,706310518936195.6
30.51297116790363,1.859834672865406e+16,2.3023763595842444e+16,1710962763628828.5,1947865225983488.2,1062484999339.4271,2120585920771.1892,32563188216009.484,730842618439980.5
31.223230591261704,1.8805303595463764e+16,2.329796113097644e+16,1730001848017859.5,1969540490475151.0,1099249961572.6478,2193965195629.778,33689983399850.723,756131998462632.2
31.947695203086937,1.9013705654183584e+16,2.357470548737334e+16,1749173883447267.5,1991367114607435.8,1137147696696.1484,2269605436335.6016,34851497528471.19,782200584473508.1
32.686649107148675,1.922356531317487e+16,2.385403514705306e+16,1768480011429505.0,2013346397948295.8,1176210957879.0898,2347572020098.423,36048734525027.484,809070906997409.1
33.44038208929165,1.943489481135016e+16,2.4135989040096228e+16,1787921357888495.5,2035479622318762.5,1216473400299.5505,2427932124759.1465,37282725963028.08,836766117050683.9
34.20918973107749,1.96477062160078e+16,2.4420606558597196e+16,1807499032960429.2,2057768051566119.2,1257969604076.6772,2510754774576.8354,38554531769429.67,865310001914765.5
34.993373525699035,1.986201142038834e+16,2.470792757064436e+16,1827214130769007.0,2080212931308041.0,1300735097699.864,2596110887008.562,39865240942977.66,894727001251294.2
35.793240996213015,2.007782214094863e+16,2.4997992434323256e+16,1847067729174602.8,2102815488647047.5,1344806381960.5247,2684073320493.2417,41215972287962.47,925042223562588.1
36.60910581613728,2.029514991434363e+16,2.529084201173687e+16,1867060889496653.8,2125576931854410.8,1390220954391.646,2774716923249.8945,42607875163550.79,956281463000980.0
37.44128793246003,2.0514006094104188e+16,2.5586517683030692e+16,1887194656208015.5,2148498450022223.0,1437017334219.6624,2868118583099.3525,44042130248830.53,988471216530141.5
38.29011369110923,2.0734401846995636e+16,2.58850613604084e+16,1907470056599962.8,2171581212681997.2,1485235087832.5808,2964357278317.4287,45519950323691.49,1021638701440993.4
39.15591596493141,2.0956348149037268e+16,2.6186515502115424e+16,1927888100416022.5,2194826369387787.2,1534914854767.5347,3063514129525.7812,47042581065639.734,1055811873224427.0
40.03903428423004,2.117985578115928e+16,2.649092312636469e+16,1948449779452384.2,2218235049261318.8,1586098374219.9712,3165672452625.059,48611301862611.84,1091019443802223.1
40.93981496991464,2.1404935324467948e+16,2.6798327825170096e+16,1969156067122363.0,2241808360496091.5,1638828512075.6882,3270917812772.707,50227426641829.82,1127290900117031.5
41.85861126931294,2.1631597155085564e+16,2.7108773778048176e+16,1990007917981703.8,2265547389816970.0,1693149288465.7056,3379338079405.5044,51892304714693.875,1164656523081317.8
42.7957834946992,2.185985143852658e+16,2.7422305765538948e+16,2011006267211149.5,2289453201891123.0,1749105905842.5034,3491023482304.038,53607321637671.62,1203147406884262.2
43.751699164593184,2.2089708123562588e+16,2.7738969182490104e+16,2032152030052118.2,2313526838685562.0,1806744777574.7114,3606066668693.085,55373900089091.83,1242795478654508.5
44.72673314788505,2.232117693552715e+16,2.805881005103926e+16,2053446101190736.0,2337769318765854.5,1866113557055.3625,3724562761368.56,57193500761696.04,1283633518475435.8
