t(s),Total solute volume 1,Total retention volume 1,Total 1 volume 1,Total 2 volume 1,Total 3 volume 1,Total 4 volume 1,Total 5 volume 1,Total 6 volume 1
0.1,1388605447609674.5,1.2965503955258198e+16,3123970752525701.5,8452927755122823.0,0.0,0.0,0.0,-0.03849354864423057
0.202,1967145514071257.2,1.8462806469745828e+16,4425530187170871.0,1.1974879849413272e+16,105053211697.03812,772075019858.4238,18761154867739.16,75612635991136.86
0.30604000000000003,2424769720314940.0,2.2903723015516628e+16,5455058431105126.0,1.4760665383641048e+16,261596396736.7293,1927070973364.58,50442109732589.23,210598703352817.9
0.41216080000000005,2811387461605165.5,2.6742254065459292e+16,6324841438389599.0,1.7114192794603802e+16,459538911321.1856,3388335598567.574,92223005295325.98,395761491055507.2
0.5204040160000001,3150775506216363.0,3.0193658982848464e+16,7088370576807305.0,1.9180207757836856e+16,693607751040.0068,5116674798659.021,142611889482940.78,625882969955297.5
0.6308120963200001,3456030166812252.0,3.3375886495453076e+16,7775108989522349.0,2.1038435258245984e+16,960619113103.0765,7088462963760.718,200694947352900.53,897568051442727.9
0.7434283382464002,3735142308366404.0,3.63604368739538e+16,8403033935634485.0,2.2737520057126024e+16,1258466967237.981,9288077011802.266,265851176308907.0,1208342852538939.5
0.8582969050113283,3993386669769892.5,3.919415037592405e+16,8984012129198300.0,2.4309572258941892e+16,1585680629242.961,11704605890421.967,337631290673772.2,1556257740820518.8
0.9754628431115548,4234460056823268.0,4.190958515663887e+16,9526360366419882.0,2.577709622075221e+16,1941202163106.3042,14330198443240.135,415698478878695.2,1939698633158456.2
1.094972099973786,4461075813873594.5,4.453043595566317e+16,1.0036182925147118e+16,2.7156609449991316e+16,2324261527208.4014,17159137741699.963,499796037968686.5,2357288329413567.0
1.2168715419732616,4675298752414626.0,4.7074587108255656e+16,1.051812506266887e+16,2.846068150068056e+16,2734300411406.0137,20187276753746.69,589727969885721.1,2807832245440738.5
1.3412089728127268,4878745703513867.0,4.9555942914698904e+16,1.0975824203674616e+16,2.9699154843009456e+16,3170922462605.2764,23411669629382.633,685346398184309.6,3290289174224676.5
1.4680331522689813,5072711934114237.0,5.1985582340698344e+16,1.1412194342183428e+16,3.0879914424872336e+16,3633858922668.965,26830317151391.055,786542820659800.2,3803754642794513.0
1.597393815314361,5258254277486921.0,5.4372518774070424e+16,1.1829613062171434e+16,3.200939372905671e+16,4122943761845.8804,30441982468958.414,893241561624702.0,4347451217499864.5
1.729341691620648,5436247759583682.0,5.672421779467672e+16,1.2230048931249978e+16,3.309291948603129e+16,4638094904710.272,34246051894197.07,1005394551526307.2,4920722919486538.0
1.863928525453061,5607425482421697.0,5.9046960691183576e+16,1.2615151227274214e+16,3.413495446372869e+16,5179299624352.018,38242426529788.43,1122976991797448.8,5523030799807412.0
2.001207095962122,5772407583415392.0,6.134610628045316e+16,1.2986315088843874e+16,3.5139273757163124e+16,5746602940758.584,42431436125705.29,1245983636700666.2,6153948175263639.0
2.1412312378813647,5931722790841003.0,6.362628369673293e+16,1.3344730009146158e+16,3.61090960070683e+16,6340098222451.975,46813769242503.98,1374425535208665.2,6813155487003843.0
2.284055862638992,6085824861014419.0,6.589153712248765e+16,1.369141681506847e+16,3.704718346106173e+16,6959919493829.838,51390416054088.836,1508327192731418.2,7500434457063668.0
2.4297369798917723,6235105443026158.0,6.81454363128656e+16,1.4027256609304282e+16,3.79559202876794e+16,7606235175385.367,56162621792187.95,1647724155485332.5,8215660960402827.0
2.578331719489608,6379904349548256.0,7.039116229211275e+16,1.4353013876839832e+16,3.883737509996707e+16,8279243023175.485,61131849109939.97,1792660983543943.5,8958796890080527.0
2.7298983538794,6520517838231700.0,7.263157471109517e+16,1.466935511581989e+16,3.969335136859035e+16,8979166009057.031,66299747443951.56,1943189560001581.0,9729881914998674.0
2.884496320956988,6657205354117613.0,7.486926544536867e+16,1.497686400611992e+16,4.0525428466394904e+16,9706248954322.383,71668127985955.34,2099367721025711.2,1.052902552077023e+16
3.0421862473761276,6790195111350646.0,7.71066017237128e+16,1.5276053966669544e+16,4.133499564725047e+16,10460755841474.906,77238943714603.28,2261258214235200.0,1.135639908465087e+16
3.2030299723236504,6919688775001478.0,7.934576118834205e+16,1.5567378688270308e+16,4.2123280546828056e+16,11242967734639.785,83014273973167.42,2428927949182438.0,1.2212227987351976e+16
3.3670905717701234,7045865372772535.0,8.158876066442328e+16,1.5851240933862396e+16,4.289137299527857e+16,12053181150061.254,88996312402652.81,2602447446305868.0,1.3096784422651206e+16
3.5344323832055258,7168884518920570.0,8.383747997246218e+16,1.6127999791467364e+16,4.3640244642993304e+16,12891706689507.176,95187356824798.98,2781890399940623.0,1.4010381555626026e+16
3.7051210308696363,7288889073013072.0,8.609368179650808e+16,1.6397976655661282e+16,4.4370765145883016e+16,13758867854325.514,101589800462790.36,2967333341444579.5,1.4953368912189026e+16
3.879223451487029,7406007389856226.0,8.835902838617419e+16,1.6661460289296318e+16,4.5083715861905544e+16,14655000086268.287,108206124853740.81,3158855434748930.5,1.592612828542715e+16
4.0568079205167695,7520355273525503.0,9.06350956957983e+16,1.691871121953496e+16,4.577980174632112e+16,15580450084163.8,115038894824147.39,3356538401466166.0,1.6929069710042228e+16
4.237944078927105,7632037659753110.0,9.292338543286595e+16,1.7169965522761276e+16,4.6459661593306504e+16,16535575322247.885,122090754966427.84,3560466497588973.0,1.7962627829167372e+16
4.422702960505647,7741150003601062.0,9.52253353886335e+16,1.7415437946464778e+16,4.712387648345771e+16,17520743595778.766,129364426300973.75,3770726441389169.0,1.9027259343824044e+16
4.61115701971576,7847779384052894.0,9.754232834830694e+16,1.7655324394267222e+16,4.7772976507994056e+16,18536332472170.223,136862702209962.67,3987407261693771.0,2.012344176561685e+16
4.803380160110075,7952005408912276.0,9.987569981970912e+16,1.788980396169463e+16,4.840744627731509e+16,19582728698888.984,144588444036681.28,4210600138536229.5,2.1251672860515316e+16
4.9994477633122765,8053901032876678.0,1.0222674477347016e+17,1.811904077661755e+16,4.90277299010276e+16,20660327750159.707,152544577727673.5,4440398345346646.0,2.241246981212376e+16
5.199436718578522,8153533353806833.0,1.045967235514039e+17,1.834318579063944e+16,4.963423583526888e+16,21769533651806.086,160734092566526.5,4676897331557921.0,2.3606367613912476e+16
5.403425452950093,8250964365210706.0,1.069868670710606e+17,1.85623784719797e+16,5.022734146349513e+16,22910759033935.492,169160041613700.03,4920194863632136.0,2.483391710609528e+16
5.611493962009095,8346251589018546.0,1.093983814320236e+17,1.8776748229044104e+16,5.080739694851847e+16,24084425186478.95,177825542150896.47,5170391077183908.0,2.609568362092126e+16
5.823723841249277,8439448534242861.0,1.1183245201189602e+17,1.898641544228225e+16,5.137472802457502e+16,25290961888528.68,186733774404311.0,5427588346579677.0,2.739224692792333e+16
6.040198318074262,8530605004260342.0,1.1429024712561275e+17,1.919149215548468e+16,5.192963786784821e+16,26530806967285.72,195887978221735.22,5691891017863473.0,2.872420229496698e+16
6.261002284435747,8619767346324558.0,1.1677292130963904e+17,1.9392082637115868e+16,5.24724086153268e+16,27804405782526.63,205291449190340.6,5963405171762967.0,3.0092161684135916e+16
6.486222330124463,8706978747320307.0,1.1928161828227296e+17,1.95882840456792e+16,5.300330316519764e+16,29112210946766.02,214947536538274.16,6242238590964574.0,3.149675398562618e+16
6.715946776726952,8792279621776911.0,1.2181747362270877e+17,1.97801873026416e+16,5.352256753891271e+16,30454682487120.285,224859644369010.4,6528500985472571.0,3.293862384704882e+16
6.950265712261491,8875708051823050.0,1.2438161720486142e+17,1.996787808221309e+16,5.403043355947394e+16,31832288393727.742,235031235801959.22,6822304358408164.0,3.4418429628747524e+16
7.18927102650672,8957300181097532.0,1.2697517541705528e+17,2.015143769753928e+16,5.452712124940851e+16,33245505251937.598,245465837725982.5,7123763286301219.0,3.5936841659730764e+16
7.433056447036854,9037090471103212.0,1.295992731949642e+17,2.0330943677426844e+16,5.5012840391318984e+16,34694818584803.94,256167043346804.56,7432994917779852.0,3.749454187540372e+16
7.681717575977592,9115111792801670.0,1.3225503589191914e+17,2.0506469972403916e+16,5.54877910854089e+16,36180722690359.445,267138510910026.78,7750118650551278.0,3.909222515715302e+16
7.935351927497144,9191395408084900.0,1.3494359100731229e+17,2.0678086913033012e+16,5.595216363660955e+16,37703720056199.51,278383959235527.97,8075255638876611.0,4.07306017314165e+16
8.194058966047088,9265970947595096.0,1.3766606979028387e+17,2.0845861160008868e+16,5.640613841949174e+16,39264320701346.61,289907162715088.6,8408528400505441.0,4.2410399379266264e+16
8.45794014536803,9338866485834112.0,1.4042360873256344e+17,2.1009855873133504e+16,5.6849886335478664e+16,40863041880672.54,301711949060712.4,8750060764618800.0,4.4132364282556984e+16
8.72709894827539,9410108757153846.0,1.4321735096182442e+17,2.117013119723656e+16,5.7283570127730456e+16,42500408441299.71,313802201980485.06,9099978242208108.0,4.589726002707366e+16
9.0016409272409,9479723479071242.0,1.4604844754553872e+17,2.132674498954869e+16,5.770734634940606e+16,44176953818216.96,326181868671695.3,9458408689844622.0,4.7705865215178184e+16
9.281673745785717,9547735691671156.0,1.4891805871496125e+17,2.1479753583267652e+16,5.812136742985935e+16,45893221350957.57,338854969716272.6,9825482983988222.0,4.9558970835107704e+16
9.567307220701432,9614170009908124.0,1.5182735501896746e+17,2.162921235516957e+16,5.852578321056813e+16,47649765444137.82,351825607769904.94,1.0201335401971038e+16,5.1457378668136584e+16
9.85865336511546,9679050721636280.0,1.547775184172837e+17,2.177517594614856e+16,5.892074154187392e+16,49447152155203.74,365097971903364.5,1.0586103527152346e+16,5.340190155641396e+16
10.155826432417769,9742401728413792.0,1.5776974332167552e+17,2.191769812803994e+16,5.930638792255808e+16,51285959041100.73,378676336338182.56,1.097992770226048e+16,5.53933655450239e+16
10.458942961066125,9804246388519356.0,1.6080523759182794e+17,2.205683145044663e+16,5.968286454410877e+16,53166774417851.97,392565054755257.2,1.138295025354549e+16,5.743261312603453e+16
10.768121820287448,9864607356261486.0,1.6388522349040134e+17,2.2192626879225868e+16,6.00503093124331e+16,55090196444005.0,406768553292026.4,1.1795314813955136e+16,5.952050637878966e+16
11.083484256693197,9923506506970480.0,1.6701093859978413e+17,2.2325133627740252e+16,6.040885539120772e+16,57056832527108.625,421291326001652.2,1.221716604464321e+16,6.165792887069373e+16
11.405153941827061,9980964998464542.0,1.701836367020345e+17,2.245439929514028e+16,6.075863157607434e+16,59067299443270.625,436137935713952.1,1.26486499065198e+16,6.3845785690678184e+16
11.733257020663602,1.0037003465199662e+16,1.734045886236888e+17,2.2580470303151268e+16,6.109976347659871e+16,61122224304419.664,451313021301420.75,1.3089914429267634e+16,6.60850017038657e+16
12.067922161076874,1.0091642292522844e+16,1.7667508304831302e+17,2.270339251307138e+16,6.143237518588337e+16,63222246209441.3,466821310097127.6,1.3541110744207818e+16,6.837651875632112e+16
12.409280604298411,1.0144901892332652e+16,1.7999642730124266e+17,2.2823211845935788e+16,6.1756590958739416e+16,65368018184947.46,482667632474144.2,1.4002394055119582e+16,7.072129289845613e+16
12.75746621638438,1.0196802904533606e+16,1.833699481121528e+17,2.2939974735735464e+16,6.207253643809241e+16,67560208935836.445,498856934956822.9,1.4473924245529124e+16,7.312029264436952e+16
13.112615540712067,1.024736627642293e+16,1.8679699236128013e+17,2.3053728308015736e+16,6.2380339138250504e+16,69799504003732.73,515394288831690.1,1.4955865946252848e+16,7.557449889950267e+16
13.474867851526309,1.029661321242166e+16,1.9027892781408003e+17,2.316452026678312e+16,6.268012813884535e+16,72086606134385.81,532284892766437.4,1.544838806424484e+16,7.808490663288416e+16
13.844365208556836,1.0344565025010782e+16,1.9381714384709485e+17,2.3272398559149324e+16,6.297203317732659e+16,74422234908127.8,549534069860686.75,1.5951662941952026e+16,8.065252783888723e+16
14.221252512727972,1.039124294284659e+16,1.9741305216545517e+17,2.3377410943640136e+16,6.325618348077839e+16,76807125908346.69,567147261220094.2,1.6465865423678744e+16,8.32783949873829e+16
14.605677562982532,1.0436667938180792e+16,2.010680875104879e+17,2.347960460193532e+16,6.3532706715271096e+16,79242029828721.25,585130019091201.1,1.6991172124507828e+16,8.596356408167306e+16
14.997791114242183,1.0480860623742554e+16,2.0478370835498803e+17,2.3579025906880504e+16,6.3801728358099624e+16,81727711923144.84,603488002611691.6,1.7527761130066486e+16,8.870911662166403e+16
15.397746936527026,1.052384124504013e+16,2.0856139758410934e+17,2.3675720405168148e+16,6.406337165092995e+16,84264952093712.47,622226978403436.1,1.807581222869986e+16,9.151616012377405e+16
15.805701875257567,1.0565629765963368e+16,2.1240266316138416e+17,2.3769733009921816e+16,6.431775812095355e+16,86854545732844.5,641352826875369.1,1.863550763220084e+16,9.43858272597363e+16
16.221815912762718,1.0606246021677016e+16,2.163090387816013e+17,2.386110834466699e+16,6.4565008511698184e+16,89497305241043.19,660871553630264.0,1.9207033018516916e+16,9.731927402617085e+16
16.64625223101797,1.0645709898680136e+16,2.202820845144483e+17,2.3949891148418468e+16,6.480524387921809e+16,92194061984515.89,680789304181573.0,1.9790578660101148e+16,1.003176775618643e+17
17.079177275638333,1.0684041499622162e+16,2.2432338744429792e+17,2.4036126646473736e+16,6.5038586595477496e+16,94945668372588.62,701112379552588.2,2.0386340397111852e+16,1.0338223425768744e+17
17.5207608211511,1.0721261258640604e+16,2.2843456231184445e+17,2.411986080989277e+16,6.526516105050987e+16,97752999735206.48,721847250337973.1,2.099452026908161e+16,1.0651415867364642e+17
17.97117603757412,1.075738998787542e+16,2.3261725216237818e+17,2.420114046014297e+16,6.548509393558398e+16,100616955754596.69,743000567370739.5,2.161532671148458e+16,1.0971468354416595e+17
18.430599558325603,1.0792448852766646e+16,2.3687312900357248e+17,2.4280013213524836e+16,6.569851409280849e+16,103538461325091.19,764579168048816.4,2.2248974327962732e+16,1.1298506088713586e+17
18.899211549492115,1.0826459288555842e+16,2.412038944732558e+17,2.435652729332139e+16,6.590555200679284e+16,106518466847704.0,786590078380728.4,2.2895683339446664e+16,1.1632656399991064e+17
19.37719578048196,1.0859442880246704e+16,2.456112805153684e+17,2.443073125974062e+16,6.610633907385525e+16,109557948080782.83,809040511678173.8,2.3555678869955256e+16,1.1974048997181166e+17
19.864739696091597,1.0891421231985798e+16,2.5009705006071056e+17,2.450267371605575e+16,6.630100680682638e+16,112657905743568.4,831937865393266.8,2.422919024743772e+16,1.2322816228726806e+17
20.36203449001343,1.092241584979508e+16,2.5466299770853818e+17,2.4572403044784268e+16,6.6489686121143576e+16,115819365096409.6,855289717799144.2,2.4916450478438228e+16,1.2679093313148152e+17
20.869275179813698,1.0952448055313304e+16,2.5931095040564397e+17,2.4639967213628732e+16,6.667250680972929e+16,119043375701783.16,879103826060982.6,2.561769600699447e+16,1.3043018511821546e+17
21.38666068340997,1.0981538939710026e+16,2.640427681210864e+17,2.4705413671796064e+16,6.684959726244091e+16,122331011515084.86,903388126823442.6,2.6333166804653748e+16,1.3414733230414707e+17
21.91439389707817,1.1009709358263006e+16,2.688603445168258e+17,2.4768789337798936e+16,6.7021084433078136e+16,125683371379333.94,928150739871329.9,2.706310677421087e+16,1.3794382050222422e+17
22.452681775019734,1.1036979958886912e+16,2.737656076167075e+17,2.4830140663638668e+16,6.718709401308258e+16,129101579920397.61,953399974831458.0,2.7807764396962376e+16,1.4182112702938512e+17
23.00173541052013,1.1063371233194696e+16,2.7876052047801626e+17,2.4889513749680972e+16,6.7347750742414056e+16,132586788773583.33,979144340384956.6,2.8567393519970148e+16,1.457807601035978e+17
23.561770118730532,1.1088903576805482e+16,2.8384708187089475e+17,2.494695448033391e+16,6.750317877671585e+16,136140178028137.38,1005392555124139.6,2.9342254169057216e+16,1.4982425813482995e+17
24.133005521105144,1.1113597346328778e+16,2.890273269710659e+17,2.5002508652248116e+16,6.765350203424245e+16,139762957757301.03,1032153559046207.9,3.0132613283338524e+16,1.5395318913810454e+17
24.715665631527248,1.1137472903086864e+16,2.9430332807056595e+17,2.50562220726812e+16,6.779884446204657e+16,143456369506739.1,1059436524717041.1,3.0938745292832028e+16,1.5816915044569552e+17
25.309978944157795,1.1160550637331192e+16,2.996771953097785e+17,2.5108140613978744e+16,6.793933018341243e+16,147221687638052.47,1087250867321554.9,3.1760932495085476e+16,1.62473768825011e+17
25.91617852304095,1.118285097062569e+16,3.051510774322535e+17,2.515831021893613e+16,6.807508351236758e+16,151060220459320.44,1115606253086150.1,3.2599465222614864e+16,1.6686870103416368e+17
26.53450209350177,1.1204394337538756e+16,3.107271625619618e+17,2.5206776859610416e+16,6.820622884222636e+16,154973311113497.56,1144512605855329.5,3.3454641824298936e+16,1.713556347813184e+17
27.165192135371807,1.1225201150374846e+16,3.164076790010944e+17,2.5253586457975324e+16,6.8332890430878376e+16,158962338231484.0,1173980111878564.0,3.4326768506692388e+16,1.7593629000506326e+17
27.808495978079243,1.1245291752204914e+16,3.221948960454986e+17,2.529878478025209e+16,6.845519211484251e+16,163028716385154.88,1204019223080130.2,3.5216159093689676e+16,1.8061242036504413e+17
28.464665897640828,1.126468636395265e+16,3.280911248144894e+17,2.5342417317867e+16,6.857325698713316e+16,167173896394201.6,1234640659225304.5,3.61231347652474e+16,1.8538581482466976e+17
29.133959215593645,1.1283405030934724e+16,3.34098719092057e+17,2.5384529167181016e+16,6.86872070718051e+16,171399365548846.25,1265855409458098.2,3.704802382958724e+16,1.902582992175419e+17
29.816638399905518,1.1301467573294346e+16,3.402200761773388e+17,2.542516491797831e+16,6.879716302220232e+16,175706647809497.8,1297674733677101.2,3.799116157096399e+16,1.9523173771141306e+17
30.51297116790363,1.1318893543477522e+16,3.464576377434105e+17,2.546436855779898e+16,6.890324386208443e+16,180097304036328.75,1330110164153216.2,3.895289019950628e+16,2.003080341123536e+17
31.223230591261704,1.1335702192527476e+16,3.5281389070480326e+17,2.5502183396110708e+16,6.9005566780439416e+16,184572932289093.9,1363173507695578.0,3.9933558913479576e+16,2.054891329822615e+17
31.947695203086937,1.1351912445706542e+16,3.59291368095421e+17,2.553865200946481e+16,6.910424698308271e+16,189135168222848.28,1396876848559191.0,4.09335240697466e+16,2.1077702057063808e+17
32.686649107148675,1.1367542886923936e+16,3.6589264995955706e+17,2.5573816206463176e+16,6.9199397597866696e+16,193785685590722.16,1431232552176437.2,4.195314944672073e+16,2.161737255838153e+17
33.44038208929165,1.1382611750716892e+16,3.726203642593769e+17,2.56077170097184e+16,6.929112962587433e+16,198526196852212.03,1466253269697392.0,4.2992806576517544e+16,2.2168131983000003e+17
34.20918973107749,1.1397136920111004e+16,3.7947718780246355e+17,2.564039465104056e+16,6.937955192840463e+16,203358453875614.06,1501951943248572.2,4.405287511945051e+16,2.2730191878633248e+17
34.993373525699035,1.141113592854311e+16,3.864658471928682e+17,2.5671888575763684e+16,6.946477123868933e+16,208284248716657.88,1538341811769850.2,4.513374325410236e+16,2.3303768213528326e+17
35.793240996213015,1.142462596411006e+16,3.935891198085993e+17,2.5702237452304836e+16,6.954689218776755e+16,213305414452072.47,1575436417264200.0,4.623580805919088e+16,2.3889081431350976e+17
36.60910581613728,1.1437623874642834e+16,4.0084983480774016e+17,2.5731479183579604e+16,6.962601733538313e+16,218423826046302.94,1613249611291730.8,4.735947586840337e+16,2.4486356510839296e+17
