t(s),Total solute volume 1,Total retention volume 1,Total 1 volume 1,Total 2 volume 1,Total 3 volume 1,Total 4 volume 1,Total 5 volume 1,Total 6 volume 1
0.1,1012905215437994.5,1251976985692815.0,109237715628389.53,129834054626431.92,0.0,0.0,0.0,0.0
0.202,1482159846484324.8,1925579629876871.0,159844923264167.5,189983053042681.25,103284823144.40134,220263228160.58,3735383111693.63,89532875922698.8
0.30604000000000003,1810159188362670.5,2468304478501009.5,195218321022534.44,232025965781757.7,254794146929.92188,543380063439.14307,9215128267556.45,220887700856122.78
0.41216080000000005,2065385710534219.5,2952017984071201.5,222743465533103.28,264740867972032.22,440433247873.45056,939297561107.6818,15929539497273.191,381838669725591.4
0.5204040160000001,2274385870662670.5,3403137633703990.0,245283284525017.47,291530481154372.0,653146461411.413,1392972907047.1377,23623505701429.094,566268372292041.5
0.6308120963200001,2450800327204148.0,3834597375007960.5,264308867649319.94,314143263147305.0,888601216678.3,1895169914641.6243,32140392651877.03,770420753223992.6
0.7434283382464002,2602772824399763.5,4253800982689044.0,280698484667665.06,333623078015872.8,1143859730890.787,2439626572200.469,41374005532245.96,991749103770401.8
0.8582969050113283,2735640138640745.5,4665433173191961.0,295027685251825.1,350653993053200.25,1416812229812.6987,3021846477692.848,51248092567044.9,1228424604971643.0
0.9754628431115548,2853128257565942.0,5072675602352805.0,307698302044659.4,365713604862030.3,1705887304997.9426,3638481234554.2095,61705871022365.51,1479085198318261.2
1.094972099973786,2957960309260267.0,5477807779000684.0,319004013356740.94,379150963639854.4,2009885848215.4077,4286976357535.2803,72704022131021.77,1742691608407054.5
1.2168715419732616,3052196379273742.0,5882533644126474.0,329166991052580.1,391230130879743.56,2327877942254.248,4965351422059.886,84208962665672.81,2018437950890427.8
1.3412089728127268,3137437517474454.0,6288172231888037.0,338359901861664.0,402156328941860.44,2659135001536.907,5672055376825.414,96194391206109.12,2305692902025594.5
1.4680331522689813,3214955207013480.5,6695775391569530.0,346719870080796.06,412092536368259.4,3003083089286.2544,6405867010785.031,108639600177577.34,2603959227829346.0
1.597393815314361,3285777259876311.0,7106203825876845.0,354357741060669.3,421170497963310.44,3359269668212.447,7165824063955.765,121528273657260.98,2912844959587132.0
1.729341691620648,3350746908646991.0,7520178062940671.0,361364454012761.44,429498299168184.8,3727339249330.2935,7951171311290.1045,134847606942765.77,3232042283609340.5
1.863928525453061,3410564702774095.5,7938313706370274.0,367815560351558.56,437165736318673.7,4107015145282.491,8761321662851.628,148587646862384.53,3561311723255437.0
2.001207095962122,3465818978062687.0,8361146468531636.0,373774509705588.0,444248222220626.44,4498085534926.314,9595826456655.762,162740787982475.44,3900470058568680.0
2.1412312378813647,3517008502273730.0,8789150360648389.0,379295092153385.94,450809688859872.6,4900392647820.668,10454352403916.045,177301381632044.75,4249380950677615.0
2.284055862638992,3564559624224548.5,9222751178019680.0,384423287684374.94,456904785571642.94,5313824253778.038,11336663449296.201,192265428280254.03,4607947564555802.0
2.4297369798917723,3608839474324585.0,9662336675892210.0,389198689823059.7,462580571083491.56,5738306886152.822,12242606327986.418,207630332607937.84,4976106694838996.0
2.578331719489608,3650166272595503.0,1.0108264370390298e+16,393655617307156.4,467877834795942.75,6173800389580.631,13172098946938.473,223394706473775.16,5353824039881396.0
2.7298983538794,3688817480950807.0,1.0560867604456158e+16,397823993277853.56,472832141740607.44,6620293493427.596,14125120953300.018,239558208973043.06,5741090365067092.0
2.884496320956988,3725036324056565.0,1.1020460325994282e+16,401730048528176.06,477474668423252.7,7077800189277.563,15101706017415.678,256121415573701.25,6137918363205900.0
3.0421862473761276,3759037058559636.0,1.1487340896400886e+16,405396889767859.7,481832878232766.3,7546356745556.163,16101935474546.154,273085710295048.53,6544340067325458.0
3.2030299723236504,3791009270173637.5,1.1961795159569482e+16,408844963046628.7,485931072241076.25,8026019231984.803,17125933053879.4,290453196325903.25,6960404705496363.0
3.3670905717701234,3821121407265150.5,1.2444098940231396e+16,412092434837126.4,489790842137752.3,8516861455618.903,18173860485371.312,308226621530097.2,7386176912520293.0
3.5344323832055258,3849523708723093.5,1.2934520097221824e+16,415155507793741.25,493431445523925.1,9018973231849.355,19245913821061.734,326409316069011.3,7821735232059135.0
3.7051210308696363,3876350646846386.0,1.3433320226232992e+16,418048684208128.06,496870119041290.7,9532458930037.727,20342320342248.305,345005139959941.2,8267170856904961.0
3.879223451487029,3901722978634701.0,1.3940756084059612e+16,420784987232585.0,500122341306299.4,10057436245866.94,21463335950362.934,364018438837933.8,8722586565851854.0
4.0568079205167695,3925749478428905.0,1.4457080789735202e+16,423376147738295.06,503202054999769.7,10594035162043.547,22609242959769.445,383454006534121.9,9188095823912286.0
4.237944078927105,3948528409401548.5,1.49825448455945e+16,425832763009603.8,506121855482346.5,11142397066410.254,23780348226523.465,403317053352063.25,9663822019056000.0
4.422702960505647,3970148779603376.0,1.5517397011989644e+16,428164432203533.6,508893151794384.44,11702674002344.373,24976981559544.57,423613179133884.06,1.0149897813692586e+16
4.61115701971576,3990691419179723.5,1.6061885062314752e+16,430379872523202.2,511526304733388.4,12275028030914.111,26199494370443.605,444348350374250.0,1.0646464593102836e+16
4.803380160110075,4010229908298450.5,1.6616256439566388e+16,432487019291084.8,514030745795708.6,12859630687920.752,27448258526052.34,465528880772390.2,1.1153671996194768e+16
4.9994477633122765,4028831379785906.5,1.7180758831468566e+16,434493112510037.56,516415080058299.9,13456662521886.23,28723665373945.406,487161414718402.6,1.1671677516500092e+16
5.199436718578522,4046557216084403.5,1.7755640677915974e+16,436404772027343.75,518687175514651.5,14066312701407.637,30026124916287.336,509252913295509.9,1.2200646163376376e+16
5.403425452950093,4063463656657331.0,1.834115162191465e+16,438228063040880.56,520854240931879.44,14688778682217.924,31356065111423.16,531810642449243.2,1.27407501750417e+16
5.611493962009095,4079602329172737.5,1.893754291316284e+16,439968553385117.25,522922893937784.6,15324265925855.625,32713931285967.496,554842163031123.56,1.3292168776424288e+16
5.823723841249277,4095020715542972.0,1.954506777179123e+16,441631363791597.94,524899220757741.7,15972987663128.7,34100185642880.258,578355322470767.9,1.385508797592212e+16
6.040198318074262,4109762562070141.5,2.0163981718480108e+16,443221212121461.8,526788828787088.1,16635164696614.994,35515306853273.67,602358247868587.6,1.4429700396082942e+16
6.261002284435747,4123868241456120.5,2.07945428761234e+16,444742452406757.2,528596892993532.56,17311025237316.127,36959789721558.27,626859340332872.2,1.5016205133975196e+16
6.486222330124463,4137375073214122.0,2.1437012247354816e+16,446199109405526.56,530328196987450.9,18000804771310.176,38434144915092.88,651867270411461.5,1.5614807647649844e+16
6.715946776726952,4150317608010837.5,2.209165397156185e+16,447594909266952.5,531987169468837.4,18704745952855.72,39938898750794.37,677390974490063.0,1.6225719665621498e+16
6.950265712261491,4162727880635199.5,2.275873556444009e+16,448933306813013.25,533577916652803.0,19423098520909.566,41474593032256.164,703439652047853.1,1.6849159116738066e+16
7.18927102650672,4174635635595906.5,2.3438528142676612e+16,450217509868258.56,535104251186639.4,20156119236449.28,43041784931832.97,730022763676441.1,1.7485350078181098e+16
7.433056447036854,4186068528771176.5,2.413130663595988e+16,451450501006917.0,536569717997247.94,20904071838354.125,44641046912931.72,757150029781378.5,1.8134522739651868e+16
7.681717575977592,4197052308048535.5,2.4837349988195016e+16,452635057034164.25,537977617445532.7,21667227015903.785,46272966688391.79,784831429896586.0,1.879691338206589e+16
7.935351927497144,4207610975484103.0,2.5556941349533228e+16,453773766474349.1,539331026111962.3,22445862396217.797,47938147211408.05,813077202551440.8,1.9472764369303736e+16
8.194058966047088,4217766933165671.5,2.6290368260600584e+16,454869045301724.3,540632815493266.9,23240262545177.832,49637206695915.51,841897845638408.0,2.016232415176045e+16
8.45794014536803,4227541114671128.5,2.703792283012156e+16,455923151117709.94,541885668852765.6,24050718980568.637,51370778663767.125,871304117235934.1,2.086584728059969e+16
8.72709894827539,4236953103765248.0,2.7799901906974276e+16,456938195951862.8,543092096434915.4,24877530196334.51,53139512016386.63,901307036847335.4,2.1583594431762196e+16
9.0016409272409,4246021241765526.0,2.857660724757969e+16,457916157840842.6,544254449227434.5,25721001696990.258,54944071128871.625,931917887021428.9,2.231583243889857e+16
9.281673745785717,4254762724825946.0,2.936834567941164e+16,458858891320070.9,545374931431134.56,26581446041345.836,56785135964793.27,963148215325120.5,2.3062834334503172e+16
9.567307220701432,4263193692231881.0,3.0175429261318e+16,459768136945977.4,546455611777544.8,27459182894809.62,58663402210153.48,995009836641966.8,2.382487939861573e+16
9.85865336511546,4271329306664891.0,3.099817544126043e+16,460645529952236.1,547498433817243.75,28354539089625.1,60579581425161.86,1027514835774022.9,2.4602253214537252e+16
10.155826432417769,4279183827280648.5,3.183690721200635e+16,461492608130921.94,548505225286979.6,29267848692476.25,62534401212662.16,1060675570327179.1,2.539524773107549e+16
10.458942961066125,4286770676342774.5,3.2691953265249876e+16,462310819018694.75,549477706650784.25,30199453078964.03,64528605402185.016,1094504673862693.1,2.6204161330893812e+16
10.768121820287448,4294102500068544.0,3.356364814458072e+16,463101526458770.6,550417498899171.0,31149701014517.09,66562954248737.49,1129015059299860.8,2.702929890459116e+16
11.083484256693197,4301191224267001.5,3.4452332397678696e+16,463866016601258.2,551326130680817.44,32118948741354.08,68638224645546.88,1164219922556634.5,2.787097193018612e+16
11.405153941827061,4308048105283865.5,3.5358352728069144e+16,464605503397361.7,552205044832677.1,33107560071156.676,70755210350082.88,1200132746416739.5,2.8729498557717244e+16
11.733257020663602,4314683776710313.0,3.6282062146742e+16,465321133636737.56,553055604367109.0,34115906483158.367,72914722222765.06,1236767304613284.5,2.960520369870861e+16
12.067922161076874,4321108292262361.5,3.722382012390747e+16,466013991571865.44,553879097968151.75,35144367227384.18,75117588477840.67,1274137666120260.2,3.0498419120279476e+16
12.409280604298411,4327331165193377.5,3.8183992741133624e+16,466685103168508.0,554676745043402.44,36193329432812.89,77364654945991.92,1312258199644387.0,3.140948354370506e+16
12.75746621638438,4333361404563208.5,3.9162952844091736e+16,467335440017215.3,555449700373008.56,37263188220256.07,79656785348280.84,1351143578310849.2,3.2338742747258932e+16
13.112615540712067,4339207548653776.0,4.016108019611221e+16,467965922937043.5,556199058392853.1,38354346819777.88,81994861581110.2,1390808784537393.5,3.3286549673190256e+16
13.474867851526309,4344877695790257.5,4.1178761632737816e+16,468577425299499.2,556925857145230.06,39467216692494.85,84379784011909.12,1431269115092097.8,3.4253264538706428e+16
13.844365208556836,4350379532800677.5,4.22163912174485e+16,469170776097791.25,557631081926772.06,40602217656622.13,86812471785312.77,1472540186330717.0,3.523925495085055e+16
14.221252512727972,4355720361322940.0,4.3274370398711864e+16,469746762783939.75,558315668660498.9,41759778017641.945,89293863139627.75,1514637939610398.2,3.6244896025176824e+16
14.605677562982532,4360907122147666.0,4.435310816851122e+16,470306133894045.6,558980507016068.94,42940334702488.88,91824915733421.8,1557578646876928.8,3.727057050814038e+16
14.997791114242183,4365946417766217.5,4.545302122248153e+16,470849601480010.0,559626443299981.44,44144333397662.85,94406606982099.4,1601378916423317.5,3.831666890313233e+16
15.397746936527026,4370844533277075.0,4.657453412178687e+16,471377843364200.25,560254283135365.44,45372228691184.84,97039934404360.47,1646055698817999.2,3.938358960009677e+16
15.805701875257567,4375607455788904.0,4.77180794568516e+16,471891505231990.6,560864793949045.1,46624484218330.08,99725915978454.52,1691626293001318.0,4.047173900868362e+16
16.221815912762718,4380240892445326.0,4.888409801306289e+16,472391202575659.8,561458707281966.94,47901572811076.79,102465590508174.8,1738108352549412.2,4.158153169489134e+16
16.64625223101797,4384750287184897.5,5.007303893854619e+16,472877522501892.75,562036720937482.2,49203976651218.375,105260017998554.7,1785519892104875.2,4.271339052116724e+16
17.079177275638333,4389140836339077.0,5.128535991411525e+16,473351025413950.0,562599500980699.06,50532187427097.26,108110280041245.58,1833879293974048.2,4.3867746789939064e+16
17.5207608211511,4393417503161596.5,5.252152732549056e+16,473812246578605.2,563147683600847.8,51886706493923.73,111017480209573.05,1883205314890950.5,4.5045040390555e+16
17.97117603757412,4397585031374135.0,5.378201643787754e+16,474261697586992.25,563681876847575.0,53268045037643.88,113982744463291.73,1933517092948188.5,4.624571994961976e+16
18.430599558325603,4401647957805706.0,5.506731157298885e+16,474699867717710.7,564202662251045.5,54676724242339.664,117007221563058.42,1984834154695469.2,4.7470242984713544e+16
18.899211549492115,4405610624196085.5,5.637790628859514e+16,475127225209778.25,564710596334915.9,56113275461132.14,120092083494674.36,2037176422406504.5,4.871907606149215e+16
19.37719578048196,4409477188227657.5,5.771430356068365e+16,475544218452368.06,565206212030385.5,57578240390576.74,123238525903145.11,2090564221515352.2,4.9992694954164136e+16
19.864739696091597,4413251633844342.5,5.9077015968299464e+16,475951277097664.5,565690019998881.5,59072171248536.64,126447768536627.33,2145018288223458.5,5.1291584809350024e+16
20.36203449001343,4416937780911275.5,6.04665658811457e+16,476348813102624.3,566162509870231.4,60595630955523.73,129721055700340.84,2200559777278807.0,5.26162403133269e+16
20.869275179813698,4420539294264357.0,6.188348565001225e+16,476737221704926.1,566624151402641.9,62149193319503.19,133059656720526.56,2257210269928747.0,5.396716586267149e+16
21.38666068340997,4424059692194718.0,6.332831780010468e+16,477116882337991.4,567075395570217.5,63733443224156.41,136464866418554.66,2314991782048330.5,5.5344875738310744e+16
21.91439389707817,4427502354409258.0,6.480161522733849e+16,477488159489498.25,567516675583367.8,65348976820601.35,139938005595282.61,2373926772446033.0,5.6749894282994504e+16
22.452681775019734,4430870529505237.5,6.630394139766704e+16,477851403507474.56,567948407846874.2,66996401722572.41,143480421525780.47,2434038151348895.0,5.81827560822102e+16
23.00173541052013,4434167341993645.5,6.783587054950501e+16,478206951357755.8,568370992860160.6,68676337205059.12,147093488464538.8,2495349289069374.5,5.964400614855442e+16
23.561770118730532,4437395798903341.5,6.9397987899312536e+16,478555127336200.3,568784816063809.0,70389414406410.61,150778608161295.56,2557884024856169.5,6.1134200109585256e+16
24.133005521105144,4440558795995424.0,7.099088985040024e+16,478896243738893.4,569190248636104.8,72136276533908.5,154537210387614.03,2621666675931491.5,6.265390439917684e+16
24.715665631527248,4443659123614981.0,7.261518420501461e+16,479230601493228.0,569587648243133.1,73917579072816.22,158370753474351.62,2686722046717390.5,6.420369645239874e+16
25.309978944157795,4446699472205126.5,7.427149037976509e+16,479558490752578.44,569977359745551.6,75733989998908.28,162280724860172.97,2753075438253807.5,6.578416490394878e+16
25.91617852304095,4449682437506503.0,7.596043962444822e+16,479880191457041.56,570359715865063.9,77586189994489.03,166268641651262.22,2820752657811187.5,6.7395909790162776e+16
26.53450209350177,4452610525463493.0,7.768267524432784e+16,480195973862547.5,570735037813310.5,79474872667910.73,170336051192394.3,2889780028700549.0,6.90395427546278e+16
27.165192135371807,4455486156856843.5,7.943885282592661e+16,480506099040477.3,571103635885656.8,81400744776590.28,174484531649529.84,2960184400284020.5,7.071568725743338e+16
27.808495978079243,4458311671680890.5,8.122964046638107e+16,480810819349727.75,571465810022285.8,83364526453540.58,178715692604110.53,3031993158189020.5,7.242497878808136e+16
28.464665897640828,4461089333282320.5,8.305571900642123e+16,481110378883051.4,571821850338684.1,85366951437422.69,183031175659233.5,3105234234729255.0,7.416806508209118e+16
29.133959215593645,4463821332275940.5,8.491778226701915e+16,481405013889368.2,572172037627580.4,87408767306117.33,187432655057880.72,3179936119535889.5,7.594560634132643e+16
29.816638399905518,4466509790252093.5,8.681653728976544e+16,481694953173586.4,572516643834162.2,89490735713836.28,191921838313398.75,3256127870402242.5,7.775827545807624e+16
30.51297116790363,4469156763289072.0,8.875270458102075e+16,481980418475406.3,572855932506283.0,91613632631765.48,196500466852423.53,3333839124345613.0,7.960675824292003e+16
31.223230591261704,4471764245282951.5,9.072701835989582e+16,482261624828431.1,573190159221287.4,93778248592254.3,201170316670435.7,3413100108889797.5,8.149175365641056e+16
31.947695203086937,4474334171106495.0,9.274022681010674e+16,482538780900836.1,573519571990925.5,95985388936549.02,205933199000169.12,3493941653571878.0,8.341397404459986e+16
32.686649107148675,4476868419607972.0,9.479309233575595e+16,482812089318782.7,573844411645726.8,98235874066077.47,210790960993060.1,3576395201677338.0,8.537414537844682e+16
33.44038208929165,4479368816459679.5,9.688639182108576e+16,483081746973619.94,574164912200139.8,100530539697281.8,215745486413963.22,3660492822206984.0,8.737300749713426e+16
34.20918973107749,4481837136865763.0,9.902091689425171e+16,483347945313911.94,574481301199603.5,102870237120003.1,220798696349349.78,3746267222080068.0,8.941131435532307e+16
34.993373525699035,4484275108137840.0,1.0119747419515856e+17,483610870623207.5,574793800050705.5,105255833459412.98,225952549929197.62,3833751758577249.0,9.148983427438112e+16
35.793240996213015,4486684412146619.0,1.0341688564740792e+17,483870704284437.94,575102624335418.2,107688211941489.97,231209045062814.4,3922980452027821.0,9.36093501976093e+16
36.60910581613728,4489066687657068.5,1.0567998873439717e+17,484127623031755.1,575407984110429.4,110168272162035.34,236570219188814.9,4013987998745229.0,9.577065994950176e+16
37.44128793246003,4491423532554137.0,1.0798763677961355e+17,484381799190565.9,575710084192431.8,112696930359219.19,242038150039486.8,4106809784215330.0,9.797457649906211e+16
38.29011369110923,4493756505965691.5,1.103406992311646e+17,484633400906485.8,576009124430233.9,115275119689647.62,247614956419786.66,4201481896541605.0,1.0022192822721107e+17
39.15591596493141,4496067130288789.0,1.1274006195058198e+17,484882592363859.1,576305299964499.1,117903790507938.33,253302799001209.94,4298041140152020.5,1.0251355919830368e+17
40.03903428423004,4498356893125040.0,1.1518662750594246e+17,485129533994483.7,576598801475814.0,120583910649790.69,259103881130773.62,4396525049771784.5,1.0485032943579504e+17
40.93981496991464,4500627249130502.0,1.1768131546933693e+17,485374382677111.25,576889815421809.2,123316465718527.8,265020449655376.6,4496971904667013.5,1.0723311520206656e+17
41.85861126931294,4502879621785108.5,1.2022506271872504e+17,485617291928277.2,577178524263958.0,126102459375097.84,271054795761776.88,4599420743163674.0,1.0966280928244706e+17
42.7957834946992,4505115405086408.0,1.2281882374421342e+17,485858412084958.25,577465106684691.4,128942913631500.28,277209255832460.16,4703911377446823.0,1.1214032127344634e+17
43.751699164593184,4507335965171932.0,1.254635709587818e+17,486097890479549.44,577749737795349.9,131838869147618.86,283486212317649.75,4810484408644998.0,1.1466657787522453e+17
