t(s),Total solute volume 1,Total retention volume 1,Total 1 volume 1,Total 2 volume 1,Total 3 volume 1,Total 4 volume 1,Total 5 volume 1,Total 6 volume 1
0.1,803801399340899.0,888695292650996.4,42833262785020.44,42060630525076.21,0.0,0.0,0.0,0.0
0.202,1211234315370274.5,1339161380049055.2,64544697006092.734,63380431053673.64,5863347.127583692,9321049.599851644,101753102.26851921,1819681515.8465695
0.30604000000000003,1521491968502601.0,1682190030287141.0,81077820259085.58,79615327614951.61,14877391.945453718,23650811.012455184,258183915.9124093,4617198385.282939
0.41216080000000005,1783916605897477.0,1972334593956024.2,95062000278397.16,93347259115766.78,26426923.516161658,42011273.85846298,458615913.05952674,8201610272.373143
0.5204040160000001,2016966827739655.5,2230003095542616.0,107480865701683.55,105542111373796.7,40238998.46236254,63968535.96735776,698312389.2540804,12488207558.522413
0.6308120963200001,2229837254210653.2,2465361201371240.5,118824382811287.5,116681012594984.0,56167247.634776175,89289912.14553122,974733232.4788262,17431563928.32654
0.7434283382464002,2427871375332111.5,2684316729249707.5,129377297457228.2,127043572345824.55,74128018.18718089,117842418.25343253,1286426719.382176,23005717389.40754
0.8582969050113283,2614492115147844.5,2890654101505780.5,139322011667431.08,136808902462091.36,94074141.3460259,149551069.4319125,1632574276.6404226,29196028927.281605
0.9754628431115548,2792044981997968.5,3086966540738024.5,148783513747861.03,146099736693944.72,115982009.11593609,184378335.74651122,2012766208.0703397,35995171696.02571
1.094972099973786,2962218856806846.5,3275121297509167.5,157851801402677.22,155004449354882.4,139844418.1094635,222312765.91633403,2426877505.3782024,43400910070.60369
1.2168715419732616,3126276983136981.5,3456515035111885.5,166594190816678.8,163589142371323.47,165666269.94269705,263362152.16869324,2874993232.200746,51414765248.510025
1.3412089728127268,3285193196830473.0,3632224446267186.5,175062576110252.84,171904773790536.7,193461828.43226656,307549169.9643186,3357360925.112426,60041164011.41448
1.4680331522689813,3439736903876158.5,3803100205367492.5,183297957671024.8,179991604429643.1,223252888.6511871,354908467.3182649,3874358819.16521,69286870485.73424
1.597393815314361,3590528534712561.0,3969828279195787.5,191333397223027.84,187882099640851.5,255067511.14623874,405484652.5665696,4426473881.322991,79160593303.10869
1.729341691620648,3738077100820334.5,4132971449779860.0,199196019156135.12,195602894540641.94,288939122.81125253,459330865.0113338,5014286206.895034,89672706553.76854
1.863928525453061,3882806433421857.0,4292998324089990.5,206908408743474.8,203176167005945.3,324905864.80618167,516507738.2981569,5638457703.236617,100835047411.35391
2.001207095962122,4025074006161113.0,4450304144546288.0,214489615172743.12,210620622615804.4,363010112.422211,577082637.7726662,6299723877.046391,112660779997.86691
2.1412312378813647,4165184748832997.0,4605226061497315.0,221955887651305.94,217952217465682.53,403298117.46094656,641129089.4336388,6998887150.332181,125164232960.16339
2.284055862638992,4303401387765091.0,4758054565733776.0,229321226437326.97,225184699278585.25,445819741.4457833,708726359.6093018,7736812946.50557,138360893739.76773
2.4297369798917723,4439952322350375.0,4909042196761942.0,236597802561160.72,232330019542176.25,490628255.4497685,779959134.2137287,8514425739.627038,152267295110.6496
2.578331719489608,4575037717800013.0,5058410279015861.0,243796282499755.7,239398652330053.72,537780191.7625693,854917283.5714742,9332706599.403221,166900981972.52734
2.7298983538794,4708834283378733.0,5206354204712842.0,250926082801013.22,246399844333157.03,587335235.4530377,933695690.0332857,10192691309.35205,182280477697.07367
2.884496320956988,4841499066233905.0,5353047628344216.0,257995572250734.22,253341813380001.56,639356147.513171,1016394125.7972796,11095469033.036327,198425260275.3908
3.0421862473761276,4973172497352373.0,5498645834315618.0,265012234186687.8,260231907822897.62,693908713.3476317,1103117171.0222983,12042181420.147074,215355746331.5505
3.2030299723236504,5103980861902389.0,5643288468184848.0,271982798139086.2,267076735803884.88,751061711.9115624,1193974164.7662487,13034022070.921595,233093281544.4072
3.3670905717701234,5234038321271107.0,5787101772253704.0,278913347581664.22,273882271062179.06,810886901.915358,1289079183.056024,14072236296.743036,251660136366.1793
3.5344323832055258,5363448582162196.0,5930200430948006.0,285809408875160.94,280653940273277.4,873459022.3362737,1388551039.7012138,15158121129.02338,271079506181.1953
3.7051210308696363,5492306285069170.0,6072689105939670.0,292676025256793.8,287396695703805.3,938855805.0896614,1492513306.438239,16293025539.106703,291375515238.43024
3.879223451487029,5620698167584116.0,6214663722326342.0,299517818831078.9,294115076084134.3,1007157998.1757356,1601094349.7275898,17478350839.9663,312573223835.1412
4.0568079205167695,5748704045517018.0,6356212553383030.0,306339042852080.5,300813257947558.9,1078449397.9717362,1714427382.0896266,18715551246.612576,334698638338.7971
4.237944078927105,5876397645448811.0,6497417141058732.0,313143626088795.4,307495099195409.6,1152816889.612851,1832650526.2992744,20006134576.874405,357778723719.3884
4.422702960505647,6003847315257309.0,6638353081560885.0,319935210687923.56,314164176276855.75,1230350494.6187797,1955906891.0992506,21351663077.92325,381841418330.4312
4.61115701971576,6131116633739821.0,6779090699381365.0,326717184659661.25,320823816088705.4,1311143425.0910208,2084344657.3588538,22753754366.826183,406915650729.2213
4.803380160110075,6258264936273447.0,6919695628494590.0,333492709889272.5,327477123481713.94,1395292143.9396834,2218117173.8180733,24214082475.736645,433031358368.35767
4.9994477633122765,6385347770199406.0,7060229315859247.0,340264746403787.8,334127005089541.5,1482896430.7058673,2357383061.726986,25734378994.19191,460219508023.87286
5.199436718578522,6512417291062094.0,7200749459529768.0,347036073486921.4,340776190062811.25,1574059452.632283,2502306327.828551,27316434302.48991,488512117852.1664
5.403425452950093,6639522608812645.0,7341310391449485.0,353809308127703.2,347427248184949.4,1668887840.7055984,2653056485.2449093,28962098891.34533,517942280989.92444
5.611493962009095,6766710091477483.0,7481963413218117.0,360586921202478.7,354082605762304.44,1767491770.4517326,2809808681.9196315,30673284764.030888,548544190629.13367
5.823723841249277,6894023632502131.0,7622757091699139.0,367371251721219.3,360744559613468.6,1869985047.3136194,2972743836.344831,32451966918.042606,580353166514.2715
6.040198318074262,7021504886938288.0,7763737520181812.0,374164519413547.06,367415289428281.0,1976485196.4807503,3142048780.365332,34300184904.023197,613405682821.1254
6.261002284435747,7149193480798500.0,7904948549877989.0,380968835884907.25,374096868722764.44,2087113557.073555,3317916408.9058895,36220044460.25985,647739397387.1362
6.486222330124463,7277127197211750.0,8046431995771061.0,387786214536488.8,380791274580106.75,2201995380.614093,3500545836.512416,38213719221.567825,683393182272.026
6.715946776726952,7405342142447880.0,8188227820209165.0,394618579412400.75,387500396338248.9,2321259933.7387996,3690142560.636927,40283452501.791985,720407155634.944
6.950265712261491,7533872894411725.0,8330374297117873.0,401467773112675.6,394226043360156.06,2445040605.1298327,3886918631.628961,42431559149.519226,758822714920.8795
7.18927102650672,7662752635820978.0,8472908159280397.0,408335563890104.6,400969952002637.1,2573475016.6597896,4091092829.4250183,44660427476.90999,798682571354.6918
7.433056447036854,7792013273959816.0,8615864730777246.0,415223652031715.3,407733791882713.1,2706705138.7601004,4302890846.952544,46972521261.829605,840030785745.9869
7.681717575977592,7921685548631187.0,8759278046379331.0,422133675611361.1,414519171526442.6,2844877410.03753,4522545480.287293,49370381823.701805,882912805612.3887
7.935351927497144,8051799129704079.0,8903180959438736.0,429067215687870.56,421327643473297.7,2988142861.175335,4750296825.622047,51856630173.72102,927375503632.5933
8.194058966047088,8182382705462180.0,9047605239610782.0,436025801012990.7,428160708899200.6,3136657243.1669226,4986392483.122984,54433969240.24944,973467217443.9928
8.45794014536803,8313464062798879.0,9192581661562518.0,443010912304857.56,435019821812890.2,3290581159.9395375,5231087767.76475,57105186170.402504,1021237790802.7794
8.72709894827539,8445070160166339.0,9338140085671800.0,450023986135323.56,441906392873144.9,3450080205.434734,5484645927.250932,59873154708.97754,1070738616127.2192
9.0016409272409,8577227194070358.0,9484309531591574.0,457066418473367.06,448821792868263.7,3615325105.220771,5747338367.138863,62740837656.03159,1122022678447.4365
9.281673745785717,8709960659802291.0,9631118245444640.0,464139567921397.06,455767355894004.5,3786491862.719692,6019444883.300607,65711289404.54323,1175144600787.349
9.567307220701432,8843295407014681.0,9778593761318524.0,471244758676780.5,462744382261683.5,3963761910.139093,6301253901.863084,68787658559.7211,1230160691006.7346
9.85865336511546,8977255690672543.0,9926762957649578.0,478383283246961.2,469754141164320.56,4147322264.2053175,6593062726.781346,71973190641.63931,1287128990133.45
10.155826432417769,9111865217849890.0,1.0075652109015008e+16,485556404943166.5,476797873125365.75,4337365686.801449,6895177795.208924,75271230872.99133,1346109322217.8303
10.458942961066125,9247147190785480.0,1.0225286933790508e+16,492765360174776.56,483876792251678.75,4534090850.619323,7207914940.839424,78685227053.85841,1407163345743.239
10.768121820287448,9383124346564196.0,1.0375692638079378e+16,500011360563884.8,490992088309952.56,4737702509.9409895,7531599665.402235,82218732525.49739,1470354606628.5293
11.083484256693197,9519818993749420.0,1.052689395627153e+16,507295594897371.6,498144928643567.25,4948411676.670491,7866567418.505223,85875409225.2433,1535748592859.956
11.405153941827061,9657253046254988.0,1.0678915188553232e+16,514619230931889.0,505336459945026.2,5166435801.742661,8213163886.025211,89659030834.72867,1603412790791.8765
11.733257020663602,9795448054714510.0,1.0831780235650828e+16,521983417065480.44,512567809897410.2,5391998962.040966,8571745287.256449,93573486023.7058,1673416743157.1633
12.067922161076874,9934425235577222.0,1.098551263106352e+16,529389283888047.1,519840088696891.25,5625332052.961708,8942678681.035398,97622781791.8602,1745832108829.997
12.409280604298411,1.0074205498136166e+16,1.11401355710114e+16,536837945621642.25,527154390467033.9,5866672986.767344,9326342281.068521,101811046911.09105,1820732724385.2886
12.75746621638438,1.021480946967229e+16,1.1295671942302798e+16,544330501460354.5,534511794574514.25,6116266896.876883,9723125780.698599,106142535470.82188,1898194667500.6655
13.112615540712067,1.0356257518879728e+16,1.1452144348303032e+16,551868036818603.44,541913366854901.8,6374366348.246309,10133430687.352627,110621630529.00517,1978296322248.5513
13.474867851526309,1.0498569777720578e+16,1.160957513316903e+16,559451624495745.6,549360160756252.5,6641231553.997625,10557670666.923164,115252847871.56374,2061118446327.4167
13.844365208556836,1.0641766161842526e+16,1.1767986404496784e+16,567082325764091.4,556853218407505.0,6917130598.459803,10996271898.34332,120040839883.10805,2146744240282.9656
14.221252512727972,1.0785866389679552e+16,1.192740005451568e+16,574761191386766.9,564393571617975.4,7202339666.790321,11449673438.622702,124990399531.85591,2235259418771.623
14.605677562982532,1.0930890000345032e+16,1.2087837779949128e+16,582489262571182.6,571982242813639.9,7497143281.351275,11918327598.621744,130106464471.77112,2326752283920.164
14.997791114242183,1.1076856370414116e+16,1.2249321100649772e+16,590267571863363.4,579620245915312.2,7801834545.018741,12402700329.847975,135394121265.02762,2421313800837.1616
15.397746936527026,1.1223784729685116e+16,1.2411871377108412e+16,598097143987828.6,587308587163395.5,8116715391.609835,12903271622.567577,140858609727.99258,2519037675333.18
15.805701875257567,1.1371694175999038e+16,1.2575509826923768e+16,605978996637312.2,595048265893344.6,8442096843.616272,13420535915.532362,146505327404.0108,2620020433908.5967
16.221815912762718,1.1520603689190298e+16,1.2740257540314156e+16,613914141216165.8,602840275265662.1,8778299277.438944,13955002517.631584,152339834166.3646,2724361506069.1826
16.64625223101797,1.1670532144233274e+16,1.2906135494742756e+16,621903583540931.0,610685602953832.4,9125652696.32248,14507196041.784483,158367856954.85876,2832163309031.2314
17.079177275638333,1.1821498323643776e+16,1.3073164568721582e+16,629948324501170.6,618585231793238.1,9484497011.193687,15077656851.398233,164595294649.57446,2943531334879.5894
17.5207608211511,1.1973520929187528e+16,1.3241365554851972e+16,638049360683414.6,626540140393844.4,9855182329.612413,15666941519.722553,171028223085.40695,3058574240243.113
17.97117603757412,1.2126618592942576e+16,1.3410759172153604e+16,646207684960648.1,634551303719059.2,10238069253.04776,16275623302.439041,177672900211.0809,3177403938553.701
18.430599558325603,1.228080988775694e+16,1.3581366077727636e+16,654424287049588.6,642619693632948.0,10633529182.696121,16904292623.830667,184535771396.4064,3300135694956.1143
18.899211549492115,1.2436113337136856e+16,1.3753206877793184e+16,662700154037602.6,650746279417665.2,11041944634.061436,17553557576.88006,191623474891.59296,3426888223936.7544
19.37719578048196,1.2592547424596282e+16,1.3926302138131094e+16,671036270880937.4,658932028262681.1,11463709560.520779,18224044437.652977,198942847442.4988,3557783789740.896
19.864739696091597,1.2750130602492306e+16,1.4100672393962558e+16,679433620875544.0,667177905727115.2,11899229686.100487,18916398194.32364,206500930065.71716,3692948309647.851
20.36203449001343,1.2908881300366296e+16,1.4276338159284118e+16,687893186101554.5,675484876176201.2,12348922847.68906,19631283091.202236,214304973987.43292,3832511460174.604
20.869275179813698,1.3068817932803886e+16,1.4453319935674226e+16,696415947842145.8,683853903192590.5,12813219346.913591,20369383188.125584,222362446749.98196,3976606786278.051
21.38666068340997,1.322995890682231e+16,1.4631638220579698e+16,705002886977166.4,692285949962883.4,13292562311.904623,21131402935.566822,230681038490.0099,4125371813625.557
21.91439389707817,1.3392322628784872e+16,1.4811313515084192e+16,713654984351638.9,700781979639476.6,13787408069.171833,21918067765.820087,239268668392.09796,4278948164002.961
22.452681775019734,1.355592751083912e+16,1.4992366331151836e+16,722373221118803.9,709342955677430.9,14298226525.807726,22730124700.603073,248133491321.62393,4437481673927.287
23.00173541052013,1.3720791976864234e+16,1.517481719833267e+16,731158579057067.2,717969842145685.0,14825501562.230373,23568342975.414352,257283904640.50766,4601122516529.527
23.561770118730532,1.3886934467908024e+16,1.5358686669907408e+16,740012040859720.4,726663604011569.6,15369731435.66497,24433514680.96328,266728555209.33142,4770025326769.647
24.133005521105144,1.4054373447085024e+16,1.55439953284393e+16,748934590395954.1,735425207397090.2,15931429194.553734,25326455421.97254,276476346579.0988,4944349330042.423
24.715665631527248,1.4223127403897638e+16,1.57307637906925e+16,757927212941123.8,744255619805060.8,16511123104.06605,26248004993.628048,286536446375.6347,5124258474227.406
25.309978944157795,1.439321485793431e+16,1.5919012711865004e+16,766990895373822.6,753155810312604.8,17109357082.862907,27199028075.919437,296918293879.2816,5309921565230.919
25.91617852304095,1.4564654361887944e+16,1.6108762789073714e+16,776126626336717.6,762126749729101.6,17726691151.2453,28180414946.079502,307631607802.1647,5501512406060.068
26.53450209350177,1.4737464503827844e+16,1.630003476401837e+16,785335396357637.0,771169410715078.8,18363701890.78924,29193082209.283848,318686394264.783,5699209939460.75
27.165192135371807,1.4911663908648726e+16,1.6492849424739086e+16,794618197926762.9,780284767858022.9,19020982915.53806,30237973547.72379,330092954973.16907,5903198394141.44
27.808495978079243,1.5087271238607916e+16,1.6687227606369716e+16,803976025525277.4,789473797700503.6,19699145354.783447,31316060488.103256,341861895597.16156,6113667434592.577
28.464665897640828,1.526430519285314e+16,1.6883190190779178e+16,813409875600186.0,798737478715444.6,20398818347.426727,32428343187.54488,354004134349.63336,6330812314498.735
29.133959215593645,1.5442784505830512e+16,1.70807581049781e+16,822920746479481.6,808076791222834.6,21120649547.860607,33575851237.81119,366530910765.6466,6554834033725.043
29.816638399905518,1.5622727944452476e+16,1.7279952318158896e+16,832509638221239.1,817492717241526.0,21865305643.259125,34759644487.66232,379453794679.58344,6785939498842.972
30.51297116790363,1.5804154303895956e+16,1.7480793837224312e+16,842177552389702.5,826986240269369.4,22633472882.10231,35980813883.07442,392784695397.2434,7024341687141.858
31.223230591261704,1.5987082401889526e+16,1.7683303700649682e+16,851925491750846.8,836558344984268.6,23425857613.696377,37240482324.938286,406535871058.75885,7270259814051.242
31.947695203086937,1.6171531071341166e+16,1.7887502970513566e+16,861754459879534.4,846210016858417.1,24243186838.376633,38539805543.74169,420719938186.88873,7523919503877.79
32.686649107148675,1.6357519151148968e+16,1.809341272252317e+16,871665460669833.8,855942241677453.1,25086208768.00252,39879972990.6132,435349881413.9271,7785552963734.831
33.44038208929165,1.6545065475031782e+16,1.8301054033853596e+16,881659497739809.8,865756004955982.5,25955693396.268974,41262208743.97327,450439063378.9621,8055399160517.294
34.20918973107749,1.6734188858209928e+16,1.851044796861339e+16,891737573721769.2,875652291240640.8,26852433078.268497,42687772430.89032,466001234785.66785,8333704000746.114
34.993373525699035,1.6924908081764572e+16,1.8721615560745996e+16,901900689428806.2,885632083291647.9,27777243118.641132,44157960162.09225,482050544609.1363,8620720513076.891
35.793240996213015,1.7117241874500506e+16,1.8934577794174012e+16,912149842888280.2,895696361133739.6,28730962367.55111,45674105479.41927,498601550438.5277,8916709033236.146
36.60910581613728,1.7311208892139268e+16,1.914935557999393e+16,922486028233068.2,905846100967418.6,29714453823.62171,47237580314.339775,515669228940.475,9221937391115.666
37.44128793246003,1.7506827693671254e+16,1.936596973053148e+16,932910234441396.1,916082273931500.6,30728605242.851376,48849795955.9764,533268986426.2945,9536681099722.201
38.29011369110923,1.7704116714700268e+16,1.9584440930073956e+16,943423443916418.5,926405844708333.8,31774329752.422634,50512204026.9108,551416669504.0989,9861223545644.164
39.15591596493141,1.790309423762176e+16,1.9804789702102544e+16,954026630897067.1,936817769963305.8,32852566468.199535,52226297464.852745,570128575794.9304,10195856180661.967
40.03903428423004,1.810377835848611e+16,2.0027036372860652e+16,964720759692242.2,947318996610889.0,33964281114.594322,53993611508.07795,589421464690.0109,10540878714092.625
40.93981496991464,1.8306186950409984e+16,2.025120103110592e+16,975506782731071.4,957910459900056.5,35110466645.36558,55815724682.346565,609312568124.1527,10896599305422.123
41.85861126931294,1.851033762341427e+16,2.047730348391149e+16,986385638422738.5,968593081312739.0,36292143863.79498,57694259786.83671,629819601338.4131,11263334756744.105
42.7957834946992,1.8716247680585316e+16,2.070536320840057e+16,997358248820380.9,979367766269839.9,37510362040.573235,59630884876.43557,650960773602.9672,11641410704486.41
43.751699164593184,1.8923934070474292e+16,2.093539929932175e+16,1008425517084530.6,990235401640438.9,38766199527.612144,61627314237.55792,672754798869.3219,12031161809872.812
44.72673314788505,1.913341333567316e+16,2.1167430412394468e+16,1019588324742825.0,1001196853050940.0,40060764365.891495,63685309354.48034,695220906318.9899,12432931947531.92
45.721267810842754,1.93447015575298e+16,2.1401474703383084e+16,1030847528743947.0,1012252961992138.8,41395194885.339226,65806679863.01594,718378850773.9519,12847074391633.605
