t(s),Total solute volume 1,Total retention volume 1,Total 1 volume 1,Total 2 volume 1,Total 3 volume 1,Total 4 volume 1,Total 5 volume 1,Total 6 volume 1
0.1,821307387244814.4,914309965951331.9,46537842289353.97,46464736417161.86,0.0,0.0,0.0,0.0
0.202,1237586407269160.2,1377727460267374.2,70125512075361.48,70015352713879.766,522008.3633760186,851350.3728680661,9657342.972803593,177178269.59864908
0.30604000000000003,1554588214142935.2,1730625965126237.8,88087824780533.55,87949448648618.05,1324516.625564602,2160171.8683926007,24504057.863052316,449565404.4288934
0.41216080000000005,1822719101176485.2,2029119623600758.0,103280958489115.38,103118715647223.5,2352757.288126253,3837143.3900294234,43526914.767750435,798571115.202274
0.5204040160000001,2060837881940151.2,2294202760448862.5,116773512496670.8,116590074362605.17,3582432.2647935264,5842636.855636544,66276388.12091273,1215947979.2511315
0.6308120963200001,2278338749719289.5,2536333336749124.0,129097791143205.36,128894992945895.4,5000511.854225958,8155401.947979387,92511422.81618784,1697273394.43923
0.7434283382464002,2480681231961504.0,2761589099066827.5,140563148309851.34,140342339318444.58,6599549.798172916,10763294.463499857,122094259.90122019,2240019921.7268057
0.8582969050113283,2671362604189690.5,2973863343227549.0,151367750553413.44,151129968739787.47,8375347.940917988,13659467.573269863,154947231.70699218,2842762606.1245832
0.9754628431115548,2852779332859565.0,3175823904168919.0,161647389149939.84,161393459173169.16,10325805.722989442,16840495.446561515,191031476.97600532,3504788465.576354
1.094972099973786,3026656997031742.5,3369391760525276.5,171499840799779.7,171230433722729.7,12450283.098549116,20305334.22414218,230335154.56028423,4225880249.607069
1.2168715419732616,3194286293593343.5,3556003764290405.0,180998240420737.78,180713912419525.47,14749217.761991004,24054697.74793334,272866361.95122874,5006186516.9595785
1.3412089728127268,3356662225241064.5,3736767589975185.5,190198967974030.3,189900186658170.97,17223880.970941365,28090659.329429857,318648617.90255255,5846138756.238277
1.4680331522689813,3514570923973662.5,3912558389693664.5,199146568154604.8,198833731158891.3,19876214.548915315,32416385.915123653,367717846.911402,6746396060.865257
1.597393815314361,3668646309928561.0,4084081867849158.5,207876960857832.72,207550409390923.38,22708718.202478774,37035954.31053848,420120294.53903335,7707806881.959663
1.729341691620648,3819408463815854.5,4251916998727768.0,216419615481493.16,216079644458920.44,25724369.480706688,41954220.641028196,475911046.6276548,8731381860.767942
1.863928525453061,3967290435639162.0,4416545870943738.0,224799069991652.34,224445935782550.0,28926565.72849854,47176725.682654485,535152955.4127939,9818274126.313229
2.001207095962122,4112657476327456.5,4578375096792789.0,233036020646997.47,232669947108991.44,32319081.340887938,52709625.14766451,597915848.7104169,10969764786.549782
2.1412312378813647,4255821151515663.5,4737751524235404.0,241148121731412.53,240769304992965.6,35906035.967983745,58559637.8990383,664275955.8036528,12187253733.864355
2.284055862638992,4397049906733587.5,4894973998414834.0,249150584203809.7,248759196490967.44,39691870.69530691,64734006.82501541,734315410.4342151,13472245181.504564
2.4297369798917723,4536577114966377.0,5050302320548062.0,257056631708371.03,256652824478299.75,43681330.30760399,71240470.32878087,808122007.051067,14826351197.053907
2.578331719489608,4674607301849704.0,5203964178003987.0,264877853306552.5,264461759811294.44,47879450.050678775,78087240.46125546,885788899.7181201,16251280848.001232
2.7298983538794,4811321027729377.0,5356160579199774.0,272624480111622.25,272196217531280.22,52291545.993510194,85282987.27170767,967414437.8417177,17748838519.199673
2.884496320956988,4946878763935177.0,5507070168810605.0,280305604930439.53,279865276161331.16,56923208.19411929,92836827.66187672,1053102039.7363592,19320921593.219776
3.0421862473761276,5081424004933322.0,5656852692332228.0,287929358607741.3,287477053773533.56,61780296.122276165,100758317.92080478,1142960107.9428468,20969518896.706665
3.2030299723236504,5215085792357428.0,5805651805924983.0,295503053045613.9,295038850783790.4,66868935.9208934,109057449.25840956,1237101978.5629113,22696709770.82855
3.3670905717701234,5347980780994503.0,5953597376346109.0,303033298268721.9,302557266833154.56,72195519.18728961,117744645.81783357,1335645898.7120686,24504663657.603874
3.5344323832055258,5480214944162465.0,6100807379439442.0,310526099056319.75,310038297268043.0,77766703.02863066,126830764.76586625,1438715027.5452573,26395640118.712246
3.7051210308696363,5611884992366152.0,6247389479436528.0,317986935327738.6,317487413399443.7,83589411.20041573,136327098.14971748,1546437457.3192787,28371989221.914246
3.879223451487029,5743079561896359.0,6393442352150022.0,325420829492115.56,324909629746851.56,89670836.1781008,146245376.27566448,1658946251.7187057,30436152244.200912
4.0568079205167695,5873880217281187.0,6539056800941038.0,332832403250423.44,332309560751060.94,96018442.043481,156597772.4164893,1776379499.255038,32590662651.487232
4.237944078927105,6004362301942967.0,6684316703703209.0,340225925796342.56,339691468899325.9,102639968.09178293,167396908.69434148,1898880379.9994419,34838147322.933365
4.422702960505647,6134595664176981.0,6829299821050982.0,347605354952494.4,347059305796968.6,109543433.08444802,178655863.0166633,2026597244.260928,37181327994.42514
4.61115701971576,6264645280034719.0,6974078489738014.0,354974372464939.94,354416747406440.4,116737140.08754812,190388176.96722803,2159683702.0990224,39623022900.83235
4.803380160110075,6394571790420558.0,7118720220575285.0,362336414436766.44,361767224433094.06,124229681.84768896,202607864.57378402,2298298722.780156,42166148600.70158
4.9994477633122765,6524431966386014.0,7263288216415988.0,369694697693106.06,369113948648787.7,132029946.66680513,215329421.88933444,2442606743.4637766,44813721970.2836
5.199436718578522,6654279113993694.0,7407841822867502.0,377052242721995.1,376459935796707.3,140147124.74496692,228567837.3367143,2592777786.546849,47568862356.41347
5.403425452950093,6784163428059048.0,7552436922092313.0,384411893718486.6,383808025603995.5,148590714.96660903,242338602.77635005,2748987585.2118363,50434793879.899506
5.611493962009095,6914132302433354.0,7697126278229193.0,391776336166254.1,391160899335728.44,157370532.11076593,256657725.26553133,2911417716.819052,53414847882.826614
5.823723841249277,7044230603172756.0,7841959841497898.0,399148112316200.25,398521095249216.4,166496714.4701631,271541739.4844949,3080255743.862878,56512465514.63573
6.040198318074262,7174500909874451.0,7986985016866428.0,406529634861322.5,405891022247385.8,175979731.86758605,287007720.81043917,3255695362.277926,59731200453.048004
6.261002284435747,7304983729597491.0,8132246902198784.0,413923199058129.2,413272971981156.4,185830394.0609445,303073299.0254557,3437936556.9361076,63074721756.91784
6.486222330124463,7435717687081116.0,8277788500016159.0,421330993505013.5,420669129610873.7,196059859.53097382,319756672.64852554,3627185764.2227697,66546816848.966225
6.715946776726952,7566739694394885.0,8423650906361084.0,428755109755149.06,428081583404118.1,206679644.64770174,337076623.8852314,3823656041.6199827,70151394627.06932
6.950265712261491,7698085102678162.0,8569873479723028.0,436197550914530.44,435512333320224.4,217701633.2136378,355052534.19189006,4027567244.2595344,73892488703.41818
7.18927102650672,7829787838230981.0,8716493992543263.0,443660239353303.75,442963298709513.0,229138086.38327962,373704400.4534074,4239146208.4378033,77774260771.40811
7.433056447036854,7961880524889689.0,8863548767451752.0,451145023639953.7,450436325236574.06,241001652.9599226,393052851.7764978,4458626942.110962,81801004100.59183
7.681717575977592,8094394594345081.0,9011072800081316.0,458653684792274.1,457933191121420.94,253305380.0720064,413119166.9018922,4686250822.411772,85977147160.456
7.935351927497144,8227360385830342.0,9159099870047788.0,466187941925998.75,465455612779247.25,266062724.23232958,433925292.2409617,4922266800.249561,90307257374.15086
8.194058966047088,8360807236410927.0,9307662641468358.0,473749457370904.94,473005249928495.9,279287562.7844468,455493860.54381764,5166931612.073291,94796045003.63953
8.45794014536803,8494763562944150.0,9456792754206294.0,481339841314902.6,480583710227654.7,292994205.7414674,477848210.20737135,5420509998.894145,99448367168.03287
8.72709894827539,8629256936636325.0,9606520906875012.0,488960656028674.3,488192553493249.8,307197408.0232599,501012405.2331749,5683274932.678927,104269231997.15688
9.0016409272409,8764314151005672.0,9756876932501538.0,496613419716667.7,495833295544801.0,321912382.09884894,525011255.84607834,5955507850.239428,109263802922.6463
9.281673745785717,8899961283958301.0,9907889867636650.0,504299610034509.4,503507411716703.2,337154811.0414471,549870339.785874,6237498894.756023,114437403109.09798
9.567307220701432,9036223754595946.0,1.0059588015600036e+16,512020667307914.9,511216340072079.6,352940862.0042344,575616024.2851413,6529547165.085107,119795520028.0338
9.85865336511546,9173126375300174.0,1.0211999004467342e+16,519777997483933.7,518961484349397.0,369287200.12560016,602275488.747495,6831960973.011653,125343810177.63135
10.155826432417769,9310693399571738.0,1.0365149840332186e+16,527572974841694.5,526744216668940.6,386211002.87313086,629876748.1414142,7145058108.619073,131088103951.37671
10.458942961066125,9448948566049140.0,1.0519066956314286e+16,535406944486607.5,534565880023115.75,403729974.8361969,658448677.1256833,7469166113.958051,137034410658.97871
10.768121820287448,9587915139079946.0,1.0673776257730666e+16,543281224649290.94,542427790571742.2,421862362.9775117,688021034.923369,7804622565.206641,143188923703.06766
11.083484256693197,9727615946177852.0,1.082930316379973e+16,551197108807978.06,550331239761146.75,440626972.35454905,718624490.9621272,8151775363.523006,149558025915.37466
11.405153941827061,9868073412660006.0,1.09856726462069e+16,559155867651198.9,558277496283748.9,460043182.3222188,750290651.2993579,8510983034.801558,156148295056.25903
11.733257020663602,1.0009309593728406e+16,1.114290926482461e+16,567158750895598.8,566267807893029.8,480130963.2286755,783052085.8516637,8882615038.552332,162966509481.6158
12.067922161076874,1.0151346204229212e+16,1.1301037200847842e+16,575206988972200.1,574303403087139.1,500910893.61664635,816942356.4487308,9267052086.132496,170019653981.36548
12.409280604298411,1.0294204646300418e+16,1.1460080287578958e+16,583301794593002.2,582385492673044.4,522404177.94310063,851996045.7326016,9664686468.567678,177314925793.87625
12.75746621638438,1.0437906035095712e+16,1.1620062039070752e+16,591444364208575.4,590515271221823.2,544632664.8306031,888248786.924072,10075922394.209389,184859740800.85358
13.112615540712067,1.0582471222752968e+16,1.178100567681625e+16,599635879366196.6,598693918424675.9,567618865.8641378,925737294.4787047,10501176336.483925,192661739907.36865
13.474867851526309,1.0727920820759636e+16,1.194293415465335e+16,607877507977131.8,606922600358207.2,591385974.9476576,964499395.6557106,10940877391.996584,200728795611.86868
13.844365208556836,1.0874275220850722e+16,1.2105870182036626e+16,616170405500794.6,615202470666736.2,615957888.2351174,1004574063.0237551,11395467649.263783,209069018771.17093
14.221252512727972,1.1021554614563472e+16,1.2269836245813582e+16,624515716052759.0,623534671668560.1,641359224.651175,1046001447.9284879,11865402568.354397,217690765565.6102
14.605677562982532,1.1169779011558864e+16,1.2434854630628596e+16,632914573442935.1,631920335392495.8,667615347.0172741,1088822914.9473464,12351151371.730873,226602644669.64127
14.997791114242183,1.1318968256811764e+16,1.2600947438067284e+16,641368102149585.6,640360584550378.1,694752383.7992344,1133081077.3580685,12853197446.588299,235813524633.40527
15.397746936527026,1.146914204675903e+16,1.2768136604641376e+16,649877418234361.9,648856533450646.1,722797251.4930186,1178819833.647919,13372038759.00014,245332541480.88794
15.805701875257567,1.1620319944489662e+16,1.2936443918707224e+16,658443630202995.1,657409288857698.8,751777677.6657704,1226084405.0916865,13908188280.186525,255169106530.4854
16.221815912762718,1.177252139405029e+16,1.3105891036399902e+16,667067839815916.9,666019950801218.5,781722224.6697285,1274921374.42706,14462174425.23106,265332914443.9459
16.64625223101797,1.192576573393464e+16,1.3276499496658588e+16,675751142852587.9,674689613339322.4,812660314.0470998,1325378725.6568491,15034541504.58034,275833951509.81885
17.079177275638333,1.2080072209817208e+16,1.3448290735411728e+16,684494629833056.9,683419365278971.0,844622251.6444081,1377505885.0084212,15625850188.669205,286682504167.7074
17.5207608211511,1.2235459986587476e+16,1.3621286098982894e+16,693299386699831.1,692210290856774.5,877639253.4553827,1431353763.0811694,16236677986.023914,297889167779.7752
17.97117603757412,1.2391948159733626e+16,1.3795506856773232e+16,702166495462920.0,701063470383021.9,911743472.2118202,1486974798.2139893,16867619735.20283,309464855656.11127
18.430599558325603,1.2549555766120768e+16,1.3970974213270276e+16,711097034810573.1,709979980851469.5,946968024.7423562,1544423001.1050966,17519288110.944077,321420808340.7194
18.899211549492115,1.2708301794203618e+16,1.4147709319426974e+16,720092080687956.8,718960896517081.5,983347020.1194892,1603754000.7173996,18192314144.895298,333768603165.0142
19.37719578048196,1.2868205193708218e+16,1.432573328345025e+16,729152706845744.2,728007289443792.8,1020915588.6155835,1665025091.5032935,18887347761.30992,346520164075.8814
19.864739696091597,1.3029284884813388e+16,1.4505067181032908e+16,738279985360371.8,737120230023921.2,1059709911.4889356,1728295281.983181,19605058328.099686,359687771745.43207
20.36203449001343,1.319155976685707e+16,1.4685732065056976e+16,747474987127371.8,746300787470737.0,1099767251.621306,1793625344.7126775,20346135223.638775,373284073969.72266
20.869275179813698,1.3355048726589356e+16,1.4867748974792352e+16,756738782328999.1,755550030285352.5,1141125985.0285335,1861077867.6737258,21111288419.720848,387322096363.7696
21.38666068340997,1.3519770645986768e+16,1.5051138944608026e+16,766072440877029.6,764869026698828.9,1183825633.2660658,1930717307.125245,21901249081.070724,401815253360.25354
21.91439389707817,1.3685744409640128e+16,1.5235923012208254e+16,775477032831370.6,774258845090117.8,1227906896.7511928,2002610041.9488804,22716770181.81598,416777359519.3329
22.452681775019734,1.3852988911720134e+16,1.542212222639946e+16,784953628794762.6,783720554380153.4,1273411689.0239124,2076824429.5254989,23558627139.322803,432222641156.96045
23.00173541052013,1.402152306252112e+16,1.5609757654387528e+16,794503300283548.2,793255224402036.4,1320383171.9679635,2153430863.17772,24427618465.793987,448165748299.04254
23.561770118730532,1.4191365794575598e+16,1.5798850388597778e+16,804127120074160.8,802863926246976.1,1368865792.013333,2232501831.2130895,25324566438.025337,464621766968.64844
24.133005521105144,1.4362536068326436e+16,1.5989421553003024e+16,813826162524519.5,812547732585186.8,1418905317.3410282,2314111977.6018853,26250317785.702,481606231813.3161
24.715665631527248,1.4535052877336004e+16,1.6181492308936276e+16,823601503869198.5,822307717960577.0,1470548876.1099725,2398338164.321929,27205744398.605427,499135139079.21906
25.309978944157795,1.470893525300376e+16,1.6375083860356662e+16,833454222486739.5,832144959057660.9,1523844995.725136,2485259535.401518,28191744053.08132,517224959938.6196
25.91617852304095,1.4884202268755174e+16,1.6570217458527264e+16,843385399137005.1,842060534938527.4,1578843643.1644146,2574957582.6891255,29209241158.094765,535892654176.59906
26.53450209350177,1.5060873043656614e+16,1.6766914406054212e+16,853396117166011.9,852055527247360.0,1635596266.380403,2667516213.3761234,30259187521.16986,555155684242.5061
27.165192135371807,1.5238966745400386e+16,1.696519606022522e+16,863487462675081.9,862131020379303.9,1694155836.7910511,2763021819.295455,31342563134.474125,575032029670.8821
27.808495978079243,1.5418502592595414e+16,1.7165083835575162e+16,873660524650614.9,872288101610062.0,1754576892.8709652,2861563348.015213,32460376981.262314,595540201875.8259
28.464665897640828,1.5599499856287264e+16,1.7366599205594542e+16,883916395050249.8,882527861181893.2,1816915584.8521633,2963232375.7418294,33613667862.846813,616699259321.815
29.133959215593645,1.5781977860621916e+16,1.7569763703484742e+16,894256168840445.5,892851392341156.2,1881229720.5400224,3068123182.041885,34803505246.19633,638528823072.895
29.816638399905518,1.5965955982555442e+16,1.7774598921851878e+16,904680943980053.0,903259791321889.0,1947578812.2462697,3176332826.38583,36030990132.20011,661049092720.8634
30.51297116790363,1.6151453650501858e+16,1.798112651121885e+16,915191821343684.0,913754157269310.6,2016024124.8366604,3287961226.5095673,37297255944.55297,684280862691.67
31.223230591261704,1.6338490341799882e+16,1.8189368177222884e+16,925789904578178.4,924335592096512.9,2086628724.8861938,3403111238.582413,38603469439.128395,708245538927.5542
31.947695203086937,1.6527085578868468e+16,1.839934567635403e+16,936476299884760.9,935005200266944.0,2159457530.929335,3521888739.1609116,39950831633.609024,732965155940.7028
32.686649107148675,1.6717258923911262e+16,1.8611080810078176e+16,947252115718976.2,945764088494838.5,2234577364.786759,3644402708.8982444,41340578757.03113,758462394232.1355
33.44038208929165,1.6909029972020396e+16,1.8824595417179e+16,958118462399931.8,956613365355050.8,2312057003.9436417,3770765317.968824,42773983218.782036,784760598067.3252
34.20918973107749,1.710241834252041e+16,1.9039911364141044e+16,969076451619820.9,967554140793367.1,2391967234.947358,3901092013.1552625,44252354596.455696,811883793597.6621
34.993373525699035,1.7297443668387188e+16,1.925705053338987e+16,980127195844357.9,978587525527871.1,2474380907.78481,4035501606.533146,45777040641.82983,839856707314.2427
35.793240996213015,1.7494125583568508e+16,1.9476034809196924e+16,991271807594327.1,989714630331620.1,2559372991.1913633,4174116365.6750917,47349428304.07696,868704784817.6741
36.60910581613728,1.7692483708029512e+16,1.969688606105173e+16,1002511398598205.9,1000936565186614.2,2647020628.8344703,4317062105.281501,48970944769.15639,898454209884.619
37.44128793246003,1.7892537630342544e+16,1.991962612430084e+16,1013847078805663.5,1012254438298821.2,2737403196.306022,4464468280.13005,50643058514.16522,929131923808.6176
38.29011369110923,1.8094306887640024e+16,2.0144276777851476e+16,1025279955251612.9,1023669354964030.1,2830602358.8473306,4616468079.220249,52367280375.244316,960765644989.4424
39.15591596493141,1.829781094275001e+16,2.037085971873901e+16,1036811130760647.8,1035182416274323.6,2926702129.7209864,4773198520.972879,54145164627.44637,993383888741.7946
40.03903428423004,1.8503069158337704e+16,2.0599396533361492e+16,1048441702481819.4,1046794717655143.9,3025788929.1327324,4934800549.326461,55978310074.7823,1027015987290.5446
40.93981496991464,1.8710100767881356e+16,2.082990866519052e+16,1060172760244041.9,1058507347223289.9,3127951643.5961814,5101419130.556106,57868361148.456154,1061692109916.1044
41.85861126931294,1.8918924843320204e+16,2.1062417378777024e+16,1072005384722916.9,1070321383956624.2,3233281685.6219444,5273203350.621212,59817009011.10115,1097443283209.7322
42.7957834946992,1.912956025922223e+16,2.1296943719883116e+16,1083940645410377.4,1082237895666894.1,3341873053.6015406,5450306512.831009,61825992664.61855,1134301411394.7927
43.751699164593184,1.934202565333331e+16,2.1533508471585764e+16,1095979598379269.1,1094257936767840.9,3453822391.745352,5632886235.598295,63897100059.014015,1172299296666.2227
44.72673314788505,1.955633938338585e+16,2.177213210621581e+16,1108123283835989.8,1106382545831672.1,3569229049.9226804,5821104550.0333605,66032169199.42288,1211470659496.5845
