t(s),Total solute volume 1,Total retention volume 1,Total 1 volume 1,Total 2 volume 1,Total 3 volume 1,Total 4 volume 1,Total 5 volume 1,Total 6 volume 1
0.1,1386011386779396.2,8520484941412214.0,2082602288778356.8,5051871265854462.0,0.0,0.0,0.0,0.00819856729667888
0.202,1986024602224825.0,1.2578076565885534e+16,2984176044604718.5,7238894541901212.0,173020474019.9368,1095853844387.3323,48562478628375.98,319150024207997.7
0.30604000000000003,2417271109457413.5,1.5854943886292778e+16,3632161959238965.5,8810756750369921.0,425403178102.837,2696200339667.361,124279988418211.77,867352475290496.1
0.41216080000000005,2752556742215614.5,1.873212185492779e+16,4135958120739421.5,1.0032847101553402e+16,733907921904.032,4652734535896.145,218328721125752.56,1587044526835787.8
0.5204040160000001,3024974426435648.0,2.137202632118707e+16,4545289622275871.0,1.1025787922118028e+16,1086215677712.5171,6887178458316.296,326251689041705.56,2441749267179791.5
0.6308120963200001,3252722420080360.0,2.3858701223692588e+16,4887500968033852.0,1.1855910855532974e+16,1474737636818.873,9351339796822.61,445407508015506.94,3406333394596253.5
0.7434283382464002,3447076574101054.5,2.624170420956044e+16,5179535126108906.0,1.2564315702694774e+16,1894422826124.5046,12013158182149.426,574102533747208.2,4462766691900225.5
0.8582969050113283,3615562607280156.0,2.8553040170580724e+16,5432700156795888.0,1.3178433239203508e+16,2341744335621.594,14850258423880.713,711203903056970.8,5597948261484691.0
0.9754628431115548,3763409160615053.0,3.081479385788092e+16,5654852556408425.0,1.3717321520690372e+16,2814114420445.8696,17846230905558.234,855920776728238.1,6802629498112833.0
1.094972099973786,3894412769278306.5,3.304298864873524e+16,5851696954814851.0,1.4194818659488096e+16,3309585590145.647,20988731289334.395,1007681361112807.0,8070080587161707.0
1.2168715419732616,4011389408509352.5,3.524972105310971e+16,6027464603308414.0,1.4621188683123786e+16,3826632986863.9736,24268096645707.85,1166053334861537.8,9395530293674054.0
1.3412089728127268,4116483482101542.0,3.744442442093535e+16,6185377657378757.0,1.5004247780958204e+16,4364032622157.0835,27676571670608.977,1330696486626244.5,1.0775578409577852e+16
1.4680331522689813,4211368914174968.5,3.963465855254021e+16,6327951335059658.0,1.5350097273345118e+16,4920786059623.265,31207830427967.285,1501335571055539.5,1.2207776842417346e+16
1.597393815314361,4297382643542471.5,4.182662518991383e+16,6457194504132935.0,1.5663610191661434e+16,5496072333536.489,34856671333927.89,1677744509004590.5,1.3690340597904946e+16
1.729341691620648,4375614476634181.0,4.402551697830466e+16,6574744694159106.0,1.5948758787342464e+16,6089215503436.034,38618811518310.96,1859736747606909.8,1.522195424554025e+16
1.863928525453061,4446968499612562.5,4.623576100877825e+16,6681960373643731.0,1.620883837547502e+16,6699661278892.714,42490738764263.5,2047158860130240.8,1.6801644499873538e+16
2.001207095962122,4512205885203526.0,4.846119326651951e+16,6779985271098898.0,1.6446623363010832e+16,7326959196246.02,46469598646095.586,2239885876869730.5,1.8428696312494156e+16
2.1412312378813647,4571975424892225.0,5.070518642887295e+16,6869794252368434.0,1.666447853655518e+16,7970748473525.507,50553104961798.19,2437817615662727.5,2.0102596745959084e+16
2.284055862638992,4626835832824857.0,5.297074534991259e+16,6952226834208008.0,1.6864440358477364e+16,8630746487429.621,54739466762210.48,2640875662346744.0,2.1822996448805984e+16
2.4297369798917723,4677272418967024.0,5.5260579656479944e+16,7028012237173046.0,1.704827773930117e+16,9306739226244.451,59027327885671.06,2849000828739101.5,2.3589682365187692e+16
2.578331719489608,4723709823920765.0,5.757715980845565e+16,7097788520799896.0,1.721753845509919e+16,9998573295379.287,63415716321036.05,3062150996205851.0,2.5402557722813532e+16
2.7298983538794,4766521937401252.0,5.992276100128576e+16,7162117486986937.0,1.737358529952523e+16,10706149178704.88,67904001523007.87,3280299285942656.5,2.7261626840727984e+16
2.884496320956988,4806039756117323.0,6.229949798889539e+16,7221496487148419.0,1.7517624725127376e+16,11429415529305.467,72491858248200.42,3503432507144676.5,2.9166983239580064e+16
3.0421862473761276,4842557699096186.0,6.470935303061649e+16,7276367911542510.0,1.7650729862164436e+16,12168364304231.734,77179235738201.92,3731549836547317.5,3.111880012122359e+16
3.2030299723236504,4876338744116512.0,6.71541985651317e+16,7327126907211094.0,1.7773859240456152e+16,12923026588053.21,81966331266180.92,3964661686079014.0,3.311732262941469e+16
3.3670905717701234,4907618648192352.0,6.9635815793900024e+16,7374127719625614.0,1.7887872172672842e+16,13693468978348.03,86853567242803.72,4202788722059737.0,3.516286149512834e+16
3.5344323832055258,4936609447764512.0,7.215591005715482e+16,7417688952030113.0,1.7993541512217834e+16,14479790433641.525,91841571250852.05,4445961007971739.5,3.725578777548612e+16
3.7051210308696363,4963502387293966.0,7.471612366956336e+16,7458097965908324.0,1.809156432768342e+16,15282119508254.17,96931158530008.27,4694217250785704.0,3.9396528459853704e+16
3.879223451487029,4988470390573829.0,7.731804672510174e+16,7495614594345359.0,1.818257091055524e+16,16100611917009.512,102123316550656.97,4947604136569900.0,4.1585562764589784e+16
4.0568079205167695,5011670163083715.0,7.996322626466155e+16,7530474300998323.0,1.8267132438098212e+16,16935448385572.207,107419191396817.06,5206175744458345.0,4.38234189782406e+16
4.237944078927105,5033243993844022.0,8.265317411351987e+16,7562890887539325.0,1.8345767540946916e+16,17786832750538.87,112820075731147.44,5469993029703515.0,4.6110671753004376e+16
4.422702960505647,5053321310104250.0,8.538937363070619e+16,7593058829710027.0,1.841894796979785e+16,18654990278937.492,118327398149883.22,5739123367381748.0,4.84479397652835e+16
4.61115701971576,5072020026777973.0,8.81732855625973e+16,7621155304965214.0,1.848710351397237e+16,19540166180863.78,123942713761238.5,6013640149004977.0,5.083588368793466e+16
4.803380160110075,5089447723943486.0,9.10063531546438e+16,7647341961769946.0,1.8550626293294404e+16,20442624292404.49,129667695842430.33,6293622425114456.0,5.327520443038668e+16
4.9994477633122765,5105702679231170.0,9.389000664511848e+16,7671766470851386.0,1.860987452104377e+16,21362645909098.836,135504128450114.33,6579154587910997.0,5.5766641611722e+16
5.199436718578522,5120874776941105.0,9.682566724115734e+16,7694563891227113.0,1.8665175817602436e+16,22300528753019.883,141453899876993.12,6870326089002200.0,5.831097223775456e+16
5.403425452950093,5135046311852871.0,9.98147506586988e+16,7715857877999255.0,1.8716830140263936e+16,23256586059065.688,147518996863292.34,7167231188294405.0,6.090900955736596e+16
5.611493962009095,5148292702607868.0,1.0285867029312882e+17,7735761754273370.0,1.8765112383442516e+16,24231145768189.195,153701499485398.6,7469968730843169.0,6.356160207670831e+16
5.823723841249277,5160683127061832.0,1.05958840075686e+17,7754379465830940.0,1.8810274694471708e+16,25224549817059.473,160003576655160.47,7778641949073776.0,6.626963271277553e+16
6.040198318074262,5172281089985378.0,1.0911667706130037e+17,7771806434148690.0,1.8852548542817444e+16,26237153515072.85,166427482172397.47,8093358288207659.0,6.903401807045374e+16
6.261002284435747,5183144931836375.0,1.1233360378602757e+17,7788130320873323.0,1.8892146574503776e+16,27269325000772.023,172975551280393.94,8414229253019860.0,7.185570782951312e+16
6.486222330124463,5193328285969017.0,1.1561105042616683e+17,7803431714817916.0,1.892926427859566e+16,28321444770650.688,179650197679958.2,8741370274249050.0,7.473568423008458e+16
6.715946776726952,5202880490525368.0,1.189504567862062e+17,7817784750864739.0,1.8964081488503572e+16,29393905274069.637,186453910962363.66,9074900593121238.0,7.767496164695482e+16
6.950265712261491,5211846960330724.0,1.2235327413867536e+17,7831257668770389.0,1.8996763737506028e+16,30487110568630.91,193389254425404.8,9414943162559288.0,8.06745862445149e+16
7.18927102650672,5220269523349023.0,1.258209669356117e+17,7843913318719247.0,1.9027463485096976e+16,31601476030884.613,200458863240124.47,9761624563747282.0,8.373563570542806e+16
7.433056447036854,5228186725618642.0,1.2935501440853243e+17,7855809619516110.0,1.9056321228447556e+16,32737428117695.496,207665442938635.8,1.0115074936812018e+16,8.685921902708178e+16
7.681717575977592,5235634108058939.0,1.3295691207144307e+17,7866999974512001.0,1.9083466511339104e+16,33895404173995.344,215011768195973.94,1.0475427924474942e+16,9.004647638068813e+16
7.935351927497144,5242644458093642.0,1.3662817313941803e+17,7877533649690315.0,1.9109018841306576e+16,35075852283002.598,222500681881158.9,1.0842820627618284e+16,9.329857902854498e+16
8.194058966047088,5249248038664112.0,1.4037032987361331e+17,7887456117779046.0,1.9133088524369804e+16,36279231155310.27,230135094354682.7,1.121739357179655e+16,9.661672929549378e+16
8.45794014536803,5255472796889822.0,1.4418493486214752e+17,7896809371781420.0,1.9155777425581384e+16,37506010053538.78,237917982991491.75,1.1599290683808196e+16,1.0000216059104184e+17
8.72709894827539,5261344554366046.0,1.48073562245088e+17,7905632210914698.0,1.9177179662643536e+16,38756668749520.58,245852391910261.03,1.1988659277521148e+16,1.034561374789828e+17
9.0016409272409,5266887180860233.0,1.5203780889075974e+17,7913960501604096.0,1.919738223901506e+16,40031697511238.914,253941431891366.3,1.2385650048218438e+16,1.0697995579165938e+17
9.281673745785717,5272122752972880.0,1.5607929552973834e+17,7921827415884563.0,1.9216465622215464e+16,41331597116980.31,262188280467467.28,1.2790417074797524e+16,1.1057494278628354e+17
9.567307220701432,5277071699160053.0,1.6019966785214355e+17,7929263649309793.0,1.923450427241844e+16,42656878894384.766,270596182172038.47,1.3203117829217638e+16,1.1424245734097123e+17
9.85865336511546,5281752932368331.0,1.64400597573236e+17,7936297620247744.0,1.9251567125893964e+16,44008064782287.77,279168448932511.4,1.3623913192645416e+16,1.1798389018836578e+17
10.155826432417769,5286183971405249.0,1.6868378347177482e+17,7942955652250331.0,1.9267718037392364e+16,45385687413445.74,287908460595945.06,1.4052967477799456e+16,1.218006641849181e+17
10.458942961066125,5290381052056492.0,1.7305095240513376e+17,7949262141016684.0,1.92830161851562e+16,46790290216420.09,296819665576304.6,1.4490448457040814e+16,1.2569423461407088e+17
10.768121820287448,5294359228862237.0,1.7750386030477405e+17,7955239707321006.0,1.9297516441885996e+16,48222427535066.47,305905581613510.8,1.4936527395798012e+16,1.2966608952175829e+17
11.083484256693197,5298132468377538.0,1.8204429315532243e+17,7960909337144406.0,1.931126971466562e+16,49682664764233.71,315169796635422.94,1.5391379090954274e+16,1.3371775008278093e+17
11.405153941827061,5301713734663717.0,1.8667406796019702e+17,7966290510133228.0,1.932432325657095e+16,51171578500421.41,324615969714836.0,1.585518191385921e+16,1.3785077099675464e+17
11.733257020663602,5305115067688100.0,1.913950336964575e+17,7971401317401430.0,1.9336720952429744e+16,52689756706280.266,334247832114421.8,1.6328117857660266e+16,1.4206674091245718e+17
12.067922161076874,5308347655246858.0,1.9620907226131542e+17,7976258569600999.0,1.9348503580974044e+16,54237798887958.125,344069188413299.25,1.68103725886785e+16,1.4636728287951366e+17
12.409280604298411,5311421898969717.0,2.011180994125363e+17,7980877896099760.0,1.935970905542163e+16,55816316284407.984,354083917709642.6,1.7302135501581054e+16,1.507540548264702e+17
12.75746621638438,5314347474914607.0,2.0612406570477456e+17,7985273836030156.0,1.9370372644338132e+16,57425932067872.52,364295974894344.8,1.780359977812795e+16,1.552287500644014e+17
13.112615540712067,5317133389214710.0,2.1122895742371744e+17,7989459921903783.0,1.938052717446563e+16,59067281554853.195,374709391991354.8,1.8314962449294284e+16,1.597930978152929e+17
13.474867851526309,5319788029199032.0,2.1643479751977184e+17,7993448756424546.0,1.9390203217052908e+16,60741012426951.77,385328279560818.94,1.883642446059023e+16,1.6444886376451734e+17
13.844365208556836,5322319210370387.0,2.217436465428888e+17,7997252083077165.0,1.9399429259086e+16,62447784961050.664,396156828161637.3,1.936819074042163e+16,1.6919785063681078e+17
14.221252512727972,5324734219590699.0,2.271576035800097e+17,8000880851016898.0,1.940823186069512e+16,64188272268363.87,407199309870476.2,1.9910470271351988e+16,1.7404189879521616e+17
14.605677562982532,5327039854792995.0,2.3267880719651258e+17,8004345274740267.0,1.9416635799901372e+16,65963160541953.26,418460079854665.8,2.0463476164143452e+16,1.7898288686253782e+17
14.997791114242183,5329242461511484.0,2.3830943638293946e+17,8007654888974741.0,1.942466420576599e+16,67773149312361.24,429943577996780.7,2.1027425734470948e+16,1.8402273236490717e+17
15.397746936527026,5331347966495927.0,2.440517115082111e+17,8010818599187190.0,1.943233868091177e+16,69618951711061.1,441654330569005.6,2.1602540582216176e+16,1.8916339239711994e+17
15.805701875257567,5333361908653380.0,2.49907895280451e+17,8013844728076689.0,1.9439679414303316e+16,71501294741473.64,453596951955701.94,2.218904667326361e+16,1.9440686430945696e+17
16.221815912762718,5335289467539650.0,2.5588029371648374e+17,8016741058385316.0,1.944670528509603e+16,73420919557339.75,465776146422842.6,2.278717442373068e+16,1.9975518641575187e+17
16.64625223101797,5337135489603530.0,2.619712571210065e+17,8019514872332500.0,1.94534339582942e+16,75378581748277.4,478196709933233.75,2.339715878657697e+16,2.052104387225177e+17
17.079177275638333,5338904512369741.0,2.6818318107638442e+17,8022172987951979.0,1.945988197289592e+16,77375051632386.61,490863532006661.06,2.401923934054623e+16,2.107747436789815e+17
17.5207608211511,5340600786730513.0,2.7451850744397162e+17,8024721792586830.0,1.946606482314401e+16,79411114555796.5,503781597624295.6,2.4653660381405416e+16,2.1645026694792483e+17
17.97117603757412,5342228297501343.0,2.8097972537781693e+17,8027167273776371.0,1.947199703345031e+16,81487571199077.94,516955989176880.44,2.530067101545239e+16,2.222392181972605e+17
18.430599558325603,5343790782383371.0,2.8756937235157834e+17,8029515047748742.0,1.9477692227511956e+16,83605237890470.69,530391888456375.94,2.5960525255272716e+16,2.2814385191231472e+17
18.899211549492115,5345291749462667.0,2.9429003519943565e+17,8031770385715142.0,1.948316319209492e+16,85764946925897.72,544094578690904.1,2.6633482117732036e+16,2.3416646822881408e+17
19.37719578048196,5346734493365808.0,3.011443511717602e+17,8033938238145008.0,1.9488421935919828e+16,87967546895760.62,558069446622951.75,2.731980572419798e+16,2.403094137866129e+17
19.864739696091597,5348122110180955.0,3.081350090062791e+17,8036023257186238.0,1.949347974404821e+16,90213903018528.92,572321984630924.4,2.801976540299056e+16,2.4657508260422346e+17
20.36203449001343,5349457511244636.0,3.152647500154392e+17,8038029817381043.0,1.9498347228134212e+16,92504897481153.06,586857792894250.0,2.8733635794066096e+16,2.5296591697423773e+17
20.869275179813698,5350743435885860.0,3.22536369190671e+17,8039962034815133.0,1.9503034372875976e+16,94841429786348.52,601682581602338.9,2.9461696955944204e+16,2.594844083797611e+17
21.38666068340997,5351982463211620.0,3.299527163242141e+17,8041823784826418.0,1.9507550578972884e+16,97224417106810.06,616802173207774.8,3.020423447489183e+16,2.661330984319966e+17
21.91439389707817,5353177023010727.0,3.375166971491735e+17,8043618718389028.0,1.951190470286929e+16,99654794646429.0,632222504724228.9,3.0961539576382896e+16,2.7291457982915098e+17
22.452681775019734,5354329405846584.0,3.452312744984435e+17,8045350277278561.0,1.9516105093541812e+16,102133516008600.06,647949630069627.1,3.1733909238855024e+16,2.7983149733684326e+17
23.00173541052013,5355441772403521.0,3.5309946948313466e+17,8047021708115813.0,1.9520159626566216e+16,104661553571710.78,663989722455195.2,3.2521646309789332e+16,2.8688654879023286e+17
23.561770118730532,5356516162146039.0,3.6112436269113056e+17,8048636075378007.0,1.952407573567958e+16,107239898871920.16,680349076821053.0,3.3325059624141356e+16,2.940824861180923e+17
24.133005521105144,5357554501345253.0,3.6930909540638336e+17,8050196273459288.0,1.952786044203622e+16,109869562993338.98,697034112319091.6,3.414446412515488e+16,3.014221163890754e+17
24.715665631527248,5358558610522481.0,3.7765687084956634e+17,8051705037855335.0,1.953152038133896e+16,112551576965735.58,714051374843916.9,3.4980180987592596e+16,3.0890830288044736e+17
25.309978944157795,5359530211355652.0,3.861709554406764e+17,8053164955540854.0,1.9535061829012604e+16,115286992169893.45,731407539612690.8,3.5832537743420564e+16,3.165439661695645e+17
25.91617852304095,5360470933090532.0,3.9485468008419866e+17,8054578474603022.0,1.9538490723572204e+16,118076880750759.12,749109413794745.1,3.6701868409985144e+16,3.243320852484024e+17
26.53450209350177,5361382318495260.0,4.0371144147741965e+17,8055947913188695.0,1.954181268832721e+16,120922336038521.03,767163939191880.8,3.7588513620723704e+16,3.322756986614543e+17
27.165192135371807,5362265829393562.0,4.127447034424934e+17,8057275467818543.0,1.9545033051549436e+16,123824472977768.9,785578194970316.5,3.849282075845212e+16,3.403779056673315e+17
27.808495978079243,5363122851809099.0,4.219579982828504e+17,8058563221116914.0,1.9548156865223984e+16,126784428564885.84,804359400445259.5,3.941514409127473e+16,3.486418674244156e+17
28.464665897640828,5363954700750764.0,4.313549281645487e+17,8059813149002161.0,1.955118892249126e+16,129803362293833.78,823514917919138.8,4.035584491116259e+16,3.570708082009291e+17
29.133959215593645,5364762624666338.0,4.4093916652315994e+17,8061027127378613.0,1.9554133773880224e+16,132882456610494.14,843052255574543.4,4.131529167524993e+16,3.6566801660979974e+17
29.816638399905518,5365547809589622.0,4.507144594967926e+17,8062206938368074.0,1.9556995742424596e+16,136022917375734.78,862979070422958.2,4.229386014989829e+16,3.7443684686871315e+17
30.51297116790363,5366311383004281.0,4.606846273858536e+17,8063354276115518.0,1.9559778937745988e+16,139225974337373.95,883303171310411.1,4.329193355758016e+16,3.8338072008575955e+17
31.223230591261704,5367054417445575.0,4.708535661401496e+17,8064470752201078.0,1.95624872691823e+16,142492881611220.34,904032521981171.5,4.4309902726636616e+16,3.925031255710919e+17
31.947695203086937,5367777933859665.0,4.812252488739449e+17,8065557900687651.0,1.956512445803203e+16,145824918171370.25,925175244200679.6,4.534816624396245e+16,4.018076221750312e+17
32.686649107148675,5368482904738411.0,4.9180372740957856e+17,8066617182831246.0,1.956769404898039e+16,149223388349947.75,946739620938895.5,4.640713061067611e+16,4.1129783965306336e+17
33.44038208929165,5369170257046348.0,5.0259313385026995e+17,8067649991478993.0,1.9570199420767956e+16,152689622346478.8,968734099615303.5,4.748721040083225e+16,4.2097748005818234e+17
34.20918973107749,5369840874955018.0,5.135976821827332e+17,8068657655177743.0,1.9572643796157224e+16,156224976747091.34,991167295406810.0,4.858882842323571e+16,4.308503191610538e+17
34.993373525699035,5370495602398827.0,5.2482166991023245e+17,8069641442014450.0,1.9575030251248388e+16,159830835053740.97,1014047994619827.6,4.971241588641756e+16,4.4092020789847974e+17
35.793240996213015,5371135245465310.0,5.3626947971671475e+17,8070602563207782.0,1.9577361724191916e+16,163508608223664.3,1037385158127839.6,5.0858412566835624e+16,4.511910738506624e+17
36.60910581613728,5371760574631864.0,5.479455811626678e+17,8071542176468987.0,1.957964102334108e+16,167259735219263.5,1061187924875772.6,5.202726698036239e+16,4.616669227477684e+17
37.44128793246003,5372372326859894.0,5.598545324133569e+17,8072461389148532.0,1.9581870834885132e+16,171085683568634.72,1085465615452540.9,5.321943655712502e+16,4.723518400063171e+17
38.29011369110923,5372971207556578.0,5.720009820000984e+17,8073361261183857.0,1.9584053729999816e+16,174987949936952.03,1110227735733138.6,5.443538781976378e+16,4.832499922959243e+17
