t(s),Total solute volume 1,Total retention volume 1,Total 1 volume 1,Total 2 volume 1,Total 3 volume 1,Total 4 volume 1,Total 5 volume 1,Total 6 volume 1
0.1,1171626138357391.5,1690659390667246.5,218249522949102.88,300783729360751.56,0.0,0.0,0.0,0.0
0.202,1643378762829178.8,2677506359557583.5,306127205106944.25,421893642085810.5,154815919889.6586,414577868456.0051,9886792920728.48,295650562826576.8
0.30604000000000003,1936448878490288.2,3523376203355661.5,360720058961010.3,497131577977303.1,368487479178.5782,986776915745.5995,23534112655268.72,704186310876866.2
0.41216080000000005,2142303793885123.8,4313699373285239.0,399066538900928.3,549979337264704.2,617606213906.4368,1653915367762.8984,39446247753996.88,1180631933898814.8
0.5204040160000001,2296424281415778.5,5078658772681842.0,427775973315369.56,589545662247378.1,891575286746.2515,2387618709498.3755,56946324327026.96,1704687337380046.8
0.6308120963200001,2416617147159026.0,5832473904946808.0,450165399001619.06,620401975387802.1,1184606817721.2952,3172389728445.973,75664665945357.48,2265267720906835.0
0.7434283382464002,2513117215698162.0,6583018084035119.0,468141350433750.3,645175794849119.2,1493223265227.8223,3998917775132.1426,95379171380787.62,2855712410632940.0
0.8582969050113283,2592328553538561.5,7335142325876135.0,482896771707825.9,665511193852862.4,1815211028405.0745,4861276768395.374,115948474665289.77,3471780844314794.5
0.9754628431115548,2658501791782292.5,8092079270023637.0,495223466793379.94,682499408534437.6,2149107620419.2812,5755551978423.198,137279188850086.06,4110670754464598.5
1.094972099973786,2714584782870935.0,8856120276697046.0,505670559152521.56,696897221367226.6,2493923962177.2373,6679096404125.88,159308167988303.4,4770486524951760.0
1.2168715419732616,2762693048652819.0,9628974555126844.0,514632126408126.94,709247736151805.5,2848983070958.893,7630098826452.02,181992203632566.03,5449930358384120.0
1.3412089728127268,2804387308746571.0,1.0411973842714268e+16,522398898092712.2,719951626018329.5,3213821287153.893,8607319322569.996,205301715820435.47,6148113153426491.0
1.4680331522689813,2840845635775071.5,1.1206195841484362e+16,529190324579828.5,729311329689415.1,3588125231220.4116,9609920456293.375,229216726259727.3,6864433779492801.0
1.597393815314361,2872974647743659.5,1.2012542144923934e+16,535175289906258.06,737559597156477.1,3971690183564.641,10637355833536.783,253724199873889.9,7598499364226542.0
1.729341691620648,2901483758670232.0,1.2831789336088126e+16,540485943116602.4,744878551547924.2,4364391822486.634,11689294427255.875,278816239585909.66,8350071156917711.0
1.863928525453061,2926936171313580.0,1.3664623585265704e+16,545227197145616.44,751412780151679.5,4766166568107.579,12765567947056.932,304488830812002.94,9119026871327656.0
2.001207095962122,2949784748309419.5,1.4511664729906552e+16,549483410863105.75,757278543372339.5,5176997627039.64,13866133474026.256,330740950097989.4,9905333946162620.0
2.1412312378813647,2970397777286122.0,1.537348344182712e+16,553323188577914.0,762570389237275.4,5596904905196.518,14991046453567.79,357573920843006.4,1.0709030214524038e+16
2.284055862638992,2989077818766682.5,1.6250613728880252e+16,556802891009175.94,767365992092649.9,6025937601128.391,16140440866135.113,384990940252164.56,1.153020970829232e+16
2.4297369798917723,3006075719284859.0,1.7143562213756154e+16,559969245637755.0,771729750097164.2,6464168691872.413,17314514465786.596,412996727183956.06,1.2369012088394768e+16
2.578331719489608,3021601181960187.0,1.805281514035829e+16,562861315784029.75,775715498935234.2,6911690777440.768,18513517656987.145,441597256790558.44,1.3225614678453898e+16
2.7298983538794,3035830844911446.0,1.8978843748425136e+16,565512005447928.2,779368585734138.5,7368612915452.806,19737745022935.06,470799558412974.8,1.4100226395980252e+16
2.884496320956988,3048914528425270.0,1.9922108457175708e+16,567949223026232.4,782727472857944.5,7835058187281.125,20987528812877.62,500611560210546.0,1.4993083085655558e+16
3.0421862473761276,3060980118241995.0,2.088306216685535e+16,570196790966928.8,785824991560894.1,8311161811423.169,22263233894947.316,531041968752954.7,1.5904443901626204e+16
3.2030299723236504,3072137420486089.5,2.1862152898246436e+16,572275163862412.0,788689331637978.6,8797069670961.734,23565253818020.113,562100175070269.6,1.6834588483700706e+16
3.3670905717701234,3082481232461501.5,2.2859825929320836e+16,574202000474638.5,791344829769731.6,9292937157712.438,24894007721787.76,593796180939214.2,1.7783814740796246e+16
3.5344323832055258,3092093809324813.5,2.387652554576258e+16,575992623224926.8,793812602774793.6,9798928260970.408,26249937902018.72,626140540800854.9,1.875243710347421e+16
3.7051210308696363,3101046860866975.5,2.4912696492052628e+16,577660390152768.2,796111060230352.0,10315214846930.773,27633507886618.47,659144315865093.9,1.9740785142203824e+16
3.879223451487029,3109403179569799.0,2.5968785188251436e+16,579216998188829.8,798256322432240.1,10841976088043.756,29045200913409.406,692819037799712.0,2.0749202473259384e+16
4.0568079205167695,3117217976940870.0,2.704524076195129e+16,580672732086279.0,800262563463285.9,11379398011244.047,30485518726465.97,727176680019933.8,2.1778045892703212e+16
4.237944078927105,3124539987279762.0,2.814251593334756e+16,582036670029435.6,802142294555855.6,11927673141169.37,31954980627059.203,762229635052958.2,2.2827684692661316e+16
4.422702960505647,3131412384705869.5,2.926106778281535e+16,583316854456937.1,803906599514289.4,12487000219856.06,33454122729646.805,797990696795026.9,2.389850012439373e+16
4.61115701971576,3137873549241378.0,3.040135842394281e+16,584520434767028.4,805565331386284.8,13057583988455.178,34983497384209.992,834473046737747.8,2.4990884980437664e+16
4.803380160110075,3143957710114097.0,3.156385560009556e+16,585653787151478.4,807127277613741.5,13639635019601.396,36543672734508.42,871690243437771.6,2.610524327402437e+16
4.9994477633122765,3149695488598221.0,3.274903321885602e+16,586722615715488.5,808600299392649.4,14233369591438.982,38135232388173.82,909656214655327.9,2.7241989998514696e+16
5.199436718578522,3155114358195651.5,3.3957371835801e+16,587732038199890.2,809991449812380.4,14839009596139.65,39758775179470.14,948385251704217.9,2.84015509531132e+16
5.403425452950093,3160239036447355.5,3.5189359096847532e+16,588686658967434.4,811307074442806.0,15456782477175.586,41414915009368.38,987892005647049.5,2.958436262385637e+16
5.611493962009095,3165091819912180.0,3.644549014664176e+16,589590631402353.8,812552897331169.5,16086921190727.846,43104280750581.3,1028191485040886.1,3.079087211101394e+16
5.823723841249277,3169692871680314.0,3.7726268009086136e+16,590447711468139.6,813734094813508.5,16729664187492.014,44827516207557.01,1069299054994836.5,3.2021537095734304e+16
6.040198318074262,3174060469067239.0,3.903220394500366e+16,591261303847756.8,814855359103476.4,17385255411841.959,46585280123311.44,1111230437345745.5,3.327682584010428e+16
6.261002284435747,3178211217760081.5,4.036381779106407e+16,592034501834649.4,815920953268697.9,18053944315870.133,48378246226466.39,1154001711793831.0,3.4557217215864508e+16
6.486222330124463,3182160237585764.5,4.172163828339179e+16,592770121937463.1,816934758921800.5,18735985886269.977,50207103313060.26,1197629317868638.2,3.586320075787876e+16
6.715946776726952,3185921324181180.5,4.310620336870942e+16,593470733995851.1,817900317724914.2,19431640682386.18,52072555358665.586,1242130057618744.0,3.719527673914761e+16
6.950265712261491,3189507090124714.5,4.45180605054108e+16,594138687470315.5,818820867621434.2,20141174884049.9,53975321657124.08,1287521098937294.5,3.855395626471584e+16
7.18927102650672,3192929088501042.5,4.595776695657958e+16,594776134459762.6,819699374557980.5,20864860348054.473,55916136982853.18,1333819979450634.5,3.9939761382279256e+16
7.433056447036854,3196197921390557.0,4.742589007666367e+16,595385049910818.1,820538560336172.9,21602974672320.36,57895751774192.33,1381044610909693.8,4.13532252076699e+16
7.681717575977592,3199323335379888.5,4.892300759326087e+16,595967249409456.2,821340927132408.9,22355801266956.723,59914932335687.266,1429213284034034.8,4.279489206370242e+16
7.935351927497144,3202314305863936.5,5.044970788526329e+16,596524404884699.5,822108779140162.2,23123629431560.125,61974461057562.125,1478344673766793.8,4.426531763111861e+16
8.194058966047088,3205179111639607.5,5.200659025843191e+16,597058058503878.9,822844241719935.6,23906754438197.758,64075136650921.766,1528457844905715.0,4.576506911057371e+16
8.45794014536803,3207925401066961.5,5.3594265219330456e+16,597569634997083.4,823549278384375.5,24705477619612.883,66217774397465.32,1579572258081411.0,4.7294725394783544e+16
8.72709894827539,3210560250885706.0,5.521335474842507e+16,598060452613444.9,824225705897841.5,25520106462267.02,68403206412699.875,1631707776058495.0,4.8854877250094616e+16
9.0016409272409,3213090218618004.5,5.686449257305562e+16,598531732882685.0,824875207729415.5,26350954703893.758,70632281921806.66,1684884670339650.2,5.0446127506860136e+16
9.281673745785717,3215521389356222.5,5.854832444089803e+16,598984609330698.2,825499346064427.4,27198342435294.387,72905867547459.02,1739123628055763.8,5.206909125810821e+16
9.567307220701432,3217859417623077.5,6.0265508394467064e+16,599420135277230.2,826099572550921.1,28062596206148.28,75224847609009.2,1794445759128342.5,5.372439606607226e+16
9.85865336511546,3220109564897239.5,6.201671504714498e+16,599839290826109.8,826677237933356.1,28944049134649.62,77590124432562.06,1850872603692771.0,5.541268217622833e+16
10.155826432417769,3222276733317415.5,6.380262786117406e+16,600242989143619.0,827233600705232.9,29843041020813.36,80002618671544.36,1908426139773012.8,5.713460273854245e+16
10.458942961066125,3224365496010074.5,6.5623943428001096e+16,600632082107919.2,827769834894926.5,30759918463321.004,82463269637444.03,1967128791200193.5,5.8890824035687304e+16
10.768121820287448,3226380124427591.0,6.748137175133138e+16,601007365401570.6,828287037084030.0,31695034979799.316,84973035640469.22,2027003435768921.8,6.0682025718029e+16
11.083484256693197,3228324613034155.5,6.937563653321224e+16,601369583110011.4,828786232744794.4,32648751130445.56,87532894339915.33,2088073413626577.2,6.250890104522637e+16
11.405153941827061,3230202701633899.0,7.1307475463441304e+16,601719431880816.0,829268381972293.0,33621434644929.477,90143843104090.56,2150362535891884.0,6.4372157134313464e+16
11.733257020663602,3232017895599165.0,7.327764051257098e+16,602057564691803.6,829734384677484.6,34613460552517.246,92806899379681.7,2213895093500026.8,6.6272515214170264e+16
12.067922161076874,3233773484225186.5,7.528689822876077e+16,602384594270127.5,830185085299284.2,35625211315374.78,95523101070476.97,2278695866272465.5,6.821071088630792e+16
12.409280604298411,3235472557409877.0,7.733603003871126e+16,602701096199379.9,830621277086660.4,36657076965019.44,98293506925400.44,2344790132210297.0,7.018749439191465e+16
12.75746621638438,3237118020834209.5,7.94258325528983e+16,603007611747370.9,831043705995786.0,37709455241898.44,101119196935831.56,2412203677010647.5,7.220363088513251e+16
13.112615540712067,3238712609797508.0,8.155711787531522e+16,603304650443368.1,831453074241894.0,38782751738079.72,104001272742210.98,2480962803806267.5,7.425990071254598e+16
13.474867851526309,3240258901844632.0,8.37307139179191e+16,603592692430259.4,831850043540955.5,39877380043051.08,106940858049956.77,2551094343128727.0,7.635709969888146e+16
13.844365208556836,3241759328305996.5,8.594746471996323e+16,603872190614239.6,832235238072283.1,40993761892625.66,109939099054726.45,2622625663096437.5,7.849603943892698e+16
14.221252512727972,3243216184858077.5,8.820823077240194e+16,604143572631992.1,832609247189646.4,42132327320961.18,112997164877086.98,2695584679828822.5,8.06775475956953e+16
14.605677562982532,3244631641199751.0,9.051388934753067e+16,604407242653208.4,832972627905435.9,43293514815702.95,116116248006660.36,2769999868088340.0,8.290246820486154e+16
14.997791114242183,3246007749929865.5,9.286533483403197e+16,604663583034273.9,833325907169717.8,44477771476267.04,119297564755832.89,2845900272152671.0,8.517166198551323e+16
15.397746936527026,3247346454701607.0,9.526347907758635e+16,604912955837277.1,833669583963672.9,45685553175281.39,122542355723121.8,2923315516919257.0,8.748600665726635e+16
15.805701875257567,3248649597721705.5,9.770925172720534e+16,605155704226942.1,834004131224794.8,46917324723208.36,125851886266313.53,3002275819245008.5,8.984639726379739e+16
16.221815912762718,3249918926655037.5,1.0020360058743536e+17,605392153756814.0,834329997619484.9,48173560036174.24,129227446985484.55,3082811999523997.5,9.22537465028582e+16
16.64625223101797,3251156100988963.0,1.0274749197658811e+17,605622613554807.8,834647609176918.5,49454742307034.66,132670354216040.61,3164955493506342.5,9.470898506283786e+16
17.079177275638333,3252362697906288.5,1.0534191109113923e+17,605847377417211.6,834957370796756.1,50761364179705.6,136181950531905.14,3248738364361569.0,9.72130619659458e+16
17.5207608211511,3253540217710470.0,1.079878623764431e+17,606066724819298.2,835259667641949.9,52093927926794.875,139763605259004.36,3334193314990096.5,9.976694491809563e+16
17.97117603757412,3254690088842793.5,1.1068636990390592e+17,606280921849907.0,835554866426738.4,53452945630568.664,143416714999200.5,3421353700586459.0,1.0237162066557016e+17
18.430599558325603,3255813672526762.5,1.1343847775475762e+17,606490222076614.8,835843316608998.4,54838939367289.05,147142704164834.84,3510253541458238.5,1.0502809535855493e+17
18.899211549492115,3256912267072011.0,1.1624525041056747e+17,606694867347448.9,836125351495140.5,56252441394963.43,150943025524040.38,3600927536104776.0,1.0773739492162893e+17
19.37719578048196,3257987111866549.0,1.191077731506382e+17,606895088534569.4,836401289265018.2,57693994344544.05,154819160757007.4,3693411074559916.5,1.1050056543131051e+17
19.864739696091597,3259039391083631.0,1.220271524564226e+17,607091106224773.8,836671433923567.8,59164151414620.26,158772621023370.03,3787740252003049.5,1.1331867350074966e+17
20.36203449001343,3260070237126945.0,1.2500451642309813e+17,607283131361274.6,836936076185268.5,60663476569646.54,162804947540904.62,3883951882643165.5,1.161928066716708e+17
20.869275179813698,3261080733835645.5,1.2804101517844008e+17,607471365840718.2,837195494296950.5,62192544741748.53,166917712175730.75,3982083513880420.0,1.1912407381366874e+17
21.38666068340997,3262071919468784.5,1.3113782130913301e+17,607656003069131.6,837449954803967.6,63751942036154.1,171112518044206.25,4082173440750096.0,1.2211360553096093e+17
21.91439389707817,3263044789486852.5,1.3429613029465629e+17,607837228480059.8,837699713264278.6,65342265940294.22,175391000126724.06,4184260720653903.0,1.2516255457670418e+17
22.452681775019734,3264000299146648.5,1.3751716094888595e+17,608015220017933.6,837945014914619.0,66964125536619.234,179754825893612.53,4288385188383665.0,1.2827209627499274e+17
23.00173541052013,3264939365924087.5,1.4080215586955094e+17,608190148589403.4,838186095292488.0,68618141719181.25,184205695943351.66,4394587471442625.0,1.3144342895063958e+17
23.561770118730532,3265862871778516.0,1.4415238189568285e+17,608362178485112.2,838423180817455.4,70304947414026.266,188745344653326.7,4502909005669633.0,1.3467777436686488e+17
24.133005521105144,3266771665270620.5,1.475691305732019e+17,608531467774231.9,838656489334863.1,72025187803448.39,193375540843336.9,4613392051171771.0,1.379763781710036e+17
24.715665631527248,3267666563545191.5,1.510537186287751e+17,608698168673811.1,838886230624874.4,73779520554153.48,198098088452085.53,4726079708570907.0,1.4134051034835403e+17
25.309978944157795,3268548354189039.5,1.5460748845209456e+17,608862427894860.2,839112606879415.2,75568616049382.7,202914827226890.56,4841015935569897.0,1.4477146568428506e+17
25.91617852304095,3269417796973260.0,1.5823180858671296e+17,609024386966900.4,839335813149477.1,77393157625045.25,207827633426840.6,4958245563844331.0,1.4827056423472698e+17
26.53450209350177,3270275625488667.5,1.6192807422957875e+17,609184182542609.5,839556037764953.4,79253841809911.55,212838420539651.34,5077814316265712.0,1.5183915180516742e+17
27.165192135371807,3271122548681968.5,1.6569770773942083e+17,609341946683991.6,839773462729029.1,81151378569916.88,217949140012459.5,5199768824462094.0,1.554786004382816e+17
27.808495978079243,3271959252300284.5,1.6954215915411658e+17,609497807131440.8,839988264089002.2,83086491556627.33,223161781996810.25,5324156646722505.0,1.5919030891031997e+17
28.464665897640828,3272786400250284.0,1.734629067171982e+17,609651887556934.6,840200612285223.8,85059918359917.34,228478376108092.2,5451026286251414.0,1.629757032363862e+17
29.133959215593645,3273604635878309.5,1.7746145741363312e+17,609804307802491.0,840410672479727.1,87072410764912.4,233900992199684.38,5580427209779624.0,1.6683623718472858e+17
29.816638399905518,3274414583177000.5,1.815393475150374e+17,609955184104936.0,840618604865997.6,89124735013245.8,239431741152077.06,5712409866538283.0,1.7077339280018627e+17
30.51297116790363,3275216847923630.0,1.8569814313445373e+17,610104629307947.4,840824564961208.0,91217672068682.44,245072775677240.44,5847025707602609.0,1.747886809369124e+17
31.223230591261704,3276012018754904.5,1.8993944079085238e+17,610252753062281.4,841028703882150.2,93352017887159.44,250826291138517.34,5984327205612204.0,1.7888364180051498e+17
31.947695203086937,3276800668182711.0,1.9426486798350346e+17,610399662014964.6,841231168605996.6,95528583691295.0,256694526386319.94,6124367874874917.0,1.8305984549974733e+17
32.686649107148675,3277583353554754.0,1.9867608377636147e+17,610545459988268.5,841432102216921.1,97748196249416.67,262679764609912.7,6267202291861304.0,1.8731889260788067e+17
33.44038208929165,3278360617964048.5,2.0317477939261885e+17,610690248149099.1,841631644139583.1,100011698159158.95,268784334205580.34,6412886116096799.0,1.9166241473390406e+17
34.20918973107749,3279132991110517.5,2.0776267881957542e+17,610834125169511.6,841829930360322.2,102319948135679.77,275010609661470.22,6561476111459247.0,1.960920751036789e+17
34.993373525699035,3279900990118109.0,2.124415394239794e+17,610977187378923.9,842027093636937.2,104673821304546.39,281361012459408.53,6713030167888807.0,2.006095691511923e+17
35.793240996213015,3280665120310367.5,2.1721315257797674e+17,611119528908581.0,842223263697778.8,107074209499340.11,287838011994005.9,6867607323518250.0,2.0521662512004845e+17
36.60910581613728,3281425875947170.5,2.2207934429584237e+17,611261241828795.0,842418567430900.1,109522021564027.33,294444126509350.94,7025267787231102.0,2.0991500467533075e+17
37.44128793246003,3282183740925281.0,2.2704197588162304e+17,611402416279451.5,842613129063901.2,112018183660144.97,301181924053616.3,7186072961655668.0,2.1470650352598502e+17
38.29011369110923,3282939189445093.5,2.321029445878615e+17,611543140594200.9,842807070335097.8,114563639578848.9,308054023451895.56,7350085466602790.0,2.1959295205785328e+17
39.15591596493141,3283692686645766.5,2.372641842855368e+17,611683501418774.8,843000510656569.6,117159351057869.22,315063095297599.2,7517369162955705.0,2.2457621597750458e+17
40.03903428423004,3284444689210821.0,2.4252766614539498e+17,611823583823793.5,843193567269643.2,119806298103421.22,322211862962732.5,7687989177019925.0,2.296581969670046e+17
40.93981496991464,3285195645946147.5,2.4789539933079782e+17,611963471412443.2,843386355393268.1,122505479317112.06,329503103627413.9,7862011925342000.0,2.3484083334975955e+17
41.85861126931294,3285945998332194.0,2.533694317022629e+17,612103246423328.8,843578988365785.4,125257912227891.92,336939649328944.75,8039505140005343.0,2.401261007675791e+17
42.7957834946992,3286696181052010.0,2.5895185053383222e+17,612242989828846.6,843771577780480.1,128064633629086.38,344524388030807.56,8220537894412040.0,2.4551601286909853e+17
43.751699164593184,3287446622496734.5,2.6464478324143053e+17,612382781429332.2,843964233615361.2,130926699920554.31,352260264711924.94,8405180629559353.0,2.510126220096972e+17
