t(s),Total solute volume 1,Total retention volume 1,Total 1 volume 1,Total 2 volume 1,Total 3 volume 1,Total 4 volume 1,Total 5 volume 1,Total 6 volume 1
0.1,878184692305091.0,1002349173156223.1,60489917771387.09,63674563079745.664,0.0,0.0,0.0,0.0
0.202,1323060508848831.0,1510362324695999.0,91133245897868.75,95931187370992.23,498048371.93562937,881118355.5688081,11292132951.210691,224711278628.0661
0.30604000000000003,1661773292425804.0,1897329798991453.0,114463996993735.23,120490245228954.31,1263585928.3785684,2235463785.2719846,28649043487.018246,570116249757.0797
0.41216080000000005,1948191934088512.8,2224711947638464.2,134192694461476.95,141257610162686.2,2244301405.3716536,3970490411.714149,50884668380.51268,1012609465591.2592
0.5204040160000001,2202480072401970.0,2515512221858436.0,151708222503796.75,159695287731755.12,3416955482.8873525,6045084804.323411,77472106371.77405,1541705074251.9795
0.6308120963200001,2434682960305339.0,2781190197556599.0,167702504507545.0,176531629393209.97,4769061175.491096,8437155941.9442,108128244124.96283,2151768889260.4502
0.7434283382464002,2650638686806846.0,3028405984628649.0,182577671742108.88,192189937641120.84,6293458248.722797,11134036586.832739,142690741484.40134,2839570202247.706
0.8582969050113283,2854086977941644.5,3261426123824917.0,196591318905840.6,206941368902400.06,7986084076.496501,14128539617.725948,181067490199.3517,3603275961142.984
0.9754628431115548,3047590296757289.0,3483174395369738.5,209919950076689.28,220971719761335.7,9844875265.520174,17417014849.800014,223211710551.428,4441955173752.234
1.094972099973786,3232993569495079.0,3695756254784135.5,222690644942833.56,234414760339621.94,11869159303.619102,20998272776.070263,269108158272.58148,5355304416243.684
1.2168715419732616,3411676565509884.5,3900746721940016.5,234998442891448.16,247370533614761.44,14059288935.89982,24872937728.54217,318764834812.83026,6343482862448.137
1.3412089728127268,3584702749192755.5,4099360167589446.0,246916596023435.22,259916148230853.28,16416408827.384619,29043035072.75433,372207696926.47107,7407007001579.997
1.4680331522689813,3752912135293287.0,4292556222996920.5,258502965086845.44,272112511162214.7,18942299708.134693,33511715479.759,429477123010.49023,8546680316378.875
1.597393815314361,3916981886019124.0,4481108893322720.0,269804193443481.47,284008721429078.25,21639270538.650578,38283064152.74757,490625468201.356,9763544628144.764
1.729341691620648,4077467351863092.5,4665653364565822.0,280858533987068.62,295645045846058.9,24510081825.627167,43361965163.06366,555715325740.3269,11058845496882.205
1.863928525453061,4234830745274744.0,4846718704790268.0,291697824203912.9,307054998064911.0,27557889922.36475,48754002911.060104,624818264121.6763,12434007089755.197
2.001207095962122,4389461710528581.0,5024751322726782.0,302348903038456.8,318266830034573.5,30786205923.872795,54465389407.06443,698013895145.0465,13890613634685.635
2.1412312378813647,4541692419815648.0,5200132183645984.0,312834650721626.06,329304626573924.7,34198864994.86579,60502910009.64815,775389178512.0537,15430395581282.646
2.284055862638992,4691808873790289.0,5373189696684938.0,323174767159656.6,340189124740870.4,37800003336.72955,66873882678.363075,857037899620.9491,17055219208481.889
2.4297369798917723,4840059509313504.0,5544209531363962.0,333386364840900.3,350938337954238.25,41594040868.19799,73586127334.89989,943060276908.3302,18767078810216.574
2.578331719489608,4986661857825367.0,5713442211192629.0,343484427468741.8,361568038772586.4,45585668262.56339,80647942931.63216,1033562667966.8088,20568090846760.766
2.7298983538794,5131807767037147.0,5881109069077360.0,353482169635056.0,372092137503590.2,49779837365.428246,88068090500.88678,1128657352310.2102,22460489621377.867
2.884496320956988,5275667542967728.0,6047406976190280.0,363391322128646.0,382522982539255.4,54181754253.398,95855781007.77939,1228462407573.8396,24446628611813.848
3.0421862473761276,5418393293392796.0,6212512137933646.0,373222362224659.4,392871602745299.7,58796874553.54722,104020666547.90327,1333101469602.1926,26528960560209.438
3.2030299723236504,5560121604204028.0,6376583174067706.0,382984698048289.44,403147901567861.3,63630900247.85504,112572835478.86548,1442703860164.8586,28710062651633.137
3.3670905717701234,5700975763953167.0,6539763639178101.0,392686821793069.75,413360818293598.5,68689778155.82361,121522809217.14961,1557404419514.242,30992618131386.15
3.5344323832055258,5841067583313920.0,6702184103632094.0,402336435049033.2,423518459982336.4,73979699486.73087,130881541577.87065,1677343529444.057,33379420516295.92
3.7051210308696363,5980498911666670.0,6863963884869487.0,411940553266011.5,433628211430105.94,79507100426.56918,140660419815.31174,1802667126626.5913,35873373859839.945
3.879223451487029,6119362907524936.0,7025212498144442.0,421505593261425.56,443696827283999.75,85278663590.5432,150871267194.8634,1933526735575.9343,38477493407716.664
4.0568079205167695,6257745109774483.0,7186030880275063.0,431037447007909.06,453730509714534.75,91301320226.77625,161526346894.0767,2070079518644.968,41194906592373.805
4.237944078927105,6395724346473458.0,7346512428302051.0,440541544232039.56,463734974310053.8,97582253080.08064,172638367071.5783,2212488340989.466,44028854325367.78
4.422702960505647,6533373510221573.0,7506743886130509.0,450022905822257.5,473715506296437.25,104128899842.71806,184220486974.58768,2360921848842.74,46982692554585.32
4.61115701971576,6670760223185585.0,7666806105478615.0,459486189636241.8,483677008756130.8,110948957133.32477,196286323980.9628,2515554559767.145,50059894059784.44
4.803380160110075,6807947410298426.0,7826774702246012.0,468935729983231.7,493624044189106.6,118050384956.46567,208849961491.6908,2676566963804.7266,53264050465009.01
4.9994477633122765,6944993795591039.0,7986720625357507.0,478375571811676.5,503560870500411.6,125441411604.3324,221925957605.74225,2844145634654.618,56598874450512.484
5.199436718578522,7081954333822892.0,8146710651953310.0,487809500440218.56,513491472296416.6,133130538969.39392,235529354522.11456,3018483350170.021,60068202150117.56
5.403425452950093,7218880587368565.0,8306807820279275.0,497241067517879.56,523419588211741.1,141126548242.73328,249675688624.3732,3199779221602.1304,63675995722612.15
5.611493962009095,7355821056558385.0,8467071809624086.0,506673613778134.3,533348734861269.44,149438505977.6562,264381001211.58914,3388238831128.096,67426346087973.695
5.823723841249277,7492821470260559.0,8627559275042990.0,516110289054391.25,543282227909401.3,158075770502.15524,279661849846.62195,3584074377291.059,71323475821011.38
6.040198318074262,7629925042354201.0,8788324143309905.0,525554069946018.0,553223200666148.44,167047998667.1156,295535320298.5795,3787504828055.124,75371742196516.03
6.261002284435747,7767172698818684.0,8949417875486259.0,535007775460395.94,563174620552709.6,176365152919.92484,312019039061.1654,3998756081240.851,79575640381248.84
6.486222330124463,7904603279410865.0,9110889700636376.0,544474080904579.9,573139303724483.5,186037508695.46945,329131186432.72107,4218061132159.626,83939806769153.98
6.715946776726952,8042253717282785.0,9272786824512514.0,553955530257481.25,583119928094620.9,196075662118.44135,346890510147.2693,4445660248309.58,88469022457059.03
6.950265712261491,8180159199382407.0,9435154616452452.0,563454547218358.5,593119044964196.4,206490538012.57642,365316339548.7733,4681801151033.506,93168216858879.84
7.18927102650672,8318353310056714.0,9598036777249034.0,572973445098311.9,603139089434453.4,217293398213.84106,384428600303.37946,4926739204071.673,98042471456993.4
7.433056447036854,8456868159924622.0,9761475490351540.0,582514435697106.1,613182389750986.5,228495850185.82443,404247829646.55646,5180737608969.909,103097023689989.52
7.681717575977592,8595734501792902.0,9925511558420852.0,592079637287558.2,623251175708469.4,240109855936.64188,424795192163.9215,5444067607327.543,108337270976487.27
7.935351927497144,8734981835140850.0,1.009018452698222e+16,601671081812484.4,633347586226521.8,252147741237.5881,446092496106.1945,5717008689890.789,113768774875131.88
8.194058966047088,8874638500491311.0,1.0255532796677772e+16,611290721385050.8,643473676192271.0,264622205144.56555,468162210240.07837,5999848812514.938,119397265381227.48
8.45794014536803,9014731764809534.0,1.0421593725423926e+16,620940434171097.5,653631422652377.1,277546329824.04047,491027481238.2394,6292884619035.372,125228645360805.36
8.72709894827539,9155287898921310.0,1.0588403721606036e+16,630622029721746.2,663822730426384.8,290933590685.89026,514712151612.5177,6596421671101.175,131268995123191.08
9.0016409272409,9296332247814780.0,1.0755998329298188e+16,640337253815835.6,674049437204100.0,304797866826.0738,539240778195.6129,6910774685037.958,137524577133396.17
9.281673745785717,9437889294580768.0,1.092441230637129e+16,650087792864166.6,684313318181710.9,319153451782.5407,564638651177.3041,7236267775817.807,144001840865880.44
9.567307220701432,9579982718653216.0,1.109367969624698e+16,659875277921153.2,694616090284643.0,334015064608.265,590931813702.062,7573234708224.273,150707427801429.5
9.85865336511546,9722635448931302.0,1.1263833893962172e+16,669701288343893.9,704959416019268.5,349397861265.6625,618147082035.6608,7922019155309.819,157648176569087.66
10.155826432417769,9865869712294450.0,1.1434907707131094e+16,679567355133923.5,715344906990593.5,365317446347.0507,646312066308.9984,8282974964250.991,164831128235233.78
10.458942961066125,1.0009707077962132e+16,1.1606933412322292e+16,689474963992743.5,725774127118654.0,381789885126.12225,675455191847.9679,8656466429714.842,172263531742053.2
10.768121820287448,1.0154168498098352e+16,1.1779942807309324e+16,699425558118677.9,736248595582623.5,398831715945.7157,705605721098.7544,9042868574856.295,179952849497794.16
11.083484256693197,1.0299274345014372e+16,1.195396725960262e+16,709420540769439.2,746769789518287.2,416459962947.4577,736793776158.4182,9442567440073.334,187906763121318.47
11.405153941827061,1.0445044445285648e+16,1.2129037751623772e+16,719461277612101.1,757339146491738.6,434692149149.09845,769050361921.1191,9855960379652.514,196133179343581.16
11.733257020663602,1.0591498111061784e+16,1.230518492284607e+16,729549098879760.1,767958066769578.5,453546309875.6286,802407389850.7286,10283456366442.447,204640236068784.3
12.067922161076874,1.0738654168820704e+16,1.2482439109188324e+16,739685301352144.1,778627915403808.5,473041006550.443,836897702390.9961,10725476304698.816,213436308598041.72
12.409280604298411,1.0886530985789732e+16,1.2660830379921374e+16,749871150175506.2,789350024147521.9,493195340853.09955,872555098024.8499,11182453351248.744,222530016018498.03
12.75746621638438,1.1035146494233912e+16,1.2840388572317844e+16,760107880535622.4,800125693215995.9,514028969250.3343,909414356994.644,11654833245126.227,231930227760931.56
13.112615540712067,1.118451821379084e+16,1.3021143324253568e+16,770396699196229.2,810956192906115.6,535562117907.25726,947511267695.6393,12143074645836.535,241646070328939.7
13.474867851526309,1.1334663272013208e+16,1.32031241049481e+16,780738785914003.9,821842765085849.1,557815597985.7667,986882653755.2019,12647649480408.684,251686934202911.88
13.844365208556836,1.1485598423264086e+16,1.3386360244013058e+16,791135294740090.0,832786624564305.8,580810821337.4109,1027566401810.5375,13169043299400.895,262062480922039.56
14.221252512727972,1.1637340066095918e+16,1.3570880958961198e+16,801587355217166.8,843788960351811.6,604569816598.0785,1069601489998.0381,13707755642027.104,272782650347697.62
14.605677562982532,1.1789904259230574e+16,1.3756715381314388e+16,812096073480175.6,854850936818595.4,629115245692.0144,1113028017167.5935,14264300410574.197,283857668111591.06
14.997791114242183,1.1943306736248182e+16,1.3943892581436082e+16,822662533268074.1,865973694759815.9,654470420752.8516,1157887232835.4126,14839206254285.35,295298053252124.75
15.397746936527026,1.2097562919080094e+16,1.4132441592202048e+16,833287796853269.2,877158352373908.1,680659321469.3918,1204221567889.2043,15433016962885.383,307114626042507.3
15.805701875257567,1.2252687930394646e+16,1.4322391431613014e+16,843972905894734.0,888406006160646.0,707706612864.0593,1252074666059.6384,16046291869928.215,319318516014150.1
16.221815912762718,1.2408696604954596e+16,1.4513771124444354e+16,854718882220328.0,899717731744607.4,735637663512.0251,1301491416172.3884,16679606266148.004,331921170178981.3
16.64625223101797,1.2565603500018558e+16,1.4706609723017902e+16,865526728543242.1,911094584629379.4,764478564209.0896,1352517985195.06,17333551822998.605,344934361454329.0
17.079177275638333,1.2723422904852346e+16,1.4900936327176532e+16,876397429117163.8,922537600887184.2,794256147096.5323,1405201852093.5635,18008737026567.594,358370197294071.2
17.5207608211511,1.2882168849410008e+16,1.5096780103532182e+16,887331950334209.6,934047797788320.0,824998005251.2128,1459591842512.656,18705787622053.285,372241128529801.9
17.97117603757412,1.3041855112239052e+16,1.5294170304054648e+16,898331241269465.8,945626174374341.9,856732512749.2384,1515738164295.4465,19425347068994.523,386559958425758.25
18.430599558325603,1.3202495227660086e+16,1.5493136284062122e+16,909396234175510.1,957273711978642.5,889488845211.6481,1573692443856.7795,20168077007444.836,401339851951340.44
18.899211549492115,1.3364102492266058e+16,1.569370751966837e+16,920527844930080.2,968991374697673.4,923297000840.5708,1633507763425.584,20934657735283.773,416594345275012.4
19.37719578048196,1.3526689970782334e+16,1.5895913624739404e+16,931726973439747.2,980780109815876.6,958187821954.3367,1695238699171.249,21725788696858.566,432337355483443.8
19.864739696091597,1.3690270501326744e+16,1.6099784367406102e+16,942994504002191.0,992640848187036.4,994193017030.0961,1758941360229.1848,22542188983150.99,448583190529738.5
20.36203449001343,1.3854856700102566e+16,1.6305349686176818e+16,954331305629493.4,1004574504574586.9,1031345183262.5045,1824673428640.7783,23384597843663.062,465346559414600.1
20.869275179813698,1.4020460965557612e+16,1.6512639705689728e+16,965738232334589.1,1016581977953150.5,1069677829646.9639,1892494200222.8667,24253775210217.434,482642582604290.5
21.38666068340997,1.4187095482036828e+16,1.6721684752142154e+16,977216123382877.9,1028664151773384.4,1109225400595.9827,1962464626381.8887,25150502232864.305,500486802689230.3
21.91439389707817,1.4354772222954992e+16,1.6932515368429882e+16,988765803510753.4,1040821894192036.6,1150023300097.0679,2034647356887.765,26075581828090.055,518895195287041.94
22.452681775019734,1.4523502953512616e+16,1.7145162329027528e+16,1000388083112681.4,1053056058268843.5,1192107916420.5903,2109106783622.339,27029839239516.18,537884180193828.1
23.00173541052013,1.4693299232975878e+16,1.7359656654637356e+16,1012083758398233.1,1065367482131857.8,1235516647385.7878,2185909085317.1797,28014122611279.2,557470632787411.44
23.561770118730532,1.4864172416538526e+16,1.7576029626631306e+16,1023853611520352.8,1077756989112452.5,1280287926193.1995,2265122273295.1733,29029303574274.824,577671895686202.9
24.133005521105144,1.5036133656781954e+16,1.7794312801307822e+16,1035698410675908.2,1090225387851170.6,1326461247831.239,2346816238229.9023,30076277845448.855,598505790667266.4
24.715665631527248,1.5209193904745988e+16,1.8014538023982176e+16,1047618910179454.6,1102773472375374.8,1374077196064.7551,2431062797936.6567,31155965840308.234,619990630847040.0
25.309978944157795,1.5383363910621126e+16,1.823673744292554e+16,1059615850510924.8,1115402022149436.4,1423177471012.8616,2517935746208.0146,32269313298821.805,642145233128029.6
25.91617852304095,1.5558654224069638e+16,1.846094352316491e+16,1071689958337735.2,1128111802098029.2,1473804917322.962,2607510902706.4785,33417291924868.426,664988930914619.8
26.53450209350177,1.5735075194180406e+16,1.8687189060152084e+16,1083841946511678.6,1140903562602831.0,1526003552947.548,2699866163925.7905,34600900039382.062,688541587100918.5
27.165192135371807,1.5912636969058392e+16,1.8915507193306244e+16,1096072514040655.0,1153778039472775.5,1579818598529.5945,2795081555231.3677,35821163247328.125,712823607333302.5
27.808495978079243,1.6091349495047138e+16,1.9145931419429916e+16,1108382346035094.5,1166735953887670.5,1635296507401.8054,2893239283989.3125,37079135118631.48,737855953550014.5
28.464665897640828,1.6271222515577988e+16,1.9378495605994412e+16,1120772113628725.1,1179778012314763.8,1692484996204.0796,2994423793791.736,38375897883156.02,763660157799763.4
29.133959215593645,1.6452265569636898e+16,1.961323400428402e+16,1133242473872924.5,1192904906397568.2,1751433076122.5598,3098721819784.6294,39712563139815.414,790258336340909.6
29.816638399905518,1.6634487989833686e+16,1.9850181262385184e+16,1145794069603767.2,1206117312815870.2,1812191084752.5955,3206222445102.327,41090272579866.12,817673204022179.2
30.51297116790363,1.6817898900055784e+16,2.008937243799854e+16,1158427529280390.2,1219415893115618.5,1874810718586.422,3317017158410.2954,42510198724406.91,845928088945371.0
31.223230591261704,1.7002507212682184e+16,2.0330843011046664e+16,1171143466793089.2,1232801293506900.5,1939345066124.956,3431199912555.2505,43973545676069.555,875046947409731.9
31.947695203086937,1.7188321625328406e+16,2.0574628896043204e+16,1183942481239127.2,1246274144627940.8,2005848641611.2927,3548867184318.413,45481549884849.04,905054379136907.1
32.686649107148675,1.7375350617088384e+16,2.0820766454181892e+16,1196825156663845.5,1259835061272605.0,2074377419381.3672,3670118035264.119,47035480927973.01,935975642774445.6
33.44038208929165,1.7563602444231838e+16,2.1069292505095556e+16,1209792061764315.2,1273484642078436.5,2144988868825.0132,3795054173671.936,48636642303658.29,967836671674809.0
34.20918973107749,1.7753085135311706e+16,2.132024433822761e+16,1222843749552338.0,1287223469171899.0,2217741989948.015,3923780017535.824,50286372238543.36,1000664089945611.5
34.993373525699035,1.7943806485628564e+16,2.1573659723750964e+16,1235980756973137.5,1301052107767013.2,2292697349522.851,4056402758608.6016,51986044508519.52,1034485228765587.9
35.793240996213015,1.8135774050993132e+16,2.182957692295904e+16,1249203604475712.0,1314971105713093.0,2369917117812.4736,4193032427464.5337,53737069272611.03,1069328142959198.0
36.60910581613728,1.8328995140722656e+16,2.208803469804625e+16,1262512795530448.8,1328980992986941.0,2449465105848.065,4333781959545.986,55540893919469.01,1105221627821302.8
37.44128793246003,1.8523476809800356e+16,2.2349072321186536e+16,1275908816089029.2,1343082281124343.0,2531406803237.5986,4478767262153.942,57399003925962.96,1142195236181459.0
38.29011369110923,1.8719225850121296e+16,2.2612729582809628e+16,1289392133981472.0,1357275462585334.0,2615809416477.8164,4628107282333.551,59312923727244.586,1180279295695474.2
39.15591596493141,1.8916248780744176e+16,2.2879046798966924e+16,1302963198244623.5,1371561010047387.8,2702741907737.6216,4781924075598.69,61284217597567.266,1219504926349808.0
40.03903428423004,1.91145518370622e+16,2.3148064817671336e+16,1316622438376290.5,1385939375620216.0,2792275034075.7847,4940342875429.951,63314490541018.3,1259904058162106.5
40.93981496991464,1.9314140958803584e+16,2.3419825024088496e+16,1330370263508681.5,1400410989975752.0,2884481387050.614,5103492163471.283,65405389191209.01,1301509449058769.2
41.85861126931294,1.9515021776769536e+16,2.369436934445068e+16,1344207061494912.5,1414976261386515.0,2979435432673.549,5271503740340.631,67558602718835.01,1344354702907883.2
42.7957834946992,1.9717199598213864e+16,2.3971740248559004e+16,1358133197901936.8,1429635574665564.2,3077213551652.5913,5444512796959.16,69775863745886.08,1388474287683184.0
43.751699164593184,1.9920679390769164e+16,2.4251980750736824e+16,1372149014903405.5,1444389290001033.8,3177894079865.411,5622657986292.609,72058949265140.45,1433903553731882.8
44.72673314788505,2.012546576482567e+16,2.4535134409093984e+16,1386254830065848.2,1459237741678425.2,3281557348995.3228,5806081495387.104,74409681563435.98,1480678752116233.2
