t(s),Total solute volume 1,Total retention volume 1,Total 1 volume 1,Total 2 volume 1,Total 3 volume 1,Total 4 volume 1,Total 5 volume 1,Total 6 volume 1
0.1,878184692305091.0,1002349173156223.1,60489917771387.09,63674563079745.664,0.0,0.0,0.0,0.0
0.202,1323179717781070.8,1510264463152602.8,91141457084586.36,95939830856403.7,7253977.778590997,12833312.324725782,164467649.32664824,3272875601.752602
0.30604000000000003,1662075818813115.5,1897081607204323.2,114484835202828.12,120512180518324.36,18405581.34289352,32562078.806440838,417305963.97114235,8304396430.547425
0.41216080000000005,1948729312586336.8,2224271178900129.2,134229709432645.11,141296573880764.4,32693905.106240768,57840148.44458255,741262738.0576276,14751203593.670877
0.5204040160000001,2203298258268448.8,2514841177390246.0,151764579664320.75,159754611957767.34,49781342.41236475,88070247.09425257,1128683425.9950216,22460964695.18823
0.6308120963200001,2435824908984552.5,2780253620216186.5,167781162655612.72,176614428698775.06,69486856.76860695,122932095.5317369,1575463401.4394035,31351994887.25681
0.7434283382464002,2652145631006869.5,3027170014528968.5,182681471012761.28,192299201687388.75,91706994.15030989,162242668.94646,2079257061.0146713,41377615225.952415
0.8582969050113283,2855999169959294.0,3259857690661464.0,196723031902771.12,207080016263816.16,116383434.09267028,205898790.20582172,2638742110.612452,52511511243.17821
0.9754628431115548,3049947487379913.5,3481240826001390.5,210082314859299.9,221142632649377.94,143487003.49268416,253848847.9994267,3253257111.2495008,64740519834.31849
1.094972099973786,3235835341013228.0,3693425000047964.0,222886387964360.6,234620808748570.4,173008824.3422025,306077135.9219976,3922600772.3403273,78060635065.51254
1.2168715419732616,3415042577047253.5,3897985155123718.5,235230295897445.25,247614593109837.6,204954995.08435935,362594443.03814137,4646911362.5999155,92474608381.52469
1.3412089728127268,3588632926070845.5,4096135428627452.5,247187309095327.47,260201113678491.4,239343197.7802468,423432051.4789398,5426589784.689955,107990417750.57289
1.4680331522689813,3757446821006204.0,4288835093197712.0,258815317110051.62,272441307749301.03,276200433.2812709,488637729.640731,6262248225.034675,124620245770.12257
1.597393815314361,3922161968329592.5,4476857691210675.5,270161000792988.97,284384313805800.06,315561455.5340167,558272962.248539,7154674654.998198,142379773223.4396
1.729341691620648,4083334370485920.0,4660837856727911.0,281262657944736.0,296070445933712.1,357467659.4602478,632410982.8582766,8104807615.922478,161287677290.25473
1.863928525453061,4241426986176751.5,4841304027611174.0,292152177453910.7,307533271893306.3,401966274.45033467,711135347.0325023,9113717933.304766,181365267650.69598
2.001207095962122,4396830290342011.5,5018701912148748.0,302856455481714.2,318801103862604.4,449109770.4716526,794538881.6622008,10182595251.569569,202636218521.31653
2.1412312378813647,4549877362864277.0,5193411710905851.0,313398434781443.56,329898092474502.1,498955416.22791904,882722903.2882828,11312738016.273869,225126369296.60056
2.284055862638992,4700855183557760.0,5365761008528128.0,323797882704481.2,340845045782875.1,551564948.7167478,975796633.5023173,12505545982.030535,248863575453.37762
2.4297369798917723,4850013235721358.0,5536034593613277.0,334071983818488.4,351660053080655.5,607004326.1770769,1073876761.8758287,13762514611.120512,273877597080.74332
2.578331719489608,4997570161363537.0,5704482054815173.0,344235798323500.94,362358967450414.4,665343544.6871659,1177087121.4964697,15085230915.246248,300200016129.09766
2.7298983538794,5143718980554776.0,5871323738084481.0,354302621564238.06,372955784204110.2,726656504.2225385,1285558452.0058434,16475370418.684277,327864175975.4771
2.884496320956988,5288631235440056.0,6036755476625477.0,364284269474688.8,383462941361697.3,791020913.9763024,1399428234.0306013,17934695505.538254,356905204398.10046
3.0421862473761276,5432460317667043.0,6200952388442750.0,374191307763846.06,393891560878405.4,858518228.125493,1518840567.8392541,19465051994.079063,387359722661.50525
3.2030299723236504,5575344166405383.0,6364071956271187.0,384033237771579.2,404251644322648.4,929233608.9850205,1643946119.6791787,21068371246.31638,419266220592.6757
3.3670905717701234,5717407477336487.0,6526256548573859.0,393818648615405.4,414552233007878.5,1003255909.4577289,1774902083.0690634,22746667812.40687,452664788280.8753
3.5344323832055258,5858763525785607.0,6687635500519826.0,403555342771483.3,424801540191452.94,1080677674.1079502,1911872182.608391,24502039943.110462,487597181479.75494
3.7051210308696363,5999515683389411.0,6848326845097316.0,413250440543619.6,435007061043680.06,1161595155.108625,2055026702.1906445,26336669951.36421,524106828803.9595
3.879223451487029,6139758688809939.0,7008438763504856.0,422910467590871.25,445175664783530.25,1246108341.1614368,2204542536.167592,28252824867.988846,562238844777.6304
4.0568079205167695,6279579719438559.0,7168070808400016.0,432541428747169.3,455313672384691.44,1334320997.7452562,2360603260.5550303,30252857354.242207,602040047994.2618
4.237944078927105,6419059300815792.0,7327314941924046.0,442148870662755.5,465426922514910.9,1426340717.3866527,2523399221.9689536,32339206841.600853,643558983798.4686
4.422702960505647,6558272082757781.0,7486256421591159.0,451737935264247.94,475520827810611.0,1522278978.9101937,2693127642.448356,34514400875.1406,686845951019.4564
4.61115701971576,6697287505261893.0,7644974560377239.0,461313405622651.8,485600423159731.56,1622251214.8346121,2869992738.6891437,36781056641.60705,731953032379.876
4.803380160110075,6836170372697671.0,7803543382129953.0,470879745503989.8,495670407334612.5,1726376886.2461584,3054205854.5063977,39141882667.01584,778934128278.3738
4.9994477633122765,6974981351232575.0,7962032189363270.0,480441133632302.44,505735179058846.56,1834779564.6133378,3245985605.576875,41599680671.63428,827844993704.0902
5.199436718578522,7113777401650721.0,8120506057313616.0,490001493502481.75,515798868389692.0,1947587020.1143718,3445558035.703548,44157347572.62641,878743278089.6909
5.403425452950093,7252612157515897.0,8279026265615472.0,499564519428373.25,525865364137543.3,2064931316.1363094,3653156783.998597,46817877626.6259,931688567948.998
5.611493962009095,7391536256871722.0,8437650676947784.0,509133699390496.6,535938337916525.44,2186948909.676311,3869023262.508388,49584364706.12977,986742432177.7413
5.823723841249277,7530597634262230.0,8596434070393089.0,518712335150609.06,546021265318039.06,2313780757.4353833,4093406843.9090776,52460004704.957085,1043968469922.6422
6.040198318074262,7669841778718782.0,8755428435953923.0,528303560022002.9,556117444616625.94,2445572427.4440813,4326565058.98917,55448098069.13196,1103432360946.5884
6.261002284435747,7809311962436234.0,8914683235616600.0,537910354620869.2,566230013350593.0,2582474216.101527,4568763803.709112,58552052450.50519,1165201918436.2415
6.486222330124463,7949049444107410.0,9074245635493240.0,547535560872106.5,576361963065206.0,2724641270.544393,4820277555.690229,61775385481.21944,1229347144214.51
6.715946776726952,8089093650267292.0,9234160712866436.0,557181894500416.56,586516152461398.1,2872233716.2924404,5081389600.03884,65121727667.81107,1295940286333.8176
6.950265712261491,8229482337487530.0,9394471641379428.0,566851956202371.8,596695319156027.1,3025416790.143107,5352392264.456668,68594825404.32359,1365055899037.7083
7.18927102650672,8370251737840041.0,9555219857132380.0,576548241666033.1,606902090229000.9,3184360978.310252,5633587163.62899,72198544104.32104,1436770905088.62
7.433056447036854,8511436689696324.0,9716445208043528.0,586273150580499.4,617138991707154.2,3349242159.8214383,5925285452.915857,75936871452.12941,1511164660468.2642
7.681717575977592,8653070755635099.0,9878186088498024.0,596028994757452.2,627408457113371.5,3520241755.205636,6227808091.403093,79813920774.0271,1588319021465.092
7.935351927497144,8795186328983814.0,1.0040479561026912e+16,605818005469802.5,637712835191601.5,3697546880.518569,6541486114.396096,83833934530.455,1668318414170.0198
8.194058966047088,8937814730311521.0,1.0203361466518732e+16,615642340098191.2,648054396903275.6,3881350506.7664566,6866660915.464562,88001287930.6272,1751249906407.9546
8.45794014536803,9080986295014760.0,1.036686652426754e+16,625504088163942.9,658435341777884.9,4071851624.8016353,7203684538.167481,92320492671.20168,1837203282138.1875
8.72709894827539,9224730452987888.0,1.0531028422988926e+16,635405276816822.4,668857803689645.4,4269255415.7745237,7552919977.608524,96796200800.93466,1926271118361.8154
9.0016409272409,9369075801242606.0,1.0695879903790864e+16,645347875837110.0,679323856122935.1,4473773427.237251,7914741491.98973,101433208713.47171,2018548864579.1504
9.281673745785717,9514050170232056.0,1.0861452835962116e+16,655333802204050.0,689835516981240.2,4685623755.00342,8289534924.349001,106236461270.65019,2114134924844.3364
9.567307220701432,9659680684541666.0,1.102777828633342e+16,665364924276264.9,700394752987681.4,4905031230.87795,8677698034.68259,111211056058.89359,2213130742468.478
9.85865336511546,9805993818528456.0,1.1194886582875602e+16,675443065624237.1,711003483719240.9,5132227616.379278,9079640842.668756,116362247781.46979,2315640887426.5244
10.155826432417769,9953015447421018.0,1.1362807373120124e+16,685570008550101.5,721663585311885.0,5367451802.5842085,9495785981.223883,121695452789.5707,2421773146526.7065
10.458942961066125,1.0100770894332838e+16,1.1531569677917392e+16,695747497325954.9,732376893869352.0,5610950016.23353,9926569061.134422,127216253755.34213,2531638616404.769
10.768121820287448,1.024928497358919e+16,1.1701201940991032e+16,705977241178240.0,743145208604657.4,5862976032.244136,10372439047.023102,132930404490.16689,2645351799408.8726
11.083484256693197,1.0398582030722688e+16,1.1871732074692788e+16,716260917042665.5,753970294740057.1,6123791392.780322,10833858644.919327,138843834911.6662,2763030702443.871
11.405153941827061,1.0548685979453178e+16,1.2043187502318282e+16,726600172111404.2,764853886188338.1,6393665633.04402,11311304701.71662,144962656163.04138,2884796938847.293
11.733257020663602,1.069962033593302e+16,1.2215595197305198e+16,736996626191922.5,775797688035856.2,6672876513.951065,11805268616.81234,151293165888.53925,3010775833372.1406
12.067922161076874,1.0851408250508552e+16,1.2388981719599806e+16,747451873894744.2,786803378845460.6,6961710261.866621,12316256766.236347,157841853668.9769,3141096530354.921
12.409280604298411,1.1004072537222512e+16,1.2563373249448204e+16,757967486665576.0,797872612795616.9,7260461815.580585,12844790939.588076,164615406621.4109,3275892105150.185
12.75746621638438,1.1157635701257474e+16,1.2738795618841378e+16,768545014675659.1,809007021670272.2,7569435080.709528,13391408790.11272,171620715167.19647,3415299678915.965
13.112615540712067,1.1312119964501984e+16,1.2915274340820568e+16,779185988582746.6,820208216712546.6,7888943191.719136,13956664298.259035,178864878972.82208,3559460536837.5884
13.474867851526309,1.1467547289400066e+16,1.3092834636827954e+16,789891921173897.4,831477790354022.0,8219308781.7673645,14541128249.073484,186355213068.0696,3708520249880.095
13.844365208556836,1.1623939401231304e+16,1.3271501462268944e+16,800664308900129.4,842817317830191.2,8560864260.575541,15145388723.796692,194099254146.1828,3862628800162.833
14.221252512727972,1.1781317808952556e+16,1.3451299530437026e+16,811504633312015.4,854228358691620.1,8913952100.540691,15770051606.040665,202104767050.90436,4021940710052.584
14.605677562982532,1.1939703824720538e+16,1.3632253334937192e+16,822414362404405.6,865712458219483.5,9278925131.31042,16415741102.9369,210379751455.3722,4186615175074.649
14.997791114242183,1.209911858220271e+16,1.3814387170730268e+16,833394951877709.6,877271148753238.6,9656146843.046934,17083100281.657417,218932448738.03027,4356816200744.715
15.397746936527026,1.2259583053774504e+16,1.3997725153910262e+16,844447846322424.9,888905950937528.0,10045991698.614761,17772791621.723457,227771349060.87408,4532712743426.86
15.805701875257567,1.2421118066690762e+16,1.4182291240315558e+16,855574480333061.4,900618374894734.9,10448845454.933754,18485497583.528397,236905198655.4863,4714478855326.747
16.221815912762718,1.2583744318312322e+16,1.4368109243066044e+16,866776279556944.1,912409921329014.1,10865105493.744902,19221921193.5144,246343007322.50656,4902293833731.941
16.64625223101797,1.274748239046074e+16,1.4555202849109386e+16,878054661682973.2,924282082567104.4,11295181162.045246,19982786646.45425,256094056150.31598,5096342374614.598
17.079177275638333,1.2912352762967574e+16,1.4743595634853502e+16,889411037374926.0,936236343540761.8,11739494122.453945,20768839925.304317,266167905458.9009,5296814730714.989
17.5207608211511,1.3078375826479472e+16,1.493331108095349e+16,900846811153452.4,948274182715202.5,12198478713.7801,21580849439.10448,276574402975.01196,5503906874227.681
17.97117603757412,1.3245571894573932e+16,1.5124372586317594e+16,912363382230640.6,960397072967590.5,12672582322.0691,22419606679.41829,287323692244.9136,5717820664215.647
18.430599558325603,1.3413961215236666e+16,1.531680348138932e+16,923962145300575.6,972606482419227.6,13162265762.413515,23285926895.815643,298426221291.19025,5938764018880.531
18.899211549492115,1.3583563981746816e+16,1.5510627040758526e+16,935644491289111.0,984903875224792.2,13668003671.82034,24180649790.91666,309892751520.22955,6166951092821.459
19.37719578048196,1.375440034301172e+16,1.5705866495150618e+16,947411808065743.9,997290712321706.1,14190284913.435053,25104640235.528286,321734366887.2099,6402602459417.529
19.864739696091597,1.3926490413390084e+16,1.5902545042836506e+16,959265481120251.6,1009768452142368.4,14729612992.430922,26058789004.417736,333962483325.56,6645945298472.867
20.36203449001343,1.4099854282038614e+16,1.610068586050469e+16,971206894206461.9,1022338551291855.9,15286506483.878897,27044013533.282024,346588858448.0594,6897213589266.796
20.869275179813698,1.4274512021813222e+16,1.6300312113630824e+16,983237429955412.0,1035002465193319.8,15861499472.921658,28061258697.48573,359625601526.90436,7156648309154.792
21.38666068340997,1.445048369775421e+16,1.6501446966378466e+16,995358470459778.4,1047761648703225.9,16455142007.583029,29111497613.152615,373085183760.2561,7424497637869.582
21.91439389707817,1.4627789375180308e+16,1.6704113591059502e+16,1007571397831428.0,1060617556698225.1,17068000564.550945,30195732461.21001,386980448832.9248,7701017167674.694
22.452681775019734,1.4806449127414986e+16,1.6908335177181124e+16,1019877594733595.4,1073571644635372.1,17700658528.28028,31314995334.997883,401324623779.0624,7986470119527.002
23.00173541052013,1.498648304316417e+16,1.7114134940101638e+16,1032278444889065.0,1086625369087051.8,18353716683.767864,32470349112.06654,416131330154.8263,8281127565406.293
23.561770118730532,1.5167911233562466e+16,1.7321536129314482e+16,1044775333565525.9,1099780188251885.0,19027793723.358837,33662888350.798557,431414595529.177,8585268656974.603
24.133005521105144,1.5350753838901574e+16,1.7530562036376198e+16,1057369648039024.2,1113037562442584.2,19723526767.949738,34893740212.49992,447188865301.0761,8899180860729.195
24.715665631527248,1.553503103505078e+16,1.7741236002490488e+16,1070062778036210.0,1126398954551486.2,20441571902.957977,36164065409.61705,463469014851.47614,9223160199816.361
25.309978944157795,1.572076303957703e+16,1.7953581425755848e+16,1082856116155900.2,1139865830494299.5,21182604729.432415,37475059180.73955,480270362038.58905,9557511502674.305
25.91617852304095,1.5907970117567022e+16,1.816762176808131e+16,1095751058270095.8,1153439659632242.5,21947320930.681118,38827952293.05594,497608680044.974,9902548658675.158
26.53450209350177,1.6096672587150584e+16,1.8383380561768012e+16,1108749003904439.1,1167121915172527.2,22736436854.795944,40224012072.9347,515500210585.01587,10258594880936.588
27.165192135371807,1.6286890824719092e+16,1.860088141575105e+16,1121851356597672.0,1180914074546747.5,23550690113.450424,41664543465.294205,533961677481.3775,10625982976473.072
27.808495978079243,1.6478645269828552e+16,1.882014802148906e+16,1135059524239353.2,1194817619766359.0,24390840197.34738,43150890122.428825,553010300618.9089,11005055623855.75
28.464665897640828,1.667195642977087e+16,1.9041204158483204e+16,1148374919384720.0,1208834037754143.5,25257669108.684547,44684435522.9455,572663810284.4017,11396165658547.77
29.133959215593645,1.6866844883790186e+16,1.92640736993994e+16,1161798959545137.5,1222964820649933.5,26151982011.001263,46266604121.44617,592940461900.3925,11799676366077.158
29.816638399905518,1.706333128691582e+16,1.9488780614761224e+16,1175333067452098.8,1237211466088488.0,27074607896.75476,47898862529.5806,613859051160.9269,12215961783205.686
30.51297116790363,1.7261436373374012e+16,1.9715348977170976e+16,1188978671292223.8,1251575477446919.2,28026400272.960094,49582720729.05614,635438929576.8502,12645407007242.887
31.223230591261704,1.7461180959534614e+16,1.994380296500841e+16,1202737204910236.8,1266058364058310.0,29008237865.20713,51319733317.15836,657700020437.7479,13088408513647.139
31.947695203086937,1.7662585946338516e+16,2.0174166865545788e+16,1216610107976163.8,1280661641387722.8,30021025340.343376,53111500785.296394,680662835197.0356,13545374482043.166
32.686649107148675,1.7865672321143034e+16,2.0406465077407452e+16,1230598826112454.5,1295386831166027.2,31065694048.07704,54959670831.02146,704348490286.0247,14016725130771.064
33.44038208929165,1.8070461158912884e+16,2.0640722112292052e+16,1244704810976000.8,1310235461476226.0,32143202781.722694,56865939703.91091,728778724361.9515,14502893060065.959
34.20918973107749,1.827697362267301e+16,2.0876962595860684e+16,1258929520289335.5,1325209066786292.0,33254538558.26177,58832053585.625786,753975915993.9152,15004323603946.752
34.993373525699035,1.848523096312938e+16,2.1115211267685704e+16,1273274417814525.8,1340309187921696.5,34400717417.84296,60859810004.359314,779963101789.5077,15521475190869.049
35.793240996213015,1.8695254517352644e+16,2.1355492980137744e+16,1287740973262481.8,1355537371969925.0,35582785242.78508,62951059283.78967,806763994963.6228,16054819713170.959
36.60910581613728,1.890706570640764e+16,2.1597832696080196e+16,1302330662129671.2,1370895172108636.5,36801818596.07837,65107706026.529396,834403004349.2727,16604842905309.168
37.44128793246003,1.912068603180018e+16,2.1842255485222508e+16,1317044965453402.0,1386384147348004.0,38058925579.302666,67331710631.92677,862905253848.6273,17172044730848.541
38.29011369110923,1.9336137070602652e+16,2.2088786518973988e+16,1331885369476049.2,1402005862177298.0,39355246709.79389,69625090847.9206,892296602320.4014,17756939778128.63
39.15591596493141,1.9553440469106596e+16,2.2337451063626612e+16,1346853365207824.8,1417761886104647.8,40691955816.795364,71989923356.48463,922603663897.6781,18360057664488.367
40.03903428423004,1.977261793484167e+16,2.2588274471681108e+16,1361950447877087.8,1433653793078371.5,42070260956.22524,74428345392.00534,953853828727.715,18981943448881.82
40.93981496991464,1.9993691226790308e+16,2.2841282171122536e+16,1377178116256262.8,1449683160777438.5,43491405343.57248,76942556391.73482,986075284122.7899,19623158052665.633
41.85861126931294,2.021668214361753e+16,2.3096499652439068e+16,1392537871851144.5,1465851569758087.8,44956668304.313,79534819677.2394,1019297036108.1881,20284278688282.52
42.7957834946992,2.044161250972912e+16,2.3353952453169876e+16,1408031217940569.8,1482160602442924.0,46467366241.098175,82207464165.52286,1053548931350.4509,20965899295504.113
43.751699164593184,2.06685041589649e+16,2.3613666139760624e+16,1423659658453178.0,1498611841938557.8,48024853616.825035,84962886108.2477,1088861679445.6511,21668630984830.996
44.72673314788505,2.0897378915727948e+16,2.3875666286500884e+16,1439424696667610.2,1515206870667366.0,49630523952.54409,87803550857.20883,1125266875544.042,22393102487578.473
