t(s),Total solute volume 1,Total retention volume 1,Total 1 volume 1,Total 2 volume 1,Total 3 volume 1,Total 4 volume 1,Total 5 volume 1,Total 6 volume 1
0.1,1117071271046687.6,1512117690109863.2,171218609237430.47,223827809825744.56,0.0,0.0,0.0,0.0
0.202,1680139399325479.8,2278770860148815.0,257522631377833.97,336649900625115.6,2975088514.3678555,7345073483.508998,155123921842.50427,4293484736547.194
0.30604000000000003,2107745628814230.8,2864440987386367.5,323063789336725.7,422329455952791.3,7539068619.717238,18612918293.134396,393105532462.62915,10882855763247.215
0.41216080000000005,2468211284923228.0,3361134789107147.0,378314005175981.5,494556039236369.5,13375254439.525793,33021676282.70898,697426914929.4087,19309635925910.695
0.5204040160000001,2787205269169232.5,3803384635116319.5,427207668622159.5,558472934338574.0,20340911901.666306,50218958251.010925,1060644746988.3237,29367558369210.797
0.6308120963200001,3077528733566132.5,4208401171318163.0,471706870668727.1,616645111006723.1,28357677012.878166,70011296460.2662,1478672652538.372,40943414450564.805
0.7434283382464002,3346624618052489.5,4586189692900828.0,512952424685257.9,670563912789233.5,37379017842.22981,92283812357.13866,1949084229007.6707,53969990314640.31
0.8582969050113283,3599260872795797.5,4943162178534875.0,551675136150688.1,721184694925336.1,47376845727.45241,116967161417.51883,2470414830988.2246,68406715824921.93
0.9754628431115548,3838703497069954.5,5283715252738836.0,588375599676371.4,769161866415575.8,58334907107.451645,144021218481.4127,3041816969959.774,84230116481384.72
1.094972099973786,4067302393113155.0,5611017721182368.0,623413995500654.6,814966277692527.5,70245115742.64694,173426022514.8473,3662869051528.1763,101428514686246.2
1.2168715419732616,4286813163126432.5,5927442853338446.0,657059412783357.4,858949699157904.1,83105342155.22011,205176319051.33838,4333460103173.998,119998836506379.86
1.3412089728127268,4498586994666826.0,6234823295600007.0,689518954206494.4,901382868561338.8,96917997518.4334,239278064020.11887,5053715930063.535,139944566173743.02
1.4680331522689813,4703689165430027.0,6534610058568730.0,720955899743057.9,942479235830138.4,111689082927.36673,275746076537.5396,5823949538853.303,161274372867188.3
1.597393815314361,4902976410961988.0,6827976251966886.0,751501565159217.2,982410465254890.5,127427527050.51357,314602403671.35645,6644626599446.494,184001154060617.2
1.729341691620648,5097149344109412.0,7115887328938636.0,781263336582667.9,1021316938786380.8,144144710756.59628,355875146821.3015,7516340656746.498,208141348945854.28
1.863928525453061,5286789091974420.0,7399150155209883.0,810330286015857.6,1059315096990356.8,161854117574.78726,399597598765.2466,8439794904091.394,233714433608811.06
2.001207095962122,5472383587670848.0,7678448205586673.0,838777201193425.1,1096502707132539.1,180571071531.45938,445807596426.25116,9415788512996.705,260742542408907.22
2.1412312378813647,5654346872119389.0,7954367391993633.0,866667544056428.4,1132962730683596.8,200312537298.55847,494547027478.76495,10445206212175.68,289250179357247.5
2.284055862638992,5833033547493249.0,8227415396772127.0,894055666097884.5,1168766219359244.0,221096965812.93738,545861449216.75323,11529010237670.883,319263995169044.25
2.4297369798917723,6008749789927153.0,8498036399222773.0,920988496330953.4,1203974521739187.8,242944173750.49704,599799791005.0996,12668234048365.521,350812613212352.1
2.578331719489608,6181761870715251.0,8766622468008352.0,947506847371800.0,1238640990661417.8,265875248656.67685,656414120073.4768,13863977379363.5,383926492511795.94
2.7298983538794,6352302840779728.0,9033522496903572.0,973646439998616.1,1272812322590685.8,289912473828.76227,715759456075.246,15117402325344.197,418637819279302.7
2.884496320956988,6520577839285108.0,9299049301258150.0,999438716827129.6,1306529621306684.5,315079268620.5015,777893623722.4694,16429730228129.953,454980420718759.7
3.0421862473761276,6686768356701908.0,9563485317448872.0,1024911495729856.4,1339829252095101.0,341400140942.9804,842877135532.3964,17802239200242.93,492989696445294.7
3.2030299723236504,6851035692931234.0,9827087227364960.0,1050089499878603.0,1372743534652768.5,368900649522.943,910773098664.3574,19236262157279.832,532702563996884.0
3.3670905717701234,7013523788367341.0,1.0090089745907458e+16,1074994791674360.1,1405301310348300.0,397607374050.54944,981647141235.2688,20733185261698.31,574157415740444.8
3.5344323832055258,7174361561175792.0,1.0352708749741602e+16,1099647130992587.4,1437528410543048.2,427547891768.6922,1055567354539.1554,22294446702515.336,617394085081324.9
3.7051210308696363,7333664851880611.0,1.0615143882445164e+16,1124064273238956.5,1469448046228440.2,458750759369.33234,1132604248369.7039,23921535751757.855,662453820337665.8
3.879223451487029,7491538052809429.0,1.0877580739679782e+16,1148262219101847.5,1501081134518289.2,491245499298.932,1212830717229.0571,25615992050844.785,709379264982853.0
4.0568079205167695,7648075482506170.0,1.114019271467638e+16,1172255425214848.2,1532446574040125.8,525062589755.8095,1296322015652.25,27379405089503.156,758214443220300.6
4.237944078927105,7803362552151080.0,1.1403142566843766e+16,1196056982939262.8,1563561478651060.8,560233457801.6783,1383155741221.0095,29213413847094.18,809004750056235.4
4.422702960505647,7957476761128859.0,1.1666583763072492e+16,1219678770959418.2,1594441376920006.5,596790475118.3491,1473411824108.9578,31119706571892.3,861796945193092.8
4.61115701971576,8110488551314196.0,1.1930661631184172e+16,1243131586222859.5,1625100383301020.5,634766956025.9932,1567172522211.26,33100020678315.7,916639150189568.1
4.803380160110075,8262462043795908.0,1.2195514357163674e+16,1266425256861451.2,1655551345750918.8,674197157447.1637,1664522421079.0051,35156142745640.33,973580848431210.5
4.9994477633122765,8413455677209189.0,1.2461273851729502e+16,1289568740031467.5,1685805973632022.8,715116280554.8401,1765548438012.2842,37289908604553.305,1032672887533671.5
5.199436718578522,8563522763270274.0,1.2728066507025384e+16,1312570207062905.8,1715874949024775.0,757560473886.4733,1870339829773.6116,39503203500173.87,1093967483863601.1
5.403425452950093,8712711972280879.0,1.2996013860440808e+16,1335437117875008.8,1745768024008367.0,801566837741.215,1978988203470.4915,41797962322012.92,1157518228913333.8
5.611493962009095,8861067759117322.0,1.3265233179562916e+16,1358176286269508.0,1775494106016276.5,847173429706.4581,2091587530227.2307,44176169892848.02,1223380097307041.2
5.823723841249277,9008630738412744.0,1.3535837979853488e+16,1380793937436567.2,1805061333011615.2,894419271183.434,2208234161324.491,46639861309721.19,1291609456250320.5
6.040198318074262,9155438016183528.0,1.3807938484699388e+16,1403295758784623.8,1834477139935167.2,943344354801.2382,2329026846533.4897,49191122331294.555,1362264076263411.0
6.261002284435747,9301523483966776.0,1.408164203590827e+16,1425686945024237.8,1863748317641812.5,993989652624.8844,2454066754411.8296,51832089806639.055,1435403143061727.2
6.486222330124463,9446918080570810.0,1.4357053461433718e+16,1447972238287726.0,1892881065347485.5,1046397125076.5792,2583457494361.531,54564952141248.125,1511087270467039.0
6.715946776726952,9591650025745684.0,1.4634275406057142e+16,1470155963944976.0,1921881037449865.2,1100609730500.8857,2717305140278.1626,57391949796657.734,1589378514249156.8
6.950265712261491,9735745029429228.0,1.491340862988302e+16,1492242062675465.0,1950753385454938.5,1156671435314.0503,2855718255643.621,60315375820563.055,1670340386811865.0
7.18927102650672,9879226479678384.0,1.519455227878287e+16,1514234119273422.2,1979502795632960.5,1214627224686.0063,2998807919935.606,63337576404746.34,1754037872648757.8
7.433056447036854,1.002211561194768e+16,1.5477804130321508e+16,1536135388593866.5,2008133522936732.2,1274523113710.5999,3146687756243.8804,66460951468500.54,1840537444504804.0
7.681717575977592,1.0164431661995978e+16,1.5763260818197534e+16,1557948818989351.5,2036649421639605.2,1336406159025.5344,3299473959998.6855,69687955265541.234,1929907080188009.8
7.935351927497144,1.030619200438749e+16,1.6051018037808594e+16,1579677073538616.8,2065053973086940.8,1400324470848.872,3457285328729.1113,73021097012679.64,2022216279983292.2
8.194058966047088,1.044741227828401e+16,1.6341170735196482e+16,1601322549327370.0,2093350310901144.0,1466327225403.2861,3620243292780.6484,76462941538757.14,2117536084626998.8
8.45794014536803,1.0588106502000694e+16,1.6633813281326208e+16,1622887395006747.0,2121541243935198.5,1534464677703.3848,3788471946930.9917,80016109952553.5,2215939093806380.2
8.72709894827539,1.0728287177603108e+16,1.6929039633398714e+16,1644373526825399.5,2149629277230847.0,1604788174684.7825,3962098082851.397,83683280328561.69,2317499485153277.0
9.0016409272409,1.0867965386661558e+16,1.7226943484679058e+16,1665782643306192.8,2177616631204867.8,1677350168656.747,4141251222368.994,87467188409677.9,2422293033705716.5
9.281673745785717,1.100715087813705e+16,1.7527618404136346e+16,1687116238716870.0,2205505259258813.5,1752204231062.89,4326063651491.7114,91370628326009.55,2530397131815071.5
9.567307220701432,1.1145852149252524e+16,1.7831157967032246e+16,1708375615465587.8,2233296863983218.5,1829405066537.0154,4516670455163.986,95396453329114.88,2641890809480081.0
9.85865336511546,1.128407652010125e+16,1.813765587745765e+16,1729561895536439.5,2260992912106862.0,1909008527243.1763,4713209552726.58,99547576541122.75,2756854755092001.5
10.155826432417769,1.142183020265198e+16,1.844720608369983e+16,1750676031066245.5,2288594648323379.0,1991071627491.31,4915821734058.889,103826971718269.67,2875371336578386.5
10.458942961066125,1.155911836473569e+16,1.8759902887218828e+16,1771718814152054.2,2316103108112288.5,2075652558621.4155,5124650696386.792,108237674028498.6,2997524622935247.0
10.768121820287448,1.169594518952931e+16,1.9075841045924468e+16,1792690885968485.0,2343519129657745.0,2162810704150.986,5339843081743.086,112782780842842.64,3123400406140196.5
11.083484256693197,1.1832313930993892e+16,1.939511587236744e+16,1813592745265017.0,2370843364956713.5,2252606655182.1123,5561548515071.466,117465452540408.36,3253086223441160.5
11.405153941827061,1.196822696567414e+16,1.971782332739093e+16,1834424756305508.8,2398076290198054.0,2345102226065.933,5789919642968.652,122288913326840.6,3386671380017325.5
11.733257020663602,1.2103685841219852e+16,2.0044060109730876e+16,1855187156305319.8,2425218215484760.0,2440360470323.571,6025112173062.728,127256452066226.97,3524246972011308.5
12.067922161076874,1.2238691321951592e+16,2.037392374200119e+16,1875880062415356.5,2452269293963984.0,2538445696824.018,6267284914028.618,132371423126467.28,3665905909932912.5
12.409280604298411,1.2373243431758152e+16,2.0707512653455344e+16,1896503478297178.8,2479229530422379.0,2639423486220.557,6516599816245.085,137637247238194.86,3811742942436974.0
12.75746621638438,1.2507341494581578e+16,2.1044926259875436e+16,1917057300328312.0,2506098789398115.0,2743360707648.605,6773222013100.25,143057412367398.12,3961854680479282.5
13.112615540712067,1.264098417272049e+16,2.1386265040906284e+16,1937541323473157.2,2532876802855719.5,2850325535688.7363,7037319862955.226,148635474601951.78,4116339621856341.5
13.474867851526309,1.2774169503155958e+16,2.1731630615119204e+16,1957955246850869.5,2559563177464699.0,2960387467600.0713,7309064991778.601,154375059052317.84,4275298176136004.5
13.844365208556836,1.290689493208562e+16,2.2081125813065176e+16,1978298679028512.0,2586157401519159.0,3073617340829.9463,7588632336466.692,160279860766733.9,4438832689987833.5
14.221252512727972,1.3039157347829992e+16,2.2434854748550212e+16,1998571143064766.0,2612658851531220.0,3190087350806.8286,7876200188866.811,166353645661262.94,4607047472923286.0
14.605677562982532,1.3170953112259818e+16,2.2792922888346788e+16,2018772081326983.8,2639066798528154.5,3309871069024.6377,8171950240523.812,172600251465112.7,4780048823457204.0
14.997791114242183,1.330227809087795e+16,2.3155437120534652e+16,2038900860101921.5,2665380414079877.5,3433043461427.186,8476067628171.749,179023588681708.97,4957945055703613.0
15.397746936527026,1.3433127681674524e+16,2.352250582164689e+16,2058956774018534.0,2691598776080667.5,3559680907102.858,8788740979995.449,185627641566027.62,5140846526419991.0
15.805701875257567,1.3563496842863196e+16,2.3894238922783452e+16,2078939050299218.0,2717720874306711.0,3689861217299.9565,9110162462688.41,192416469118756.22,5328865662515612.0
16.221815912762718,1.3693380119594634e+16,2.4270747974840216e+16,2098846852854333.8,2743745615768634.0,3823663654774.636,9440527829336.133,199394206097890.66,5522116989040627.0
16.64625223101797,1.3822771669733726e+16,2.4652146212987604e+16,2118679286233183.0,2769671829876544.0,3961168953483.7354,9780036468155.656,206565064048427.6,5720717157674105.0
17.079177275638333,1.3951665288778032e+16,2.503854862052599e+16,2138435399443357.8,2795498273432911.0,4102459338635.8594,10128891452124.588,213933332350842.3,5924784975730103.0
17.5207608211511,1.408005443398647e+16,2.5430071992230852e+16,2158114189649081.5,2821223635467240.5,4247618547114.783,10487299589534.496,221503379289104.16,6134441435702282.0
17.97117603757412,1.420793224778073e+16,2.5826834997295136e+16,2177714605758034.2,2846846541925033.5,4396731848290.263,10855471475505.72,229279653138995.53,6349809745368588.0
18.430599558325603,1.4335291580474392e+16,2.622895824196757e+16,2197235551905156.2,2872365560222041.5,4549886065231.778,11233621544502.709,237266683277579.97,6571015358478647.0
18.899211549492115,1.4462125012379372e+16,2.6636564331976828e+16,2216675890840991.5,2897779203673672.5,4707169596341.669,11621968123890.588,245469081314657.16,6798186006047916.0
19.37719578048196,1.4588424875333028e+16,2.7049777934828816e+16,2236034447231253.5,2923085935808463.5,4868672437425.052,12020733488575.64,253891542247130.06,7031451728282954.0
19.864739696091597,1.4714183273685166e+16,2.7468725842054372e+16,2255310010873602.5,2948284174573168.5,5034486204214.127,12430143916774.15,262538845637202.47,7270944907164231.0
20.36203449001343,1.4839392104778762e+16,2.7893537031482828e+16,2274501339836834.0,2973372296436590.0,5204704155365.701,12850429746955.898,271415856815394.84,7516800299712945.0
20.869275179813698,1.4964043078954658e+16,2.8324342729610812e+16,2293607163527037.0,2998348640397819.5,5379421215951.089,13281825436009.55,280527528109384.28,7769155071969938.0
21.38666068340997,1.5088127739106104e+16,2.876127647413059e+16,2312626185684874.5,3023211511904458.0,5558734001458.231,13724569618680.291,289878900099711.8,8028148833715321.0
21.91439389707817,1.5211637479806266e+16,2.920447417668149e+16,2331557087317290.0,3047959186685140.0,5742740842326.703,14178905168329.412,299475102903427.1,8293923673958661.0
22.452681775019734,1.533456356602786e+16,2.9654074185880036e+16,2350398529566780.0,3072589914500449.5,5931541809036.543,14645079259069.508,309321357486796.2,8566624197230074.0
23.00173541052013,1.545689715147144e+16,3.0110217350686304e+16,2369149156520662.5,3097101922815327.5,6125238737772.727,15123343429328.082,319422977008178.06,8846397560703601.0
23.561770118730532,1.5578629296516976e+16,3.057304708415658e+16,2387807597962549.5,3121493420396036.5,6323935256687.343,15613953646895.033,329785368192268.1,9133393512185188.0
24.133005521105144,1.5699750985809336e+16,3.104270942763386e+16,2406372472067822.5,3145762600833791.0,6527736812782.268,16117170375510.557,340414032736875.7,9427764428997734.0
24.715665631527248,1.582025314548763e+16,3.1519353115421916e+16,2424842388044402.5,3169907645996954.5,6736750699435.45,16633258643050.752,351314568753455.0,9729665357797030.0
25.309978944157795,1.5940126660065604e+16,3.2003129639990556e+16,2443215948720101.0,3193926729413433.5,6951086084594.488,17162488111369.473,362492672242641.4,1.0039254055352814e+16
25.91617852304095,1.6059362388968594e+16,3.249419331775282e+16,2461491753077296.5,3217818019584124.0,7170854039661.418,17705133147856.668,373954138606038.75,1.0356691030329224e+16
26.53450209350177,1.617795118273081e+16,3.299270135545872e+16,2479668398735606.5,3241579683228421.5,7396167569093.118,18261472898772.637,385704864195535.3,1.0682139586100506e+16
27.165192135371807,1.6295883898855506e+16,3.3498813917244584e+16,2497744484382821.5,3265209888462113.5,7627141640742.182,18831791364421.09,397750847901476.06,1.1015765864637478e+16
27.808495978079243,1.64131514173392e+16,3.40126941923765e+16,2515718612154359.5,3288706807907924.0,7863893216962.9795,19416377476221.73,410098192780950.0,1.1357738891500856e+16
28.464665897640828,1.6529744655859456e+16,3.453450846372768e+16,2533589389961214.5,3312068621738771.5,8106541286508.572,20015525175746.387,422753107727580.9,1.1708230621978348e+16
29.133959215593645,1.6645654584625698e+16,3.5064426177024556e+16,2551355433766136.0,3335293520653353.5,8355206897243.606,20629533495781.027,435721909184115.7,1.2067415988402204e+16
29.816638399905518,1.6760872240890268e+16,3.5602620010898664e+16,2569015369807860.0,3358379708783759.5,8610013189699.134,21258706643478.523,449011022899179.7,1.2435472948684458e+16
30.51297116790363,1.687538874311733e+16,3.614926594777892e+16,2586567836772849.5,3381325406534543.0,8871085431495.084,21903354085665.453,462626985729560.4,1.2812582536107424e+16
31.223230591261704,1.698919530480617e+16,3.670454334565803e+16,2604011487914018.0,3404128853352443.5,9138551052656.398,22563790636369.004,476576447489373.8,1.3198928910406992e+16
31.947695203086937,1.710228324796439e+16,3.726863501076832e+16,2621344993115827.0,3426788310425998.0,9412539681848.707,23240336546626.035,490866172847474.8,1.3594699410186194e+16
32.686649107148675,1.7214644016226236e+16,3.7841727271197224e+16,2638567040905055.0,3449302063314135.5,9693183183559.852,23933317596642.535,505503043274513.5,1.4000084606697154e+16
33.44038208929165,1.7326269187612074e+16,3.842401005147781e+16,2655676340406387.5,3471668424502734.0,9980615696253.072,24643065190365.56,520494059040971.06,1.4415278359029028e+16
34.20918973107749,1.7437150486922252e+16,3.9015676948183656e+16,2672671623242186.0,3493885735888013.0,10274973671517.95,25369916452534.027,535846341267567.4,1.484047787073961e+16
34.993373525699035,1.754727979776111e+16,3.96169253065623e+16,2689551645375423.5,3515952371185752.0,10576395914245.148,26114214328272.44,551567134029402.06,1.5275883747968138e+16
35.793240996213015,1.765664917418489e+16,4.022795629823655e+16,2706315188895012.0,3537866738265249.5,10885023623850.459,26876307685291.6,567663806515178.4,1.5721700059067062e+16
36.60910581613728,1.776525085196804e+16,4.084897500000512e+16,2722961063742625.5,3559627281406688.0,11201000436574.393,27656551418760.96,584143855242888.1,1.6178134395789602e+16
37.44128793246003,1.7873077259482142e+16,4.1480190473774664e+16,2739488109380192.5,3581232483480978.5,11524472468882.031,28455306558916.035,601014906333261.0,1.6645397936070308e+16
38.29011369110923,1.798012102818235e+16,4.212181584765163e+16,2755895196397182.0,3602680868050924.0,11855588361989.059,29272940381463.203,618284717842359.5,1.7123705508435394e+16
39.15591596493141,1.808637500269536e+16,4.277406839822653e+16,2772181228056827.5,3623971001392560.5,12194499327538.686,30109826520846.05,635961182154607.1,1.761327565807879e+16
40.03903428423004,1.8191832250504136e+16,4.343716963407906e+16,2788345141780577.0,3645101494435678.0,12541359194454.367,30966345086432.48,654052328437553.6,1.8114330714640104e+16
40.93981496991464,1.82964860712247e+16,4.411134538053571e+16,2804385910569966.0,3666071004622614.0,12896324456992.25,31842882781686.56,672566325159707.9,1.8627096861720012e+16
41.85861126931294,1.8400330005469684e+16,4.4796825865709944e+16,2820302544365164.5,3686878237684233.5,13259554324018.227,32739833026383.086,691511482672651.1,1.9151804208167788e+16
42.7957834946992,1.850335784329538e+16,4.549384580785357e+16,2836094091339726.5,3707521949332483.0,13631210769532.691,33657596081925.316,710896255858747.8,1.968868686117572e+16
