t(s),Total solute volume 1,Total retention volume 1,Total 1 volume 1,Total 2 volume 1,Total 3 volume 1,Total 4 volume 1,Total 5 volume 1,Total 6 volume 1
0.1,1343181032126672.5,2872917611672401.5,563076449980376.4,966660129565354.2,0.0,0.0,0.0,-1.5603494592410886e-89
0.202,2012995685034274.0,4318862183374406.0,843870249403852.6,1448712486969426.2,2436189092.6204753,9144864415.37167,357616443070.76086,12914564470274.467
0.30604000000000003,2521929129474078.0,5428102384504071.0,1057220831818198.0,1814981689005153.0,6165231635.431576,23143166040.29636,905840496414.5176,33035585312553.242
0.41216080000000005,2950213786282821.5,6370661218983717.0,1236762540454746.8,2123209560075741.5,10926811230.79921,41017549279.85165,1606043393597.3108,58817344416301.22
0.5204040160000001,3328431584727875.0,7211262394034218.0,1395315662814723.8,2395405314228526.5,16602156871.421621,62322140548.401535,2440709415916.378,89590198549761.23
0.6308120963200001,3671886252794090.0,7982262287085491.0,1539295692805954.8,2642582740355221.5,23125139993.02762,86808694155.33339,3400097180943.1685,124987570115133.44
0.7434283382464002,3989489644335062.5,8702495485351408.0,1672438579133616.8,2871155521715762.0,30455664948.93256,114326693012.01677,4478302954986.861,164788654854015.9
0.8582969050113283,4286955687480958.5,9384042328067958.0,1797139664281827.5,3085235858015072.0,38568696953.91914,144782158424.70233,5671641678045.588,208856125756667.34
0.9754628431115548,4568200310442014.0,1.0035192054261396e+16,1915040549077590.0,3287641964299242.0,47448838751.89219,178117290721.82156,6977847543591.675,257105816769495.88
1.094972099973786,4836041690277268.0,1.0661923375335416e+16,2027322644804045.0,3480402026066034.5,57087316228.23124,214299153246.5908,8395629899618.115,309489997818973.5
1.2168715419732616,5092585299957261.0,1.1268717720168178e+16,2134868589231930.0,3665031309954218.0,67480158818.77861,253312841653.55484,9924405259693.604,365987322764599.06
1.3412089728127268,5339451305083188.0,1.1859039001432088e+16,2238357573864448.2,3842695816617133.5,78627031697.67873,295157099985.2142,11564125344325.182,426596396391313.0
1.4680331522689813,5577916575900846.0,1.243563292447481e+16,2338324876959482.0,4014314483926826.0,90530449956.15958,339841370736.99414,13315161387720.23,491331454479256.0
1.597393815314361,5809007456698110.0,1.300072231408017e+16,2435200753496892.0,4180625951251008.0,103195229577.1654,387383733847.29803,15178223316660.844,560219350354080.3
1.729341691620648,6033562653606340.0,1.3556139396776592e+16,2529336798447004.5,4342233818543005.0,116628091981.6409,437809422189.84906,17154301542112.223,633297387123974.0
1.863928525453061,6252277209474627.0,1.4103418214574194e+16,2621024381528743.0,4499638294176764.5,130837371945.18423,491149725113.83307,19244623969983.188,710611718327006.4
2.001207095962122,6465734076077058.0,1.464386091591999e+16,2710507882631428.5,4653258916830887.0,145832797297.0317,547441161451.3379,21450623579438.69,792216142842436.9
2.1412312378813647,6674427302844018.0,1.517858640397519e+16,2797994412789704.0,4803451243953174.0,161625319805.88162,606724844677.4307,23773913536240.742,878171180687572.1
2.284055862638992,6878779408572948.0,1.5708566753366138e+16,2883661096598630.0,4950519353831988.0,178226983410.2859,669045988259.6024,26216267803133.633,968543353587757.2
2.4297369798917723,7079154623591847.0,1.6234654950815432e+16,2967660623476373.5,5094725375715488.0,195650820242.86838,734453515343.5795,28779605841228.797,1063404617854899.8
2.578331719489608,7275869140709495.0,1.6757606356392708e+16,3050125544976972.5,5236296867214526.0,213910767705.9664,802999747464.8802,31465980409845.934,1162831912566688.5
2.7298983538794,7469199160428839.0,1.7278095538055806e+16,3131171647433578.0,5375432604281243.0,233021601741.88513,874740154053.942,34277567749880.316,1266906796406463.5
2.884496320956988,7659387283449875.0,1.7796729642278888e+16,3210900631766988.5,5512307181764793.0,252998882736.04163,949733149364.3184,37216659626426.92,1375715153638701.2
3.0421862473761276,7846647646918627.0,1.831405913380025e+16,3289402266658562.0,5647074709866668.0,273858911398.9471,1028039926860.8292,40285656840014.72,1489346954678126.0
3.2030299723236504,8031170093296794.0,1.8830586511067724e+16,3366756136186850.5,5779871814392318.0,295618692620.76294,1109724323536.2324,43487063911158.34,1607896060264433.0
3.3670905717701234,8213123585461344.0,1.9346773445624156e+16,3443033071475514.5,5910820094529740.0,318295905762.06006,1194852708389.0645,46823484712104.05,1731460060831287.5
3.5344323832055258,8392659028121032.0,1.986304668114574e+16,3518296333462584.5,6040028153366240.0,341908880190.4042,1283493890593.978,50297618870574.04,1860140144554508.5
3.7051210308696363,8569911617004626.0,2.0379802946668896e+16,3592602597706371.0,6167593288551938.0,366476575130.5556,1375719043865.1938,53912258808312.016,1994040988978670.5
3.879223451487029,8745002809008581.0,2.0897413079180336e+16,3666002780293373.5,6293602910175505.0,392018563091.1595,1471601644245.9097,57670287305944.94,2133270672189597.2
4.0568079205167695,8918041985548725.0,2.141622550678671e+16,3738542735133864.0,6418135737844872.0,418555016279.85645,1571217419116.1204,61574675507616.68,2277940600316267.0
4.237944078927105,9089127865662016.0,2.1936569210752656e+16,3810263846349894.5,6541262817668216.0,446106695533.8776,1674644305643.493,65628481295790.914,2428165448775549.5
4.422702960505647,9258349713512728.0,2.245875625976275e+16,3881203534475386.5,6663048391271787.0,474694941382.9584,1781962417238.9092,69834847979835.21,2584063115164397.0
4.61115701971576,9425788375857306.0,2.2983083990699484e+16,3951395691372969.0,6783550642442640.0,504341666932.0609,1893254016843.5366,74197003252391.9,2745754682090387.0
4.803380160110075,9591517177995908.0,2.350983689551189e+16,4020871055826811.5,6902822341926775.0,535069352307.4621,2008603496084.8015,78718258375799.52,2913364388538185.5
4.9994477633122765,9755602701264472.0,2.403928826229732e+16,4089657539476109.5,7020911406974748.0,566901040454.6182,2128097359506.9202,83402007567421.9,3087019608614577.0
5.199436718578522,9918105460824688.0,2.457170160972779e+16,4157780510952041.0,7137861389133260.0,599860334112.3961,2251824213217.574,88251727558072.16,3266850836712379.0
5.403425452950093,1.0079080499107346e+16,2.5107331946845036e+16,4225263044655926.5,7253711901334558.0,633971393817.5875,2379874757402.303,93270977302027.72,3452991678293941.0
5.611493962009095,1.0238577907556614e+16,2.5646426884587668e+16,4292126139480252.5,7368498993385257.0,669258936817.6304,2512341782248.403,98463397820676.69,3645578845625787.5
5.823723841249277,1.0396643287148966e+16,2.61892276208772e+16,4358388911863315.0,7482255483392467.0,705748236789.1902,2649320166894.0728,103832712164722.55,3844752157904050.5
6.040198318074262,1.0553318156406072e+16,2.6735969817428276e+16,4424068766832802.0,7595011251402616.0,743465124276.5938,2790906881079.9893,109382725482296.03,4050654545299153.5
6.261002284435747,1.0708640314196982e+16,2.7286884383478244e+16,4489181550096502.5,7706793500502758.0,782435987777.6799,2937200989231.419,115117325182305.97,4263432056522698.0
6.486222330124463,1.0862644163461422e+16,2.784219817920753e+16,4553741683750689.0,7817626989797693.0,822687775416.0549,3088303656741.752,121040481184051.45,4483233869581499.5
6.715946776726952,1.1015361001030638e+16,2.8402134649632424e+16,4617762287776341.0,7927534242988354.0,864247997148.2946,3244318158264.3823,127156246245515.97,4710212305436170.0
6.950265712261491,1.1166819277935466e+16,2.8966914398113668e+16,4681255289163111.0,8036535735710160.0,907144727462.7302,3405349887850.164,133468756363965.56,4944522844325665.0
7.18927102650672,1.1317044833936616e+16,2.9536755707263324e+16,4744231520227053.0,8144650064319699.0,951406608533.423,3571506370793.6777,139982231243483.8,5186324144557153.0
7.433056447036854,1.1466061109468716e+16,3.0111875013903776e+16,4806700807459949.0,8251894098426738.0,997062853798.743,3742897277073.739,146700974824945.0,5435778063592521.0
7.681717575977592,1.16138893377345e+16,3.0692487343785784e+16,4868672052057295.0,8358283119140412.0,1044143251939.0822,3919634436292.3193,153629375874674.44,5693049681290688.0
7.935351927497144,1.1760548719302696e+16,3.12788067109809e+16,4930153303111773.0,8463830944723913.0,1092678171232.6079,4101831854032.8633,160771908628685.6,5958307325188539.0
8.194058966047088,1.1906056581241302e+16,3.187104648619227e+16,4991151824323595.0,8568550045119419.0,1142698564271.7249,4289605729572.8203,168133133489939.94,6231722597724173.0
8.45794014536803,1.2050428522543848e+16,3.246941973766584e+16,5051674154964836.0,8672451646608489.0,1194235973026.2192,4483074474897.844,175717697776566.47,6513470405324199.0
8.72709894827539,1.219367854737552e+16,3.30741395479007e+16,5111726165737752.0,8775545827706576.0,1247322534241.9417,4682358734975.851,183530336519395.8,6803728989292250.0
9.0016409272409,1.2335819187467056e+16,3.3685419308950596e+16,5171313110083637.0,8877841607247552.0,1301990985166.4324,4887581409258.449,191575873307537.62,7102679958450360.0
9.281673745785717,1.2476861614816118e+16,3.430347299875839e+16,5230439671428458.0,8979347025492477.0,1358274669595.098,5098867674386.144,199859221181061.78,7410508323496267.0
9.567307220701432,1.2616815745709394e+16,3.492851544066557e+16,5289110006790110.0,9080069218992326.0,1416207544233.4766,5316345008080.226,208385383570124.75,7727402533051268.0
9.85865336511546,1.27556903369552e+16,3.556076254798184e+16,5347327787120198.0,9180014489844526.0,1475824185372.9985,5540143214211.757,217159455280152.72,8053554511382159.0
10.155826432417769,1.2893493075106708e+16,3.620043155527738e+16,5405096234707438.0,9279188369905330.0,1537159795879.0269,5770394449043.217,226186623522903.88,8389159697790014.0
10.458942961066125,1.3030230659364086e+16,3.684774123786778e+16,5462418157931093.0,9377595680452574.0,1600250212491.5034,6007233248643.73,235472168993453.28,8734417087665449.0
10.768121820287448,1.3165908878761482e+16,3.75029121207976e+16,5519295983618663.0,9475240587735718.0,1665131913439.6226,6250796557483.584,245021466993310.06,9089529275217492.0
11.083484256693197,1.3300532684174762e+16,3.816616667847905e+16,5575731787232338.0,9572126654798430.0,1731842026373.1846,6501223758217.762,254839988600052.94,9454702497888826.0
11.405153941827061,1.3434106255624448e+16,3.883772952602209e+16,5631727321083089.0,9668256889914980.0,1800418336614.138,6758656702671.802,264933301884001.62,9830146682476224.0
11.733257020663602,1.356663306529386e+16,3.951782760317711e+16,5687284040748664.0,9763633791943312.0,1870899295732.8342,7023239744046.857,275307073172584.12,1.021607549297893e+16
12.067922161076874,1.3698115936635888e+16,4.0206690351718056e+16,5742403129851704.0,9858259392862868.0,1943324030454.1765,7295119770363.55,285967068363171.8,1.0612706380203614e+16
12.409280604298411,1.3828557099900012e+16,4.090454988700724e+16,5797085523337338.0,9952135297736272.0,2017732351899.6821,7574446239167.207,296919154285251.4,1.1020260633157328e+16
12.75746621638438,1.395795824437465e+16,4.1611641164411416e+16,5851331929373833.0,1.004526272230726e+16,2094164765172.0264,7861371213518.967,308169300112916.56,1.143896343226403e+16
13.112615540712067,1.4086320567608408e+16,4.232820214116973e+16,5905142849986542.0,1.0137642528423978e+16,2172662479289.191,8156049399299.913,319723578828721.7,1.1869043904443502e+16
13.474867851526309,1.4213644821844246e+16,4.3054473934260424e+16,5958518600523715.0,1.0229275257456914e+16,2253267417475.9873,8458638183856.891,331588168740029.94,1.2310735180094154e+16
13.844365208556836,1.4339931357876818e+16,4.379070097475817e+16,6011459328041999.0,1.0320161161862082e+16,2336022227820.9043,8769297676020.472,343769355049057.3,1.2764274452024382e+16
14.221252512727972,1.4465180166519992e+16,4.45371311591324e+16,6063965028690015.0,1.041030023502425e+16,2420970294306.992,9088190747527.04,356273531477849.4,1.3229903036378406e+16
14.605677562982532,1.4589390917852258e+16,4.5294015997893736e+16,6116035564160575.0,1.049969223950134e+16,2508155748225.427,9415483075878.336,369107201949519.8,1.370786643560592e+16
14.997791114242183,1.4712562998390592e+16,4.6061610761963416e+16,6167670677274228.0,1.0588336733777338e+16,2597623479981.021,9751343188672.559,382276982327067.0,1.4198414403525474e+16
15.397746936527026,1.483469554632678e+16,4.684017462710548e+16,6218870006750906.0,1.0676233097621616e+16,2689419151299.1167,10095942509442.842,395789602211192.8,1.4701801012534212e+16
15.805701875257567,1.4955787484947616e+16,4.762997081673611e+16,6269633101219893.0,1.0763380556140344e+16,2783589207843.426,10449455405038.805,409651906798518.4,1.5218284723016856e+16
16.221815912762718,1.5075837554347148e+16,4.843126674339821e+16,6319959432514026.0,1.0849778202599506e+16,2880180892254.6475,10812059234588.27,423870858801647.4,1.574812845500907e+16
16.64625223101797,1.5194844341528908e+16,4.924433414916705e+16,6369848408288860.0,1.0935425020088638e+16,2979242257619.7993,11183934400076.799,438453540432564.2,1.629159966217038e+16
17.079177275638333,1.5312806308985646e+16,5.006944924523298e+16,6419299384003610.0,1.1020319902089072e+16,3080822181382.494,11565264398582.215,453407155450827.75,1.6848970408123796e+16
17.5207608211511,1.5429721821835644e+16,5.0906892850889e+16,6468311674297068.0,1.1104461672003768e+16,3184970379704.012,11956235876203.195,468739031278091.06,1.7420517445218446e+16
17.97117603757412,1.5545589173587914e+16,5.17569505321358e+16,6516884563788495.0,1.1187849101699546e+16,3291737422285.795,12357038683719.453,484456621180427.7,1.8006522295773392e+16
18.430599558325603,1.5660406610599602e+16,5.261991274010159e+16,6565017317330676.0,1.1270480929108896e+16,3401174747663.218,12767865934022.854,500567506520000.7,1.8607271335860748e+16
18.899211549492115,1.5774172355285398e+16,5.349607494946151e+16,6612709189739332.0,1.1352355874933206e+16,3513334678981.2363,13188914061357.268,517079399077583.4,1.9223055881685656e+16
19.37719578048196,1.5886884628131056e+16,5.438573779703023e+16,6659959435021563.0,1.143347265848534e+16,3628270440261.849,13620382882406.3,534000143447438.9,1.985417227862217e+16
19.864739696091597,1.5998541668559526e+16,5.5289207220691016e+16,6706767315123146.0,1.151383001270693e+16,3746036173173.9077,14062475659266.592,551337719506082.9,2.0500921992962816e+16
20.36203449001343,1.6109141754694328e+16,5.620679459881463e+16,6753132108213512.0,1.1593426698391314e+16,3866686954315.094,14515399164345.469,569100244956410.9,2.116361170644041e+16
20.869275179813698,1.6218683222059372e+16,5.713881689031439e+16,6799053116525082.0,1.1672261517641718e+16,3990278813016.3696,14979363747220.379,587295977948701.2,2.184255341357935e+16
21.38666068340997,1.6327164481253226e+16,5.8085596775474264e+16,6844529673762197.0,1.175033332659078e+16,4116868749678.846,15454583403497.852,605933319779959.9,2.2538064521934892e+16
21.91439389707817,1.6434584034630808e+16,5.904746279768228e+16,6889561152094646.0,1.1827641047406298e+16,4246514754652.8496,15941275845708.902,625020817673074.8,2.3250467955277096e+16
22.452681775019734,1.6540940492025002e+16,6.002474950619541e+16,6934146968748088.0,1.1904183679605644e+16,4379275827669.0806,16439662576277.928,644567167637203.9,2.39800922597755e+16
23.00173541052013,1.664623258553659e+16,6.101779760005402e+16,6978286592204233.0,1.197996031069985e+16,4515211997831.394,16949968962600.82,664581217410880.9,2.4727271713241956e+16
23.561770118730532,1.6750459183420242e+16,6.202695407326276e+16,7021979548022037.0,1.2054970126186908e+16,4654384344180.786,17472424314268.744,685071969489174.6,2.5492346437485936e+16
24.133005521105144,1.6853619303092082e+16,6.3052572361349176e+16,7065225424290561.0,1.212921241891336e+16,4796855016839.931,18007261962471.63,706048584236330.5,2.627566251383746e+16
24.715665631527248,1.6955712123282986e+16,6.409501248940507e+16,7108023876723823.0,1.2202686597820494e+16,4942687258747.314,18554719341617.28,727520383085267.8,2.707757210189209e+16
25.309978944157795,1.7056736995360568e+16,6.5154641221717496e+16,7150374633407051.0,1.2275392196092766e+16,5091945427990.313,19115038073198.824,749496851825225.9,2.789843356153074e+16
25.91617852304095,1.7156693453841856e+16,6.623183221308765e+16,7192277499203763.0,1.2347328878723478e+16,5244695020745.717,19688464051945.04,771987643978936.4,2.8738611578266972e+16
26.53450209350177,1.725558122611754e+16,6.732696616193602e+16,7233732359832270.0,1.2418496449513074e+16,5401002694836.842,20275247534285.453,795002584270575.2,2.9598477291973484e+16
27.165192135371807,1.7353400241408424e+16,6.844043096529155e+16,7274739185620263.0,1.2488894857515104e+16,5560936293915.419,20875643229162.98,818551672185761.2,3.047840842903904e+16
27.808495978079243,1.7450150638973294e+16,6.9572621875755656e+16,7315298034945750.0,1.2558524202943072e+16,5724564872276.875,21489910391225.35,842645085624899.4,3.1378789438005136e+16
28.464665897640828,1.7545832775588334e+16,7.072394166053423e+16,7355409057372409.0,1.2627384742553356e+16,5891958720317.153,22118312916426.715,867293184651032.0,3.23000116287324e+16
29.133959215593645,1.7640447232316024e+16,7.189480076262829e+16,7395072496487242.0,1.269547689451666e+16,6063189390639.291,22761119440069.285,892506515333424.6,3.324247331514419e+16
29.816638399905518,1.773399482058302e+16,7.308561746427027e+16,7434288692448501.0,1.2762801242792012e+16,6238329724817.479,23418603437315.906,918295813688092.2,3.4206579961596532e+16
30.51297116790363,1.7826476587585046e+16,7.4296818052696e+16,7473058084251427.0,1.2829358541016738e+16,6417453880826.7705,24091043326201.188,944672009716390.2,3.519274433291917e+16
31.223230591261704,1.7917893821037204e+16,7.552883698833518e+16,7511381211719665.0,1.2895149715925048e+16,6600637361145.55,24778722573172.535,971646231542808.6,3.620138664817614e+16
31.947695203086937,1.8008248053288014e+16,7.678211707551162e+16,7549258717229979.0,1.2960175870308978e+16,6787957041538.961,25481929801186.902,999229809653137.4,3.7232934738188936e+16
32.686649107148675,1.8097541064815492e+16,7.805710963573178e+16,7586691347177700.0,1.3024438285534242e+16,6979491200530.199,26200958900393.188,1027434281234058.8,3.828782420686919e+16
33.44038208929165,1.8185774887123572e+16,7.935427468364965e+16,7623679953191058.0,1.3087938423624922e+16,7175319549567.453,26936109141427.176,1056271394615284.5,3.9366498596403736e+16
34.20918973107749,1.8272951805056884e+16,8.067408110579362e+16,7660225493101545.0,1.3150677928929242e+16,7375523263893.223,27687685291345.918,1085753113815310.6,4.046940955633531e+16
34.993373525699035,1.835907435855261e+16,8.201700684213373e+16,7696329031678287.0,1.3212658629380576e+16,7580185014123.79,28455997732229.855,1115891623191861.9,4.1597017016584104e+16
35.793240996213015,1.844414534384801e+16,8.338353907057776e+16,7731991741134257.0,1.3273882537366182e+16,7789388998545.493,29241362582477.48,1146699332198085.0,4.274978936445028e+16
36.60910581613728,1.852816781416171e+16,8.477417439447584e+16,7767214901411924.0,1.3334351850217732e+16,8003220976135.088,30044101820821.832,1178188880245503.5,4.392820362564201e+16
37.44128793246003,1.8611145079867892e+16,8.618941903321805e+16,7801999900256189.0,1.3394068950336574e+16,8221768300311.261,30864543413092.8,1210373141674904.0,4.5132745649369144e+16
38.29011369110923,1.869308070818186e+16,8.762978901601042e+16,7836348233082636.0,1.3453036404967572e+16,8445119953424.135,31703021441753.332,1243265230836009.0,4.636391029754715e+16
39.15591596493141,1.877397852237612e+16,8.909581037890749e+16,7870261502648924.0,1.3511256965634814e+16,8673366581990.208,32559876238235.76,1276878507277153.5,4.76222016381503e+16
40.03903428423004,1.8853842600545844e+16,9.058801936519042e+16,7903741418537183.0,1.3568733567253196e+16,8906600532679.166,33435454518104.33,1311226581045956.8,4.890813314275747e+16
40.93981496991464,1.8932677273942624e+16,9.210696262917086e+16,7936789796455548.0,1.3625469326929268e+16,9144915889060.383,34330109519071.348,1346323318102007.5,5.022222788833335e+16
