t(s),Total solute volume 1,Total retention volume 1,Total 1 volume 1,Total 2 volume 1,Total 3 volume 1,Total 4 volume 1,Total 5 volume 1,Total 6 volume 1
0.1,839524706393360.9,941664656952722.2,50673114377222.37,51466836182138.266,0.0,0.0,0.0,0.0
0.202,1264006456223401.2,1419717348790771.2,76294531081868.03,77489575917849.3,4882793550.957436,8175914096.4472,96479860949.63705,1817246999057.5972
0.30604000000000003,1586490042510163.0,1784393789754693.5,95759411099245.56,97259345499725.11,12379275059.454483,20728333753.74157,244604982052.24387,4607278054692.45
0.41216080000000005,1858594877342691.2,2093389156532686.5,112183465488496.36,113940659250209.34,21971342285.40785,36789763857.82534,434138381448.28625,8177254963696.861
0.5204040160000001,2099644157348429.8,2368285900956843.0,126733028664870.98,128718120556752.36,33426657652.23204,55971199406.32944,660489604070.4686,12440706925659.41
0.6308120963200001,2319266088424303.0,2619833637351853.5,139989252292392.78,142181983996379.72,46618515202.87211,78060507335.82613,921155385837.4827,17350478230401.45
0.7434283382464002,2523056596667338.0,2854279736904147.0,152289902492351.06,154675306314998.25,61472461908.33576,102933048563.40031,1214664940371.4243,22878860978611.71
0.8582969050113283,2714599783851067.5,3075626938342946.0,163851313099924.1,166417809908637.16,77944348627.61406,130514926364.36473,1540146269347.5974,29009425938977.656
0.9754628431115548,2896350624839516.5,3286619165465120.5,174821664652679.28,177559996351488.06,96009503376.18172,160764858099.52298,1897112239084.6282,35732993020883.43
1.094972099973786,3070075625900534.5,3489233427933200.0,185307582213134.47,188210160835457.75,115656726018.99869,193664119992.8169,2285341923612.676,43045396214450.64
1.2168715419732616,3237094791823966.5,3684949799982426.5,195388740332006.8,198449225899345.28,136884671794.20056,229210491791.6943,2704809148536.897,50946137614982.67
1.3412089728127268,3398424368615248.5,3874910616490231.5,205126478895725.6,208339492231315.47,159699536936.54678,267414381675.78802,3155636763005.28,59437526066331.62
1.4680331522689813,3554865907460288.0,4060019760504075.0,214569178964043.88,217930098711335.84,184113506960.28217,308296228170.1556,3638065981013.428,68524099652262.81
1.597393815314361,3707064400027389.5,4241007445680745.5,223755771775525.97,227260586380229.56,210143677504.24796,351884693322.46313,4152435060045.8945,78212224066727.81
1.729341691620648,3855547660078231.0,4418474084293126.0,232718115793598.2,236363312718756.6,237811281571.03412,398215368911.3723,4699164033759.322,88509805018298.36
1.863928525453061,4000753843297319.0,4592920931681752.0,241482657783887.25,245265138743359.28,267141122988.5243,447329827958.6088,5278743519433.964,99426077386801.06
2.001207095962122,4143051193065086.5,4764772067347100.0,250071624655046.0,253988639515472.44,298161153099.3067,499274916066.77203,5891726355498.362,110971447686831.62
2.1412312378813647,4282752534244343.0,4934390525398471.0,258503898293402.06,262552992679208.72,330902149627.46704,554102213848.2554,6538721258022.942,123157374560017.81
2.284055862638992,4420126124569637.5,5102090368896130.0,266795670545105.88,270974643702863.22,365397470146.6896,611867624272.1708,7220387951315.427,135996277032787.28
2.4297369798917723,4555403921437215.0,5268145887075916.0,274960942193691.16,279267812672251.12,401682861131.9986,672631053086.465,7937433396857.105,149501463461689.47
2.578331719489608,4688787977337170.0,5432798710178144.0,283011908983820.8,287444886360958.4,439796309175.3885,736456159845.5363,8690608855425.765,163687076171750.22
2.7298983538794,4820455455871481.0,5596263389863063.0,290959264384560.0,295516725735972.94,479777924702.31995,803410163363.9685,9480707591480.492,178568048191505.16
2.884496320956988,4950562614579101.0,5758731830761618.0,298812439989876.1,303492910123712.7,521669851105.073,873563689735.2906,10308563079841.854,194160069448235.78
3.0421862473761276,5079248002676132.0,5920376849372490.0,306579798531954.7,311381933246622.56,565516194015.5499,946990654079.6221,11175047610396.459,210479560459283.03
3.2030299723236504,5206635054427177.0,6081355061434590.0,314268790415259.9,319191362209110.56,611362966728.7142,1023768169341.8112,12081071212017.623,227543652034943.53
3.3670905717701234,5332834211734342.0,6241809246408362.0,321886081834485.8,326927967622294.25,659258048722.1838,1103976477025.8823,13027580835352.93,245370169856136.84
3.5344323832055258,5457944658953227.0,6401870301314449.0,329437659487996.2,334597829960349.8,709251152776.2189,1187698893133.554,14015559879490.42,263977642987476.1
3.7051210308696363,5582055848795044.0,6561658863578481.0,336928922675463.44,342206433089701.56,761393811572.5757,1275021782761.1565,15046027236249.287,283385216187691.2
3.879223451487029,5705248618758434.0,6721286677447120.0,344364750692057.2,349758732735555.8,815739350558.5437,1366034519624.412,16120037794436.635,303612763596449.8
4.0568079205167695,5827596290275029.0,6880857743926150.0,351749569167262.44,357259223848567.94,872342888131.2275,1460829483437.5938,17238681756201.129,324680806507530.75
4.237944078927105,5949165523936074.0,7040469298798811.0,359087401686980.3,364711993038362.9,931261330591.597,1559502052488.4424,18403084712465.06,346610532041857.0
4.422702960505647,6070017064181763.0,7200212648564442.0,366381914742435.56,372120764226518.8,992553373724.0127,1662150606530.4094,19614407677259.16,369423793756218.9
4.61115701971576,6190206377925435.0,7360173888946400.0,373636456277087.56,379488937797247.2,1056279508272.405,1768876536210.8093,20873847199194.04,393143113702943.75
4.803380160110075,6309784204915636.0,7520434525734244.0,380854088906085.44,386819624337193.25,1122502028796.448,1879784258170.256,22182635539865.09,417791685748498.25
4.9994477633122765,6428797034221203.0,7681072013926928.0,388037618676577.2,394115673846226.3,1191285045479.2239,1994981235096.4604,23542040910731.844,443393379991612.2
5.199436718578522,6547287518541057.0,7842160228160729.0,395189620075146.4,401379701136589.5,1262694498528.824,2114578000134.1826,24953367761412.85,469972748147868.0
5.403425452950093,6665294835918218.0,8003769875049109.0,402312457860620.9,408614108007679.8,1336798174873.693,2238688185149.3184,26417957113472.16,497555029789091.75
5.611493962009095,6782855006747243.0,8165968856183062.0,409408306198407.6,415821102680104.9,1413665726898.295,2367428552423.3364,27937186934698.31,526166159343289.56
5.823723841249277,6900001172608336.0,8328822589035747.0,416479165490728.56,423002716889534.06,1493368693004.0132,2500919029418.597,29512472549631.81,555832773775086.44
6.040198318074262,7016763842368453.0,8492394291800712.0,423526877231103.44,430160820973854.0,1575980519811.7354,2639282746307.702,31145267082723.766,586582220878458.4
6.261002284435747,7133171110100473.0,8656745237207003.0,430553137157802.0,437297137232655.75,1661576585848.7112,2782646076004.185,32837061931023.906,618442568123186.9
6.486222330124463,7249248848648022.0,8821934979550381.0,437559506937274.06,444413251793664.44,1750234226584.099,2931138676467.964,34589387263726.027,651442612004646.1
6.715946776726952,7365020882067766.0,8988021558520000.0,444547424572640.3,451510625184271.1,1842032760695.738,3084893535089.75,36403812546260.56,685611887853275.6
6.950265712261491,7480509139690775.0,9155061682854888.0,451518213702739.06,458590601776226.9,1937053517466.0566,3244047014984.1934,38281947086925.6,720980680065775.5
7.18927102650672,7595733794137887.0,9323110896414640.0,458473091932623.1,465654418246635.1,2035379865217.9526,3408738903043.033,40225440604303.836,757580032724922.1
7.433056447036854,7710713385285444.0,9492223728872310.0,465413178316049.1,472703211177630.25,2137097240712.3254,3579112459618.248,42235983813928.055,795441760578926.9
7.681717575977592,7825464931894468.0,9662453832924376.0,472339500093335.25,479738023899787.56,2242293179438.433,3755314469720.466,44315309032847.51,834598460354751.1
7.935351927497144,7940004032379136.0,9833854109648590.0,479252998773672.2,486759812669698.75,2351057346736.0967,3937495295631.56,46465190800897.38,875083522382826.1
8.194058966047088,8054344955989480.0,1.0006476823419426e+16,486154535638849.5,493769452259903.8,2463481569695.7334,4125808930841.854,48687446517618.35,916931142513045.4
8.45794014536803,8168500725514114.0,1.0180373707601406e+16,493044896735132.1,500767741028964.1,2579659869788.021,4320413055231.98,50983937093884.32,960176334304270.1
8.72709894827539,8282483192464598.0,1.0355596062082888e+16,499924797411333.1,507755405530611.44,2699688496180.1826,4521469091428.717,53356567617400.25,1004854941471353.9
9.0016409272409,8396303105580140.0,1.0532194843576012e+16,506794886453709.2,514733104713417.44,2823665959700.436,4729142262270.838,55807288031324.08,1051003650575453.9
9.281673745785717,8509970173386964.0,1.0710220749491848e+16,513655749862005.6,521701433755977.94,2951693067415.885,4943601649328.569,58338093825337.41,1098660003944853.2
9.567307220701432,8623493121455942.0,1.0889724296102e+16,520507914305477.3,528660927577073.44,3083872957792.783,5165020252424.875,60951026738566.36,1147862412814733.5
9.85865336511546,8736879744925188.0,1.1070755891609778e+16,527351850293119.4,535612064055554.3,3220311136411.009,5393575050113.348,63648175473810.83,1198650170675576.8
10.155826432417769,8850136981010035.0,1.1253365903790054e+16,534187976549744.25,542555268473619.1,3361115521270.7456,5629447075047.282,66431676338636.38,1251063438821730.2
10.458942961066125,8963270856286465.0,1.1437604727231906e+16,541016656836354.44,549490910292776.4,3506396443438.3813,5872821420576.133,69303714315359.664,1305143371636926.5
10.768121820287448,9076286674131854.0,1.162352284132723e+16,547838211260455.2,556419314633196.5,3656266738232.753,6123887387059.114,72266523306906.5,1360931963869535.0
11.083484256693197,9189188954791752.0,1.181117086889899e+16,554652912660856.25,563340758607322.2,3810841747078.5586,6382838490510.736,75322387223144.12,1418472175378326.2
11.405153941827061,9301981495282632.0,1.2000599630916922e+16,561460990222772.0,570255474990231.4,3970239364594.987,6649872541102.63,78473640662990.69,1477807917852580.5
11.733257020663602,9414667402214462.0,1.219186019862392e+16,568262631458975.8,577163654231819.2,4134580077181.4727,6925191708643.953,81722669687841.14,1538984069244987.8
12.067922161076874,9527249122392346.0,1.2385003943341474e+16,575057984056882.4,584065446332818.6,4303987002025.0176,7209002588805.342,85071912603793.48,1602046488364800.0
12.409280604298411,9639728471418390.0,1.2580082584197232e+16,581847157604947.0,590960962598228.9,4478585926517.096,7501516270067.298,88523860752457.94,1667042029626623.8
12.75746621638438,9752106660491830.0,1.2777148233993128e+16,588630225210295.9,597850277280301.1,4658505348069.775,7802948401377.278,92081059310163.17,1734018557951095.8
13.112615540712067,9864384321586228.0,1.2976253443411092e+16,595407225018406.1,604733429122011.1,4843876514321.896,8113519260501.926,95746108095398.55,1803024963814211.2
13.474867851526309,9976561531164332.0,1.317745124373342e+16,602178161644511.5,611610422810885.5,5034833463727.702,8433453823063.085,99521662384361.75,1874111178442553.5
13.844365208556836,1.0088637832575208e+16,1.3380795188238286e+16,608943007525492.4,618481230352068.2,5231513066521.434,8762981832249.027,103410433734512.28,1947328189152261.2
14.221252512727972,1.0200612257265064e+16,1.3586339392415062e+16,615701704200133.8,625345792368637.4,5434055066053.107,9102337869193.809,107415190816047.42,2022728054829922.2
14.605677562982532,1.0312483344919976e+16,1.3794138573131336e+16,622454163524917.2,632204019336438.0,5642602120491.387,9451761424020.8,111538760251256.17,2100363921554238.8
14.997791114242183,1.0424249162647376e+16,1.4004248086871048e+16,629200268831832.1,639055792760019.6,5857299844891.478,9811496967547.82,115784027461721.88,2180290038357628.0
15.397746936527026,1.053590732329419e+16,1.4216723967151998e+16,635939876034011.6,645900966295600.4,6078296853626.44,10181794023654.05,120153937523379.72,2262561773127531.5
15.805701875257567,1.0647455002988906e+16,1.4431622961222552e+16,642672814684581.2,652739366826510.8,6305744803182.359,10562907242311.102,124651496029453.5,2347235628647595.5
16.221815912762718,1.075888895798865e+16,1.4649002566127526e+16,649398888993526.4,659570795495961.5,6539798435318.524,10955096473282.258,129279769961328.48,2434369258779469.0
16.64625223101797,1.087020554090292e+16,1.486892106422641e+16,656117878806952.2,666395028701664.8,6780615620595.472,11358626840497.441,134041888567442.4,2524021484786348.5
17.079177275638333,1.098140071636086e+16,1.5091437558239508e+16,662829540552745.1,673211819056299.2,7028357402274.879,11773768817111.938,138941044250299.06,2616252311799944.5
17.5207608211511,1.1092470076181856e+16,1.5316612005892374e+16,669533608156256.9,680020896317535.0,7283188040596.428,12200798301261.098,143980493461747.2,2711122945433127.5
17.97117603757412,1.1203408854103828e+16,1.5544505254221594e+16,676229793929296.6,686821968290967.5,7545275057438.682,12639996692524.15,149163557606680.7,2808695808540873.0
18.430599558325603,1.131421194011918e+16,1.5775179073602096e+16,682917789435439.1,693614721708953.4,7814789281371.689,13091650969113.436,154493623955356.6,2909034558132668.0
18.899211549492115,1.1424873894463192e+16,1.6008696191549466e+16,689597266334355.5,700398823088178.0,8091904893110.935,13556053765807.566,159974146564551.25,3012204102440255.0
19.37719578048196,1.153538896129558e+16,1.6245120326348176e+16,696267877207615.9,707173919568407.6,8376799471383.257,14033503452648.775,165608647207795.44,3118270618144725.0
19.864739696091597,1.16457510821124e+16,1.6484516220551886e+16,702929256368231.2,713939639734683.2,8669654039217.064,14524304214428.926,171400716314978.3,3227301567767952.0
20.36203449001343,1.1755953908921392e+16,1.6726949674399162e+16,709581020655903.6,720695594425053.6,8970653110670.31,15028766130988.43,177354013921613.38,3339365717233538.5
20.869275179813698,1.1865990817211118e+16,1.6972487579184064e+16,716222770219831.0,727441377525621.1,9279984738011.227,15547205258357.516,183472270628109.94,3454533153603008.0
21.38666068340997,1.197585491874032e+16,1.7221197950618964e+16,722854089290665.9,734176566754611.2,9597840559368.094,16079943710769.645,189759288569410.38,3572875302993842.5
21.91439389707817,1.2085539074172242e+16,1.747314996222403e+16,729474546943122.1,740900724436906.8,9924415846865.932,16627309743580.441,196218942395382.47,3694464948685932.0
22.452681775019734,1.2195035905574864e+16,1.7728413978774556e+16,736083697850466.1,747613398270360.9,10259909555268.873,17189637837127.303,202855180262397.56,3819376249424050.5
23.00173541052013,1.230433780880591e+16,1.7987061589836318e+16,742681083032073.5,754314122085083.8,10604524371148.822,17767268781567.75,209672024836529.2,3947684757924025.5
23.561770118730532,1.2413436965799214e+16,1.824916564341625e+16,749266230595032.4,761002416596625.2,10958466762602.102,18360549762736.09,216673574308854.3,4079467439591162.0
24.133005521105144,1.252232535676693e+16,1.8514800279753124e+16,755838656470644.2,767677790154046.8,11321947029536.455,18969834449060.83,223864003423361.8,4214802691459535.0
24.715665631527248,1.2630994772328816e+16,1.878404096527265e+16,762397865146558.6,774339739483500.2,11695179354553.326,19595483079587.066,231247564517983.78,4353770361361658.0
25.309978944157795,1.2739436825579694e+16,1.905696452672771e+16,768943350395137.6,780987750428015.0,12078381854449.531,20237862553150.207,238828588579308.53,4496451767337942.0
25.91617852304095,1.2847642964102314e+16,1.9333649185543804e+16,775474595998553.6,787621298683944.6,12471776632365.252,20897346518748.547,246611486311542.56,4642929717296349.0
26.53450209350177,1.2955604481932236e+16,1.961417459238814e+16,781991076470987.2,794239850534483.5,12875589830604.963,21574315467166.043,254600749220310.97,4793288528932371.0
27.165192135371807,1.3063312531479526e+16,1.989862186197843e+16,788492257778193.2,800842863580499.1,13290051684159.52,22269156823894.37,262800950711911.22,4947614049920270.0
27.808495978079243,1.3170758135409176e+16,2.0187073608146292e+16,794977598054612.2,807429787468879.0,13715396574957.51,22982265043408.934,271216747208641.38,5105993678386585.0
28.464665897640828,1.3277932198482524e+16,2.0479613979168812e+16,801446548318101.8,814000064618455.4,14151863086875.31,23714041704851.625,279852879280843.88,5268516383677182.0
29.133959215593645,1.338482551935845e+16,2.07763286933803e+16,807898553182254.9,820553130943481.4,14599694061535.717,24464895609175.605,288714172796316.94,5435272727429091.0
29.816638399905518,1.3491428802353304e+16,2.107730507507367e+16,814333051566212.8,827088416574562.4,15059136654924.365,25235242877806.957,297805540087753.75,5606354884959064.0
30.51297116790363,1.3597732669156108e+16,2.1382632090701508e+16,820749477401784.1,833605346576855.6,15530442394854.408,26025507052879.805,307131981138862.0,5781856666980209.0
31.223230591261704,1.3703727670494382e+16,2.1692400385383916e+16,827147260337601.8,840103341665247.2,16013867239309.848,26836119199101.016,316698584789855.8,5961873541658409.0
31.947695203086937,1.3809404297745868e+16,2.2006702319728468e+16,833525826439985.8,846581818916194.6,16509671635696.58,27667518007299.61,326510529962960.5,6146502657020435.0
32.686649107148675,1.391475299448882e+16,2.2325632006968876e+16,839884598890101.6,853040192475818.9,17018120581031.807,28520149899719.062,336573086908616.7,6335842863724770.0
33.44038208929165,1.4019764167983278e+16,2.2649285350424596e+16,846222998676991.6,859477874263768.1,17539483683100.498,29394469137105.28,346891618473036.8,6529994738207308.0
34.20918973107749,1.412442820057559e+16,2.2977760081284372e+16,852540445285907.5,865894274672359.6,18074035222607.504,30290937927646.926,357471581387759.75,6729060606212497.0
34.993373525699035,1.4228735461016086e+16,2.33111557967153e+16,858836357381463.5,872288803260405.9,18622054216354.035,31210026537821.848,368318527581853.2,6933144566721341.0
35.793240996213015,1.4332676315680646e+16,2.3649573998297696e+16,865110153484956.2,878660869441159.8,19183824481465.266,32152213405201.58,379438105517401.6,7142352516286873.0
36.60910581613728,1.4436241139685756e+16,2.3993118130785224e+16,871361252645253.2,885009883163708.2,19759634700695.414,33117985253266.848,390836061548877.6,7356792173787655.0
37.44128793246003,1.453942032788614e+16,2.434189362118938e+16,877589075102609.6,891335255587189.8,20349778488836.375,34107837208283.195,402518241307016.9,7576573105609315.0
38.29011369110923,1.4642204305744334e+16,2.469600791818654e+16,883793042944744.6,897636399747141.2,20954554460253.76,35122272918287.656,414490591107768.8,7801806751264005.0
39.15591596493141,1.4744583540060988e+16,2.505557053184478e+16,889972580754518.1,903912731213322.4,21574266297574.426,36161804674232.305,426759159386911.2,8032606449457230.0
40.03903428423004,1.4846548549554894e+16,2.5420693073668536e+16,896127116248532.1,910163668738319.9,22209222821547.773,37226953533332.266,439330098160857.2,8269087464611104.0
40.93981496991464,1.494808991528209e+16,2.579148929695819e+16,902256080906021.5,916388634896291.5,22859738062102.0,38318249444662.78,452209664514222.8,8511367013852789.0
41.85861126931294,1.5049198290883494e+16,2.616807513748102e+16,908358910587384.5,922587056711182.2,23526131330616.836,39436231377048.77,465404222114645.7,8759564294476629.0
42.7957834946992,1.514986441265053e+16,2.6550568754452356e+16,914435046141758.5,928758366273810.8,24208727293431.656,40581447449290.8,478920242755408.75,9013800511888126.0
43.751699164593184,1.5250079109400152e+16,2.693909057182363e+16,920483934003043.1,934902001347242.8,24907856046608.41,41754455062767.414,492764307926328.44,9274198908037470.0
44.72673314788505,1.5349833312149246e+16,2.73337633198756e+16,926505026773862.2,941017405959891.1,25623853191967.777,42955821036457.08,506943110413430.2,9540884790350730.0
