t(s),Total solute volume 1,Total retention volume 1,Total 1 volume 1,Total 2 volume 1,Total 3 volume 1,Total 4 volume 1,Total 5 volume 1,Total 6 volume 1
0.1,1252217186918146.0,2056959543180943.2,321479351742078.75,483263004520719.3,0.0,0.0,0.0,0.0
0.202,1883741005098021.2,3094397119994235.0,483609276178626.56,726984441991432.8,20249813.136460323,61977213.251838036,1803162851.8147123,60511336273.7868
0.30604000000000003,2365427349071683.0,3885737296867590.0,607271703972994.5,912879684909211.8,51363699.86122125,157205975.81315657,4574497352.825908,153775846670.15985
0.41216080000000005,2772976242810486.0,4555322388387452.0,711900963435953.2,1070163361764593.6,91225227.39697309,279208350.7870457,8125154101.72672,273324788742.029
0.5204040160000001,3134946222729449.0,5150061264418617.0,804828834137014.2,1209856954108750.8,138893704.74390852,425105169.10302836,12371293289.814472,416318151233.31476
0.6308120963200001,3465588149967316.0,5693361593083990.0,889713912876598.1,1337460239024400.5,193864563.24167833,593352106.3574364,17267953295.91809,581236045707.1953
0.7434283382464002,3773190146691100.5,6198836996931149.0,968683993663365.9,1456171817758224.2,255849456.63726914,783066627.4315848,22789441290.843204,767210461086.0676
0.8582969050113283,4063063575381236.5,6675211702580734.0,1043102652586338.8,1568041482761842.5,324685857.04831386,993751286.7839332,28921275369.612194,973752138803.5985
0.9754628431115548,4338848894317299.0,7128465471117152.0,1113904497642611.2,1674474181227400.8,400292502.4615716,1225157367.1721668,35656214252.47222,1200616265720.7676
1.094972099973786,4603167854146401.0,7562904854830418.0,1181762605936472.0,1776481714663722.2,482644721.6958353,1477209357.2496207,42992058578.02508,1447728171149.0383
1.2168715419732616,4857981688873332.0,7981751535097024.0,1247180481378466.5,1874820974088106.5,571759607.4733244,1749959571.1356184,50930329802.22462,1715138708139.593
1.3412089728127268,5104802433668870.0,8387489415098358.0,1310546305908599.8,1970075493047057.2,667686557.4642262,2043559197.6396155,59475427422.82065,2002995800649.5063
1.4680331522689813,5344824773440328.0,8782081181830482.0,1372166788731608.8,2062706331397189.8,770500959.8413415,2358238973.816318,68634066388.28497,2311525455034.044
1.597393815314361,5579012099664791.0,9167109654177358.0,1432289259525696.2,2153085286867504.5,880299827.9369873,2694295824.08909,78414888170.88904,2641018635541.721
1.729341691620648,5808154801176343.0,9543873524897430.0,1491116633326503.5,2241517390984731.2,997198699.4925276,3052083369.877683,88828184511.4428,2991821943272.381
1.863928525453061,6032910993521669.0,9913454257895490.0,1548817866897877.2,2328256627587044.0,1121329388.0177932,3432005047.2544575,99885697083.09192,3364330857396.348
2.001207095962122,6253835739584994.0,1.0276764082469244e+16,1605535460487853.0,2413517209820384.5,1252838326.9883566,3834509039.081775,111600469973.37155,3758984758684.492
2.1412312378813647,6471402495867083.0,1.063458121830897e+16,1661390963691427.8,2497481856813148.0,1391885338.026014,4260084504.821823,123986739940.09195,4176263227511.3647
2.284055862638992,6686019167614433.0,1.0987576245665942e+16,1716489097253644.8,2580307989766549.0,1538642709.7172704,4709258761.106399,137059854342.5108,4616683275503.11
2.4297369798917723,6898040338906065.0,1.1336332193020256e+16,1770920892876724.0,2662132451861943.0,1693294508.9768138,5182595174.049675,150836209790.1488,5080797276040.194
2.578331719489608,7107776733598151.0,1.1681360076555574e+16,1824766122110532.0,2743075159484459.0,1856036069.9174824,5680691594.849262,165333206605.68927,5569191428160.278
2.7298983538794,7315502635347943.0,1.2023111087535164e+16,1878095201281372.5,2823241965802502.5,2027073620.6587846,6204179217.571286,180569215576.75638,6082484634926.539
2.884496320956988,7521461779177479.0,1.2361986269283692e+16,1930970704021993.0,2902726934474781.0,2206624019.1262355,6753721770.51993,196563554417.56418,6621327709256.563
3.0421862473761276,7725872081775330.0,1.2698344286888864e+16,1983448575673074.2,2981614165196308.0,2394914576.333475,7330014975.362597,213336472024.2661,7186402842573.305
3.2030299723236504,7928929477966289.0,1.3032507728866382e+16,2035579118212825.2,3059979274291420.0,2592182950.946631,7933786224.426167,230909139080.68475,7778423287593.324
3.3670905717701234,8130811061010007.0,1.3364768265439996e+16,2087407796459967.8,3137890606636414.5,2798677102.7793007,8565794438.360193,249303643914.01816,8398133218136.203
3.5344323832055258,8331677674797231.0,1.3695390906631252e+16,2138975903563373.8,3215410236055172.0,3014655295.6998215,9226830075.034452,268542992752.5312,9046307737354.64
3.7051210308696363,8531676070230441.0,1.4024617544585662e+16,2190321114605590.5,3292594797522360.5,3240386142.5466866,9917715267.009558,288651113725.607,9723753012138.127
3.879223451487029,8730940711906033.0,1.4352669921576968e+16,2241477950428985.5,3369496184408873.0,3476148686.2455144,10639304069.808193,309652864088.8576,10431306516244.188
4.0568079205167695,8929595301832433.0,1.4679752133297472e+16,2292478168816983.0,3446162136524072.5,3722232512.5423794,11392482806.953505,331574040265.78845,11169837368381.11
4.237944078927105,9127754072396410.0,1.5006052753189434e+16,2343351096434901.0,3522636739105059.0,3978937890.711726,12178170500.628286,354441390381.5985,11940246754301.133
4.422702960505647,9325522889792896.0,1.533174664551159e+16,2394123912111394.5,3598960848658786.0,4246575939.3340607,12997319379.064411,378282629030.31525,12743468424177.084
4.61115701971576,9523000200721824.0,1.5656996521017504e+16,2444821889882167.5,3675172458316886.0,4525468814.818745,13850915453.54724,403126454068.1688,13580469258278.498
4.803380160110075,9720277848662964.0,1.5981954278460582e+16,2495468608550651.0,3751307012857286.0,4815949920.808913,14739979159.33341,429002565267.2342,14452249895350.967
4.9994477633122765,9917441780983676.0,1.6306762166835632e+16,2546086133222437.5,3827397681595408.0,5118364136.975667,15665566055.912334,455941684696.3492,15359845419213.004
5.199436718578522,1.0114572664166928e+16,1.6631553796749512e+16,2596695173251639.0,3903475595816582.0,5433068066.007675,16628767582.958214,483975578722.9528,16304326099985.12
5.403425452950093,1.031174642130814e+16,1.6956455024160422e+16,2647315220231430.0,3979570056210025.0,5760430297.846823,17630711869.065926,513137081551.24493,17286798187097.758
5.611493962009095,1.0509034703530352e+16,1.728158472561835e+16,2697964669019543.5,4055708714800148.5,6100831690.420106,18672564590.97683,543460120229.91266,18308404751826.41
5.823723841249277,1.0706505304962346e+16,1.7607055480848846e+16,2748660924274888.0,4131917735097388.5,6454665666.284736,19755529881.50919,574979741077.426,19370326577601.74
6.040198318074262,1.0904222529308466e+16,1.7932974175865716e+16,2799420494566236.0,4208221933566947.5,6822338524.740858,20880851284.830105,607732137485.2626,20473783096756.254
6.261002284435747,1.1102247514724456e+16,1.825944253764271e+16,2850259075777084.5,4284644905006850.0,7204269769.083219,22049812758.062206,641754679069.7161,21620033372719.555
6.486222330124463,1.1300638522644266e+16,1.8586557609614708e+16,2901191625255543.5,4361209134013649.5,7600892448.761124,23263739718.52048,677085942151.8236,22810377126969.676
6.715946776726952,1.1499451195322212e+16,1.8914412175835024e+16,2952232427932661.0,4437936094374641.0,8012653516.300523,24524000136.129837,713765741552.2872,24046155810299.863
6.950265712261491,1.1698738786130316e+16,1.924309514042393e+16,3003395155446271.5,4514846337945569.0,8440014198.913501,25832005670.797035,751835163694.8345,25328753718177.42
7.18927102650672,1.1898552366049886e+16,1.957269186795846e+16,3054692919153111.5,4591959574341054.0,8883450384.78425,27189212854.701946,791336601016.9523,26659599150160.434
7.433056447036854,1.2098941009295604e+16,1.990328448962975e+16,3106138317783831.5,4669294742571781.0,9343453024.07431,28597124319.639084,832313787691.8918,28040165613500.727
7.681717575977592,1.2299951960593282e+16,2.0234952179308824e+16,3157743480387824.5,4746870075601259.0,9820528544.738771,30057290069.691517,874811836670.0227,29471973071207.855
7.935351927497144,1.2501630786279494e+16,2.0567771403084508e+16,3209520105124774.5,4824703158659136.0,10315199283.287933,31571308799.647194,918877278051.6094,30956589234978.367
8.194058966047088,1.2704021511097348e+16,2.090181614535109e+16,3261479494384019.0,4902810982034215.0,10828003930.66732,33140829259.687275,964558098806.3138,32495630903508.08
8.45794014536803,1.29071667423108e+16,2.1237158114112524e+16,3313632586648094.5,4981209988973347.0,11359497993.463717,34767551666.98326,1011903783858.0212,34090765346811.53
8.72709894827539,1.3111107782547388e+16,2.1573866927819812e+16,3365989985462719.0,5059916119230435.0,11910254270.676958,36453229164.934746,1060965358556.2738,35743711737267.625
9.0016409272409,1.3315884732599188e+16,2.1912010285761156e+16,3418561985828655.0,5138944848739930.0,12480863346.326077,38199669330.87101,1111795432558.2551,37456242628198.25
9.281673745785717,1.3521536585255048e+16,2.225165412377112e+16,3471358598291093.0,5218311225829130.0,13071934098.185703,40008735733.122635,1164448245147.7278,39230185480867.86
9.567307220701432,1.3728101311106452e+16,2.2592862756804416e+16,3524389570968391.5,5298029904332904.0,13684094222.974195,41882349538.44558,1218979712019.486,41067424240868.625
9.85865336511546,1.393561593715264e+16,2.2935699009734756e+16,3577664409732287.0,5378115173929412.0,14317990778.33863,43822491170.85464,1275447473560.1372,42969900964927.28
10.155826432417769,1.4144116618934506e+16,2.3280224337576296e+16,3631192396726636.0,5458580987978515.0,14974290742.004427,45831202022.994385,1333910944657.965,44939617499240.51
10.458942961066125,1.4353638706839368e+16,2.362649893618396e+16,3684982607389747.5,5539440989110421.0,15653681588.480436,47910586221.23782,1394431366076.6174,46978637210506.24
10.768121820287448,1.4564216807146132e+16,2.397458184436978e+16,3739043926126378.5,5620708532784638.0,16356871883.72919,50062812445.773415,1457071857429.2144,49089086770886.59
11.083484256693197,1.4775884838314968e+16,2.4324531038265076e+16,3793385060758852.0,5702396709013548.0,17084591898.234486,52290115806.99913,1521897471791.342,51273157998198.38
11.405153941827061,1.4988676082970202e+16,2.4676403518665556e+16,3848014555872588.5,5784518362424112.0,17837594238.9174,54594799779.60544,1588975251993.0676,53533109752682.28
11.733257020663602,1.520262323597569e+16,2.5030255392018388e+16,3902940805158372.5,5867086110811246.0,18616654500.371346,56979238195.787544,1658374288632.0005,55871269891769.18
12.067922161076874,1.541775844895902e+16,2.5386141945636256e+16,3958172062842944.0,5950112362320954.0,19422571935.90692,59445877299.088264,1730165779850.9658,58290037284310.91
12.409280604298411,1.5634113371602846e+16,2.5744117717664904e+16,4013716454289670.0,6033609331385631.0,20256170148.914825,61997237860.428955,1804423092925.7932,60791883885808.41
12.75746621638438,1.5851719189989078e+16,2.610423656227294e+16,4069581985842585.0,6117589053522190.0,21118297805.076183,64635917357.94607,1881221827710.1123,63379356876218.82
13.112615540712067,1.6070606662251386e+16,2.6466551710487564e+16,4125776553979375.5,6202063399091224.0,22009829365.966846,67364592222.3087,1960639881986.0552,66055080861988.97
13.474867851526309,1.6290806151766708e+16,2.6831115827054524e+16,4182307953832561.0,6287044086106464.0,22931665844.622078,70186020149.24884,2042757518771.2256,68821760144012.16
13.844365208556836,1.6512347658092108e+16,2.719798106366511e+16,4239183887131892.5,6372542692174150.0,23884735583.64645,73103042481.09612,2127657435634.0818,71682181053267.17
14.221252512727972,1.673526084583454e+16,2.7567199108858896e+16,4296411969616003.0,6458570665634590.0,24869995056.474678,76118586659.16832,2215424836071.596,74639214355953.17
14.605677562982532,1.6959575071621548e+16,2.793882123488042e+16,4353999737956542.5,6545139335970838.0,25888429692.405327,79235668748.9243,2306147503004.7456,77695817729994.84
14.997791114242183,1.7185319409325654e+16,2.8312898341743256e+16,4411954656234008.0,6632259923543510.0,26941054726.05232,82457396039.85086,2399915874449.1675,80855038314847.06
15.397746936527026,1.741252267368059e+16,2.8689480998729936e+16,4470284122000684.0,6719943548704832.0,28028916071.876045,85786969722.1105,2496823121419.9585,84120015336592.7
15.805701875257567,1.7641213442414892e+16,2.9068619483535764e+16,4528995471962945.0,6808201240340555.0,29153091224.477924,89227687642.0422,2596965228131.6235,87493982810381.61
16.221815912762718,1.787142007701582e+16,2.94503638192454e+16,4588095987311983.0,6897043943883398.0,30314690185.361454,92782947138.66858,2700441074555.655,90980272322325.17
16.64625223101797,1.810317074222838e+16,2.9834763809314984e+16,4647592898729699.0,6986482528838099.0,31514856416.8837,96456247963.42116,2807352521400.3594,94582315893017.94
17.079177275638333,1.8336493424382444e+16,3.02218690707162e+16,4707493391093791.0,7076527795854345.0,32754767824.142155,100251195285.37106,2917804497579.266,98303648924925.81
17.5207608211511,1.857141594863441e+16,3.0611729065386264e+16,4767804607904236.0,7167190483380878.0,34035637765.562893,104171502784.30016,3031905090236.2695,102147913235937.86
17.97117603757412,1.880796599520189e+16,3.1004393130114536e+16,4828533655451128.0,7258481273930764.0,35358716092.97859,108220995834.03474,3149765637397.901,106118860181450.73
18.430599558325603,1.904617111466261e+16,3.1399910504986396e+16,4889687606742368.0,7350410799985699.0,36725290222.00511,112403614778.5123,3271500823324.6704,110220353867416.86
18.899211549492115,1.928605874238343e+16,3.1798330360493908e+16,4951273505207985.0,7442989649564514.0,38136686233.55133,116723418303.13351,3397228776635.721,114456374456854.19
19.37719578048196,1.952765621213919e+16,3.2199701823415388e+16,5013298368196502.0,7536228371479119.0,39594270007.31352,121184586904.01562,3527071171283.0864,118831021572388.75
19.864739696091597,1.9770990768976692e+16,3.2604074001555564e+16,5075769190277369.0,7630137480298795.0,41099448388.13837,125791426457.8392,3661153330453.6484,123348517797467.02
20.36203449001343,2.0016089581373108e+16,3.3011496007433228e+16,5138692946362589.0,7724727461042856.0,42653670386.15224,130548371895.04396,3799604333479.282,128013212278947.4
20.869275179813698,2.0262979752737116e+16,3.3422016980994184e+16,5202076594659187.0,7820008773618855.0,44258428411.586,135459990979.22075,3942557125837.8477,132829584433857.77
21.38666068340997,2.051168833229317e+16,3.383568611142322e+16,5265927079463570.0,7915991857023270.0,45915259545.246925,140530988195.6008,4090148632329.581,137802247763169.34
21.91439389707817,2.0762242325389456e+16,3.425255265812165e+16,5330251333807908.0,8012687133319636.0,47625746845.61278,145766208751.64,4242519873516.1284,142935953775529.88
22.452681775019734,2.101466870326475e+16,3.4672665970912876e+16,5395056281967469.0,8110105011407768.0,49391520693.55398,151170642692.76328,4399816085511.37,148235596023959.03
23.00173541052013,2.1268994412307896e+16,3.5096075509534084e+16,5460348841837888.0,8208255890597214.0,51214260175.70744,156749429136.41956,4562186843215.774,153706214258596.8
23.561770118730532,2.1525246382839664e+16,3.5522830862466836e+16,5526135927189688.0,8307150163996503.0,53095694507.564415,162507860627.6766,4729786187088.355,159352998698683.0
24.133005521105144,2.1783451537446556e+16,3.5952981765156204e+16,5592424449807741.0,8406798221729266.0,55037604497.34888,168451387619.67093,4902772753552.601,165181294427007.28
24.715665631527248,2.204363679889058e+16,3.638657811766581e+16,5659221321522018.0,8507210453986889.0,57041824051.80297,174585623082.31747,5081309909135.539,171196605910181.56
25.309978944157795,2.2305829097620984e+16,3.682367000181002e+16,5726533456136005.0,8608397253927472.0,59110241725.014244,180916347242.759,5265565888441.126,177404601648141.47
25.91617852304095,2.257005537890874e+16,3.726430769780353e+16,5794367771258349.0,8710369020429226.0,61244802311.456566,187449512461.13864,5455713936062.534,183811118956398.78
26.53450209350177,2.28363426096252e+16,3.770854170046867e+16,5862731190043097.0,8813136160706405.0,63447508484.44161,194191248245.35547,5651932452539.509,190422168884634.7
27.165192135371807,2.3104717784682584e+16,3.815642273502961e+16,5931630642843207.0,8916709092795127.0,65720422481.20781,201147866408.56955,5854405144470.721,197243941275329.2
27.808495978079243,2.3375207933155684e+16,3.860800177253281e+16,6001073068782128.0,9021098247915614.0,68065667835.908554,208325866373.30518,6063321178892.878,204282809966197.44
28.464665897640828,2.3647840124099276e+16,3.906333004491815e+16,6071065417247254.0,9126314072717436.0,70485431161.787,215731940626.10138,6278875342041.855,211545338140326.25
29.133959215593645,2.3922641472076836e+16,3.952245905977432e+16,6141614649309425.0,9232367031413188.0,72981963983.86188,223372980326.75916,6501268202613.395,219038283827963.47
29.816638399905518,2.4199639142414936e+16,3.998544061480228e+16,6212727739071712.0,9339267607806262.0,75557584623.47913,231256081076.3348,6730706279644.255,226768605564041.4
30.51297116790363,2.4478860356195436e+16,4.045232681201363e+16,6284411674951118.0,9447026307217348.0,78214680136.11519,239388548848.1169,6967402215137.414,234743468205600.7
31.223230591261704,2.476033239499696e+16,4.0923170071686856e+16,6356673460896027.0,9555653658314582.0,80955708303.8562,247777906085.9546,7211574951557.961,242970248913384.53
31.947695203086937,2.504408260539848e+16,4.139802314610585e+16,6429520117542070.0,9665160214851312.0,83783199684.00876,256431897974.37735,7463449914329.323,251456543301973.62
32.686649107148675,2.533013840325275e+16,4.1876939133098664e+16,6502958683309463.0,9775556557315470.0,86699759715.33205,265358498885.084,7723259199462.932,260210171762954.06
33.44038208929165,2.5618527277740584e+16,4.235997148940065e+16,6576996215443827.0,9886853294494180.0,89708070883.41977,274565919004.4656,7991241766457.054,269239185965684.7
34.20918973107749,2.59092767952141e+16,4.284717404385691e+16,6651639791002783.0,9999061064957008.0,92810894946.79335,284062611146.94916,8267643636604.246,278551875540375.97
34.993373525699035,2.620241460283699e+16,4.333860101048642e+16,6726896507790579.0,1.0112190538460758e+16,96011075225.30722,293857277759.0558,8552718096849.746,288156774948276.56
35.793240996213015,2.649796843202914e+16,4.383430700142085e+16,6802773485242411.0,1.0226252417278974e+16,99311538952.50383,303958878119.19275,8846725909346.945,298062670543893.0
36.60910581613728,2.679596610172254e+16,4.433434703973755e+16,6879277865260242.0,1.0341257437458224e+16,102715299693.59213,314376635738.2935,9149935526858.799,308278607834265.3
37.44128793246003,2.709643552143426e+16,4.4838776572200824e+16,6956416813001837.0,1.0457216370004396e+16,106225459830.76474,325120045966.56244,9462623314158.42,318813898940457.06
38.29011369110923,2.7399404694163292e+16,4.534765148192708e+16,7034197517624356.0,1.0574140022000384e+16,109845213117.60612,336198883811.68646,9785073775584.35,329678130266524.56
39.15591596493141,2.7704901719115164e+16,4.586102810098634e+16,7112627192983920.0,1.0692039237657728e+16,113577847304.38489,347623211974.0055,10117579788910.857,340881170381342.3
40.03903428423004,2.801295479426073e+16,4.6378963222957544e+16,7191713078292419.0,1.0810924899303994e+16,117426746836.0661,359403389104.23584,10460442845696.322,352433178118815.3
40.93981496991464,2.8323592218731572e+16,4.690151411544584e+16,7271462438732623.0,1.0930807928307402e+16,121395395624.91289,371550078289.51624,10813973298276.719,364344610902077.6
41.85861126931294,2.8636842395058464e+16,4.742873853257857e+16,7351882566032737.0,1.1051699285940502e+16,125487379899.59822,384074255773.6088,11178490613574.826,376626233297460.44
42.7957834946992,2.8952733831254532e+16,4.7960694727489176e+16,7432980779001264.0,1.1173609974184312e+16,129706391132.78192,396987219917.26276,11554323633899.861,389289125804104.4
