t(s),Total solute volume 1,Total retention volume 1,Total 1 volume 1,Total 2 volume 1,Total 3 volume 1,Total 4 volume 1,Total 5 volume 1,Total 6 volume 1
0.1,803801399340899.0,888695292650996.4,42833262785020.44,42060630525076.21,0.0,0.0,0.0,0.0
0.202,1209682600016725.2,1340396107884442.8,64462008631325.664,63299234223560.45,8938291855.365648,14209511526.96333,155118060434.63065,2773999149013.0146
0.30604000000000003,1517561106765018.2,1685320251778308.2,80868351062319.11,79409636853039.38,22649830785.428757,36007451431.89219,393075614282.2784,7029424201432.402
0.41216080000000005,1776946719504212.0,1977891036651173.8,94690586425107.33,92982544877645.16,40179450723.66562,63875493130.13705,697297819104.2474,12469833081250.367
0.5204040160000001,2006374068440092.5,2238458277953713.0,106916394872900.8,104987822548822.42,61096123740.66144,97128533111.72041,1060305807463.9065,18961461627582.668
0.6308120963200001,2215080063160022.2,2477156064040838.5,118037996221359.03,115908810956286.97,85162514985.31726,135389383105.91652,1477982078598.2856,26430659726481.844
0.7434283382464002,2408433829307881.0,2699873823310135.5,128341502400909.11,126026461105394.89,112237026675.85785,178433050696.19305,1947870581920.4143,34833489836658.742
0.8582969050113283,2589874302559435.0,2910385247158174.5,138010168673171.28,135520722674867.56,142233498024.31403,226122675308.02155,2468477361597.4336,44143219715767.17
0.9754628431115548,2761756850473823.5,3111277758140872.0,147169508725778.28,144514845319623.75,175101313604.08643,278377907290.9512,3038925366991.4937,54344149033759.06
1.094972099973786,2925775989602999.5,3304416225305500.0,155909820576270.38,153097498249448.62,210814360801.88113,335157354258.2889,3658762828484.346,65428182333236.125
1.2168715419732616,3083197539779965.5,3491197438780397.0,164298557694692.4,161334918199634.94,249364372635.04135,396447998760.9994,4327847735901.1074,77392762998802.33
1.3412089728127268,3234995601131380.5,3672700144566639.0,172387628284721.16,169278077046706.16,290756661382.26416,462258416588.4774,5046273806476.249,90239549219382.92
1.4680331522689813,3381938035115825.5,3849778607167086.0,180217950428490.0,176967154786928.3,335007252736.9469,532614221451.5836,5814320757115.907,103973524604529.81
1.597393815314361,3524642270686220.5,4023123649859374.0,187822425905770.8,184434459713343.12,382140887812.91125,607554889275.7175,6632419637169.523,118602378139771.34
1.729341691620648,3663613114658266.5,4193303984387473.5,195227955046712.97,191706406924327.34,432189587820.80383,687131476966.0092,7501127925706.345,134136058767668.02
1.863928525453061,3799269178204149.0,4360795079533445.5,202456844956500.88,198804901146501.53,485191597400.89825,771404943123.9512,8421111199997.805,150586447485775.6
2.001207095962122,3931961841557854.0,4525999866658895.0,209527820113505.7,205748329103576.03,541190590866.16223,860444886718.7852,9393129366609.133,167967111039768.5
2.1412312378813647,4061989177069693.5,4689263933039447.0,216456764306105.4,212552288070015.5,600235065912.2793,954328583785.3789,10418026145905.488,186293113798032.78
2.284055862638992,4189606375314647.5,4850886894098758.0,223257276222954.5,219230131439500.5,662377874103.0018,1053140241567.1818,11496720930307.936,205580872075678.2
2.4297369798917723,4315033689521599.5,5011131055487577.0,229941092798636.9,225793384434209.03,727675853163.3246,1156970414518.9932,12630202409504.367,225848040055946.44
2.578331719489608,4438462582961849.0,5170228113802985.0,236518416797951.78,232252065780096.78,796189536399.6818,1265915542936.6975,13819523534331.775,247113419649419.28
2.7298983538794,4560060551563209.0,5328384412221477.0,242998173805136.0,238614940060510.4,867982921470.9932,1380077585957.1416,15065797510865.455,269396888774323.16
2.884496320956988,4679974954158002.0,5485785114256412.0,249388216331519.6,244889718142124.8,943123285475.3732,1499563728207.917,16370194598524.01,292719344012551.5
3.0421862473761276,4798336088599475.0,5642597555827453.0,255695487736742.7,251083218139326.1,1021681036639.0692,1624486144667.1855,17733939543642.492,317102654626953.3
3.2030299723236504,4915259687290296.0,5798973965089082.0,261926155211390.16,257201495998085.34,1103729595264.0315,1754961812061.0999,19158309521092.473,342569625660896.94
3.3670905717701234,5030848960420193.0,5955053690007769.0,268085718657786.0,263249952412748.38,1189345298309.2063,1891112357858.3535,20644632486350.61,369143968374525.6
3.5344323832055258,5145196283042487.0,6110965038530141.0,274179100591542.94,269233421105931.44,1278607323245.3347,2033063939932.0127,22194285862369.477,396850276664627.1
3.7051210308696363,5258384598906097.0,6266826810831713.0,280210720949477.3,275156242287035.1,1371597627766.8796,2180947151458.9517,23808695501975.867,425714008407902.56
3.879223451487029,5370488596978579.0,6422749584596390.0,286184559784599.75,281022324216339.94,1468400902656.942,2334896946759.777,25489334878890.543,455761470888571.0
4.0568079205167695,5481575704016998.0,6578836800549339.0,292104210158590.6,286835195143397.5,1569104535645.6377,2495052584647.6055,27237724469907.754,487019809640147.7
4.237944078927105,5591706927116683.0,6735185685182503.0,297972923039850.9,292598047395203.3,1673798584522.3247,2661557586521.8164,29055431298065.035,519517000161660.8
4.422702960505647,5700937573028330.0,6891888039826588.0,303793645634730.75,298313775016005.1,1782575758089.6133,2834559706963.606,30944068612314.68,553281842070142.94
4.61115701971576,5809317865571866.0,7049030919268830.0,309569054288508.4,303985006074806.1,1895531403804.4624,3014210914999.2363,32905295683679.098,588343955331192.6
4.803380160110075,5916893478258254.0,7206697218522002.0,315301582867939.0,309614130535945.0,2012763501156.0662,3200667384521.9253,34940817701415.75,624733778272752.5
4.9994477633122765,6023705995946784.0,7364966182771382.0,320993447362202.3,315203324416292.1,2134372659993.2915,3394089492622.67,37052385755549.625,662482567137940.5
5.199436718578522,6129793316785820.0,7523913852721082.0,326646667301686.5,320754570817677.06,2260462123145.9727,3594641824789.2285,39241796894415.89,701622396973551.8
5.403425452950093,6235190003647397.0,7683613455339713.0,332263084485353.06,326269678316444.2,2391137772790.9854,3802493186102.3,41510894247704.08,742186163683931.5
5.611493962009095,6339927592639452.0,7844135748239113.0,337844379420850.9,331750297107022.0,2526508140100.996,4017816617696.108,43861567207005.375,784207587106985.5
5.823723841249277,6444034864977507.0,8005549324501819.0,343392085812117.1,337197933228187.44,2666684417785.465,4240789417864.4565,46295751657109.8,827721214991243.9
6.040198318074262,6547538087445692.0,8167920883630612.0,348907603373146.56,342613961145710.8,2811780475192.3027,4471593167287.42,48815430252323.52,872762427771247.0
6.261002284435747,6650461225823158.0,8331315473365037.0,354392209201142.56,347999634920343.06,2961912875688.1396,4710413757931.974,51422632732932.586,919367444053831.5
6.486222330124463,6752826134954966.0,8495796706353331.0,359847067905076.5,353356098153685.1,3117200896075.87,4957441425245.352,54119436277652.02,967573326740635.8
6.715946776726952,6854652728574192.0,8661426955046440.0,365273240655239.5,358684392874495.9,3277766547843.175,5212870783314.855,56907965888503.59,1017417989722846.1
6.950265712261491,6955959131510358.0,8828267527669076.0,370671693294174.8,363985467503321.3,3443734600064.4526,5476900862714.911,59790394805069.234,1068940205093365.5
7.18927102650672,7056761816527435.0,8996378827698180.0,376043303628549.25,369260184012835.3,3615232603804.006,5749735150800.917,62768944945505.18,1122179610829257.0
7.433056447036854,7157075727709271.0,9165820498925786.0,381388868004168.1,374509324384251.75,3792390917889.1724,6031581634244.178,65845887372066.45,1177176718903927.0
7.681717575977592,7256914392037503.0,9336651557888122.0,386709107251775.94,379733596445875.56,3975342735940.5767,6322652843630.882,69023542779215.08,1233972923794200.0
7.935351927497144,7356290020578361.0,9508930515195008.0,392004672079134.3,384933639167912.5,4164224114562.477,6623165899973.463,72304282002656.34,1292610511352388.8
8.194058966047088,7455213600501138.0,9682715487084330.0,397276147974535.1,390110027477540.9,4359174002609.8555,6933342563004.547,75690526547888.45,1353132668017642.5
8.45794014536803,7553694978988205.0,9858064298350412.0,402524059678236.75,395263276649684.0,4560334271460.836,7253409281142.968,79184749137061.95,1415583490344616.5
8.72709894827539,7651742939957829.0,1.0035034577643708e+16,407748875270884.1,400393846321686.06,4767849746233.823,7583597243037.94,82789474273126.33,1480007994830945.2
9.0016409272409,7749365274401402.0,1.0213683846013426e+16,412951009921679.8,405502144173872.56,4981868237897.63,7924142430612.816,86507278820406.25,1546452128027546.0
9.281673745785717,7846568845037238.0,1.0394069599453042e+16,418130829333663.44,410588529312683.5,5202540576231.715,8275285673542.689,90340792600895.75,1614962776918785.8
9.567307220701432,7943359645894385.0,1.0576249386117658e+16,423288652918846.2,415653315388533.94,5430020643600.465,8637272705112.421,94292699005683.58,1685587779561488.8
9.85865336511546,8039742857366247.0,1.0760280878798834e+16,428424756731927.1,420696773476614.4,5664465409512.513,9010354219411.834,98365735621049.17,1758375935974061.8
10.155826432417769,8135722897208726.0,1.0946221943175498e+16,433539376187900.1,425719134745468.06,5906034965941.999,9394785929835.14,102562694868864.05,1833377019268772.5
10.458942961066125,8231303467901328.0,1.113413070229772e+16,438632708585843.5,430720592935268.2,6154892563393.924,9790828628859.918,106886424661034.64,1910641787021995.0
10.768121820287448,8326487600741559.0,1.1324065597708704e+16,443704915458649.9,435701306665156.8,6411204647701.254,10198748249089.318,111339829067815.8,1990221992878736.0
11.083484256693197,8421277697000165.0,1.1516085447565252e+16,448756124766112.06,440661401586770.8,6675140897545.392,10618815925548.87,115925868999892.69,2072170398389246.8
11.405153941827061,8515675566427824.0,1.1710249502076824e+16,453786432946886.6,445600972399192.6,6946874262696.301,11051308059235.076,120647562904220.42,2156540785076753.0
11.733257020663602,8609682463371647.0,1.1906617496548856e+16,458795906843079.9,450520084738823.94,7226581002972.423,11496506381921.33,125507987473665.3,2243387966736744.2
12.067922161076874,8703299120731076.0,1.2105249702286904e+16,463784585509704.25,455418776956198.9,7514440727923.998,11954698022230.244,130510278370567.03,2332767801969203.0
12.409280604298411,8796525781958080.0,1.2306206975589458e+16,468752481919922.2,460297061790463.44,7810636437247.147,12426175572989.246,135657630964400.58,2424737206946365.0
12.75746621638438,8889362231284190.0,1.250955080503627e+16,473699584575780.25,465154927951071.9,8115354561939.006,12911237159890.305,140953301083769.75,2519354168419621.5
13.112615540712067,8981807822337410.0,1.271534335725646e+16,478625859033172.8,469992341615224.2,8428785006207.226,13410186511480.297,146400605783026.62,2616677756969929.5
13.474867851526309,9073861505294898.0,1.292364752134429e+16,483531249348756.0,474809247848687.44,8751121190150.472,13923333030512.162,152002924123855.75,2716768140507436.0
13.844365208556836,9165521852701620.0,1.313452695207259e+16,488415679455786.56,479605571956823.1,9082560093228.441,14450991866693.85,157763697972216.9,2819686598026231.0
14.221252512727972,9256787084071988.0,1.3348046112041048e+16,493279054475093.94,484381220771903.94,9423302298543.412,14993483990873.174,163686432811081.84,2925495533621566.0
14.605677562982532,9347655089378586.0,1.3564270312883096e+16,498121261966766.75,489136083882225.4,9773552037957.064,15551136270703.484,169774698569451.47,3034258490777411.0
14.997791114242183,9438123451521944.0,1.3783265755644118e+16,502942173127525.6,493870034807874.5,10133517238068.861,16124281547837.701,176032130468177.47,3146040166932694.0
15.397746936527026,9528189467864910.0,1.4005099570433456e+16,507741643938253.94,498582932127574.3,10503409567084.643,16713258716701.607,182462429883151.12,3260906428335793.5
15.805701875257567,9617850170906972.0,1.4229839855444204e+16,512519516265698.1,503274620560499.0,10883444482606.148,17318412804902.506,189069365226473.56,3378924325197067.0
16.221815912762718,9707102348165456.0,1.4457555715425986e+16,517275618921906.0,507944932006606.3,11273841280373.46,17940095055330.36,195856772846242.3,3500162107150058.0
16.64625223101797,9795942561323858.0,1.4688317299689272e+16,522009768684611.9,512593686548617.7,11674823143995.56,18578663010014.008,202828557945634.3,3624689239032544.0
17.079177275638333,9884367164701130.0,1.4922195839713722e+16,526721771281432.6,517220693418460.44,12086617195704.83,19234480595796.88,209988695522000.5,3752576416999184.5
17.5207608211511,9972372323089912.0,1.5159263686425872e+16,531411422340430.94,521825751930685.7,12509454548172.924,19907918211899.586,217341231326708.94,3883895584978053.0
17.97117603757412,1.005995402900612e+16,1.5399594347207756e+16,536078508309333.0,526408652385103.2,12943570357428.535,20599352819439.95,224890282846516.9,4018719951483810.5
18.430599558325603,1.014710811938866e+16,1.564326252269264e+16,540722807345415.3,530969176940616.75,13389203876916.867,21309168032982.97,232640040307269.22,4157124006800777.0
18.899211549492115,1.0233830291782462e+16,1.589034414339964e+16,545344090177878.6,535507100462042.1,13846598512742.873,22037754214197.227,240594767700753.6,4299183540549596.5
19.37719578048196,1.0320116120035004e+16,1.6140916406255668e+16,549942120944291.2,540022191341465.1,14316001880142.951,22785508567693.625,248758803835570.22,4444975659651522.5
19.864739696091597,1.0405961069533014e+16,1.6395057811049124e+16,554516658002517.6,544514212295526.06,14797665861227.826,23552835239127.266,257136563412880.72,4594578806704830.0
20.36203449001343,1.0491360512002044e+16,1.6652848196856962e+16,559067454719381.25,548982921139841.9,15291846664043.332,24340145415643.2,265732538127941.97,4748072778788037.0
20.869275179813698,1.0576309739889854e+16,1.691436877848371e+16,563594260237112.1,553428071541650.25,15798804882994.473,25147857428750.332,274551297798342.16,4905538746704999.0
21.38666068340997,1.0660803980350836e+16,1.7179702182948422e+16,568096820218571.2,557849413751579.5,16318805560680.016,25976396859706.44,283597491519860.06,5067059274687181.0
21.91439389707817,1.0744838408847458e+16,1.7448932486052936e+16,572574877572031.9,562246695315355.1,16852118251185.4,26826196647501.53,292875848850899.56,5232718340568521.0
22.452681775019734,1.0828408162380936e+16,1.7722145249062798e+16,577028173156242.6,566619661766145.4,17399017084880.959,27697697199525.957,302391181026463.25,5402601356448588.0
23.00173541052013,1.0911508352363466e+16,1.7999427555530092e+16,581456446466345.1,570968057298115.6,17959780834774.57,28591346505010.96,312148382202613.2,5576795189859796.0
23.561770118730532,1.0994134077140696e+16,1.8280868048286028e+16,585859436301189.5,575291625421691.4,18534692984466.082,29507600251330.12,322152430732417.1,5755388185454233.0
24.133005521105144,1.1076280434172246e+16,1.85665569666273e+16,590236881412409.5,579590109600937.2,19124041797752.684,30446921943250.695,332408390474328.7,5938470187226396.0
24.715665631527248,1.1157942531877208e+16,1.8856586183722516e+16,594588521135654.1,583863253873398.9,19728120389931.56,31409783025222.703,342921412134014.7,6126132561287089.0
25.309978944157795,1.1239115501149236e+16,1.915104924425889e+16,598914096004201.0,588110803452645.8,20347226800849.895,32396663006795.773,353696734640573.25,6318468219204556.0
25.91617852304095,1.1319794506545162e+16,1.9450041402351536e+16,603213348345184.8,592332505313745.8,20981664069746.285,33408049591251.285,364739686558148.6,6515571641928317.0
26.53450209350177,1.1399974757150194e+16,1.975365965973496e+16,607486022858585.6,596528108761814.6,21631740311932.465,34444438807537.414,376055687533886.0,6717538904310970.0
27.165192135371807,1.14796515171216e+16,2.006200280425392e+16,611731867179083.1,600697365983726.2,22297768797359.168,35506335145594.4,387650249783204.2,6924467700243336.0
27.808495978079243,1.1558820115911942e+16,2.037517144867301e+16,615950632420837.0,604840032583072.4,22980068031111.246,36594251695155.71,399528979613324.06,7136457368417553.0
28.464665897640828,1.1637475958172618e+16,2.069326806981899e+16,620142073705226.1,608955868098380.9,23678961835875.04,37708710288109.0,411697578985989.56,7353608918732800.0
29.133959215593645,1.1715614533337026e+16,2.1016397048072404e+16,624305950671530.9,613044636504587.8,24394779436419.645,38850241644500.59,424161847120297.56,7576025059358030.0
29.816638399905518,1.179323142488389e+16,2.1344664707221956e+16,628442027970543.6,617106106697742.8,25127855546133.297,40019385522264.1,436927682136540.4,7803810224464870.0
30.51297116790363,1.187032231927836e+16,2.1678179354695184e+16,632550075741045.9,621140052962887.2,25878530455651.824,41216690870752.23,450001082741932.56,8037070602644536.0
31.223230591261704,1.1946883014591188e+16,2.201705132217743e+16,636629870069085.8,625146255425060.2,26647150123618.61,42442715988148.49,463388149959075.94,8275914166021270.0
31.947695203086937,1.2022909428793214e+16,2.2361393006631536e+16,640681193430006.1,629124500483332.5,27434066269608.68,43698028682835.2,477095088897999.9,8520450700074569.0
32.686649107148675,1.2098397607724722e+16,2.27113189117281e+16,644703835113093.2,633074581227816.0,28239636469251.266,44983206438787.61,491128210572577.75,8770791834181831.0
33.44038208929165,1.2173343732737536e+16,2.3066945689697332e+16,648697591628825.1,636996297839553.4,29064224251582.156,46298836585064.77,505493933762088.9,9027051072892690.0
34.20918973107749,1.2247744128008504e+16,2.342839218361226e+16,652662267098588.0,640889457973215.1,29908199198653.38,47645516469465.016,520198786918683.25,9289343827945126.0
34.993373525699035,1.2321595267523142e+16,2.379577947011155e+16,656597673626835.1,644753877122527.4,30771937047428.14,49023853636409.83,535249410121465.44,9557787451033682.0
35.793240996213015,1.2394893781728268e+16,2.416923090257166e+16,660503631655579.0,648589378968392.9,31655819793984.48,50434466009115.31,550652557077879.9,9832501267338464.0
36.60910581613728,1.2467636463852678e+16,2.4548872154736548e+16,664379970301221.8,652395795709625.8,32560235800050.38,51877982076114.516,566415097173063.0,1.0113606609823754e+16
37.44128793246003,1.2539820275895568e+16,2.4934831264811636e+16,668226527673663.4,656172968376320.0,33485579901889.45,53355041082181.44,582544017567793.1,1.0401226854314192e+16
38.29011369110923,1.2611442354282248e+16,2.532723868003197e+16,672043151177685.8,659920747125780.2,34432253521555.074,54866293223713.82,599046425345624.1,1.0695487455355364e+16
39.15591596493141,1.2682500015187654e+16,2.572622730171013e+16,675829697796634.8,663638991521102.4,35400664780528.38,56412399848622.63,615929549709791.8,1.0996515982865798e+16
40.03903428423004,1.275299075952852e+16,2.613193253077255e+16,679586034358444.0,667327570792386.5,36391228615752.33,57994033660777.49,633200744230426.9,1.1304442159586246e+16
40.93981496991464,1.2822912277625278e+16,2.6544492313791028e+16,683312037784061.1,670986364080694.4,37404366898073.85,59611878929052.45,650867489142597.2,1.161939789933126e+16
41.85861126931294,1.2892262453535752e+16,2.6964047189517204e+16,687007595318384.5,674615260664805.0,38440508553101.234,61266631701016.3,668937393695653.2,1.1941517346048488e+16
42.7957834946992,1.2961039369063022e+16,2.7390740335927252e+16,690672604743829.9,678214160170946.9,39500089684485.24,62959000021307.04,687418198554392.4,1.22709369136893e+16
43.751699164593184,1.3029241307440488e+16,2.7824717617784296e+16,694306974576712.9,681782972765621.0,40583553699626.75,64689704154730.04,706317778252425.5,1.2607795326894676e+16
44.72673314788505,1.309686675669778e+16,2.826612763472602e+16,697910624246595.5,685321619331722.8,41691351437815.22,66459476814117.19,725644143698237.6,1.2952233662499714e+16
