t(s),Total solute volume 1,Total retention volume 1,Total 1 volume 1,Total 2 volume 1,Total 3 volume 1,Total 4 volume 1,Total 5 volume 1,Total 6 volume 1
0.1,1343181032126672.5,2872917611672401.5,563076449980376.4,966660129565354.2,0.0,0.0,0.0,-1.5603494592410886e-89
0.202,1996790630008642.2,4342462488315021.5,837076910397703.0,1437050043145116.8,13118807226.168703,49244858097.86819,1925783090477.211,69556758007758.64
0.30604000000000003,2481039633044926.0,5488188612739225.0,1040079500439235.4,1785554357652211.0,32926365627.895348,123599785879.7415,4837984105224.897,176520611346119.0
0.41216080000000005,2878465117001466.5,6477281277775210.0,1206684700487375.8,2071573512152508.8,57875452077.73044,217255839804.04666,8507187430524.405,311775629411457.4
0.5204040160000001,3220758244665234.5,7373189047341004.0,1350177801104726.5,2317915013685114.0,87212025840.25198,327382340462.2043,12822251868742.924,471101141650883.8
0.6308120963200001,3523914648069153.5,8207544315817914.0,1477264350080508.5,2536090600419472.0,120479676821.75085,452265955984.932,17715983041110.71,651985988574865.8
0.7434283382464002,3797334976286838.0,8998724580065963.0,1591885204515626.2,2732865731567116.5,157370311690.74136,590750139261.9791,23143046401774.87,852747500843657.0
0.8582969050113283,4047104501682555.5,9758506053480908.0,1696591378528220.0,2912619855691995.0,197662111058.7671,742002213638.9056,29070813788352.46,1072179839465085.9
0.9754628431115548,4277435257244018.5,1.049497107863133e+16,1793148603361328.5,3078384288392292.0,241188622496.53857,905397347449.3315,35474808274986.3,1309381535388754.5
1.094972099973786,4491389883588772.5,1.1213957846872304e+16,1882840772140343.5,3232363150584556.5,287821446669.8279,1080453558039.2991,42336153788033.63,1563659611765882.2
1.2168715419732616,4691281052211027.0,1.1919855047130686e+16,1966637382560963.5,3376220825440895.5,337459702901.38574,1266792165895.6643,49640023866876.94,1834471511182127.0
1.3412089728127268,4878908190081227.0,1.2616069699006618e+16,2045292774485396.5,3511252324348368.0,390023213359.5055,1464112208467.804,57374638236656.47,2121387636433145.8
1.4680331522689813,5055705844454291.0,1.330531842659846e+16,2119408326126669.8,3638490062089943.5,445447878510.26526,1672173079932.3325,65530582095524.93,2424065990873573.5
1.597393815314361,5222840948642343.0,1.3989817164729438e+16,2189473228946478.5,3758773857071053.0,503682418254.0204,1890782297679.5566,74100326489040.8,2742234338864580.0
1.729341691620648,5381278993599974.0,1.4671409386329314e+16,2255892227522396.0,3872798553681941.5,564686003486.7231,2119786611408.23,83077879772613.22,3075677259137488.0
1.863928525453061,5531830464274413.0,1.5351655515301948e+16,2319005086184168.5,3981147441606599.0,628426490176.4185,2359065374025.8486,92458527765028.86,3424226503607533.0
2.001207095962122,5675184297903061.0,1.6031896948959446e+16,2379100615105448.0,4084316335087564.5,694879074022.7192,2608525491389.3413,102238635806115.16,3787753660491857.5
2.1412312378813647,5811932545379214.0,1.6713302960414156e+16,2436427008623526.0,4182731321215274.5,764025246578.0441,2868097503711.4937,112415495181721.98,4166164467264126.0
2.284055862638992,5942588911630119.0,1.7396905751129984e+16,2491199617572714.0,4276762103065548.0,835851972433.8534,3137732496828.488,122987202081339.12,4559394332311009.0
2.4297369798917723,6067602938489725.0,1.8083627111769116e+16,2543606894902856.0,4366732206827964.0,910351031770.3649,3417399634228.927,133952560889576.64,4967404759993011.0
2.578331719489608,6187371022394174.0,1.8774299019384628e+16,2593815014420219.0,4452926911019689.5,987518488785.2524,3707084161622.238,145311006000158.03,5390180462899971.0
2.7298983538794,6302245091514974.0,1.9469679774129932e+16,2641971508338525.0,4535599491243743.0,1067354257442.9877,4006785776840.825,157062537949467.47,5827727005048957.0
2.884496320956988,6412539524239961.0,2.0170466801965176e+16,2688208167583356.5,4614976199280493.0,1149861743516.9043,4316517286138.728,169207670775117.8,6280068861056585.0
3.0421862473761276,6518536727118360.0,2.0877306929315428e+16,2732643380128974.5,4691260277422550.0,1235047547191.6118,4636303487828.983,181747388284436.34,6747247805326074.0
3.2030299723236504,6620491677622003.0,2.1590804715779788e+16,2775384035374486.0,4764635227808502.0,1322921214285.4822,4966180238436.765,194683107475869.56,7229321566046199.0
3.3670905717701234,6718635658031016.0,2.231152927743954e+16,2816527089430391.5,4835267499625332.0,1413495026912.6787,5306193666905.652,208016647762467.06,7726362693896498.0
3.5344323832055258,6813179350434123.0,2.3040019924309988e+16,2856160862577217.0,4903308716517774.0,1506783826442.7986,5656399510046.905,221750204946593.25,8238457606497795.0
3.7051210308696363,6904315422104295.0,2.377679085693556e+16,2894366123083849.0,4968897537231151.0,1602804863142.2034,6016862548149.984,235886329119597.03,8765705777985402.0
3.879223451487029,6992220700651705.0,2.452233510975414e+16,2931216999055920.5,5032161221025166.0,1701577668037.5994,6387656124014.363,250427905830329.1,9308219049398970.0
4.0568079205167695,7077058016189993.0,2.5277127886419524e+16,2966781750692414.0,5093216953443720.0,1803123943428.8357,6768861731989.535,265378139996840.9,9866121040421146.0
4.237944078927105,7158977771105226.0,2.604162940051707e+16,3001123428350365.0,5152172976046182.0,1907467469164.2656,7160568666187.38,280740542136588.5,1.0439546646743342e+16
4.422702960505647,7238119285382449.0,2.681628731108996e+16,3034300436520748.5,5209129554611671.0,2014634022328.7356,7562873719045.424,296518916569434.25,1.1028641610264276e+16
4.61115701971576,7314611955757801.0,2.7601538824049984e+16,3066367019757964.0,5264179813357522.0,2124651308417.6638,7975880923008.869,312717351310034.56,1.1633562151635238e+16
4.803380160110075,7388576259470209.0,2.8397812516402388e+16,3097373683463733.5,5317410457319106.0,2237548902407.29,8399701329363.383,329340209415730.56,1.225447465650185e+16
4.9994477633122765,7460124627537772.0,2.920552992921767e+16,3127367559974312.5,5368902400829310.0,2353358198401.198,8834452819263.732,346392121595791.5,1.2891555408262824e+16
5.199436718578522,7529362207883161.0,3.00251069666611e+16,3156392728471180.5,5418731316724402.0,2472112366751.0166,9280259942821.293,363877979919884.2,1.3544990361352904e+16
5.403425452950093,7596387534985103.0,3.0856955131582604e+16,3184490495706371.0,5466968118278763.0,2593846317726.37,9737253782778.275,381802932489728.4,1.4214974950022146e+16
5.611493962009095,7661293119821499.0,3.1701482622751616e+16,3211699643313257.5,5513679383775037.0,2718596670953.811,10205571839840.1,400172378959179.4,1.4901713928371838e+16
5.823723841249277,7724165971530498.0,3.2559095314485428e+16,3238056646492643.0,5558927731933038.0,2846401729963.903,10685357937184.758,418991966805519.44,1.5605421238056594e+16
6.040198318074262,7785088060323421.0,3.3430197635924084e+16,3263595868071062.5,5602772155058914.0,2977301461283.9873,11176762142038.273,438267588269251.94,1.6326319900598096e+16
6.261002284435747,7844136729644635.0,3.431519336437039e+16,3288349731282760.5,5645268315668181.0,3111337477596.1885,11679940702512.629,458005377891735.44,1.7064641931702982e+16
6.486222330124463,7901385064314297.0,3.5214486344806804e+16,3312348874099269.5,5686468811430754.0,3248553024548.9907,12195055998160.752,478211710590106.4,1.782062827534962e+16
6.715946776726952,7956902220354545.0,3.612848114580423e+16,3335622287496169.5,5726423412540046.0,3388992970867.9404,12722276502918.637,498893200217381.94,1.859452875572231e+16
6.950265712261491,8010753721343789.0,3.705758366048365e+16,3358197439688192.0,5765179274993307.0,3532703801459.936,13261776759286.803,520056698562794.25,1.9386602045334836e+16
7.18927102650672,8063001725433272.0,3.800220165989666e+16,3380100388065475.5,5802781132757952.0,3679733613246.492,13813737362759.066,541709294753469.7,2.019711564791045e+16
7.433056447036854,8113705266566730.0,3.8962745305121656e+16,3401355880315547.0,5839271471372491.0,3830132113496.5303,14378344955636.242,563858315023693.2,2.1026345894774064e+16
7.681717575977592,8162920472947495.0,3.9939627623476344e+16,3421987446007206.5,5874690685172949.0,3983950620458.974,14955792229476.174,586511322822419.6,2.187457795367635e+16
7.935351927497144,8210700765379305.0,4.0933264953494664e+16,3442017479737129.0,5909077220034633.0,4141242066121.4116,15546277935526.992,609676119233457.8,2.2742105849108436e+16
8.194058966047088,8257097037753836.0,4.194407736268649e+16,3461467316792337.5,5942467703265458.0,4302061000942.6406,16150006902573.58,633360743685996.1,2.3629232493285316e+16
8.45794014536803,8302157821658960.0,4.297248904156418e+16,3480357302155758.0,5974897062071095.0,4466463600426.431,16767190061698.314,657573474935936.9,2.4536269727080316e+16
8.72709894827539,8345929436826744.0,4.40189286769659e+16,3498706853575714.5,6006398631829445.0,4634507673420.121,17398044477519.947,682322832300948.8,2.5463538370282108e+16
9.0016409272409,8388456128923028.0,4.5083829807322504e+16,3516534519328863.5,6037004255254894.0,4806252672035.895,18042793385527.23,707617577134237.1,2.6411368280623896e+16
9.281673745785717,8429780195993817.0,4.6167631162185656e+16,3533858031227925.0,6066744373399328.0,4981759703105.457,18701666235171.668,733466714523879.1,2.738009842110236e+16
9.567307220701432,8469942104724024.0,4.7270776988052184e+16,3550694353358640.5,6095648109321128.0,5161091541089.153,19374898738424.56,759879495206183.1,2.8370076935162744e+16
9.85865336511546,8508980597525782.0,4.8393717362281256e+16,3567059726972391.5,6123743345154522.0,5344312642370.988,20062732923539.027,786865417682928.4,2.93816612293797e+16
10.155826432417769,8546932791354676.0,4.953690849668736e+16,3582969711911061.5,6151056793225532.0,5531489160878.471,20765417193790.344,814434230533600.2,3.0415218063307836e+16
10.458942961066125,8583834269048420.0,5.070081303222077e+16,3598439224897229.0,6177614061786667.0,5722688964974.55,21483206390994.863,842595934914815.6,3.147112364621769e+16
10.768121820287448,8619719163893029.0,5.188590032598225e+16,3613482574985243.0,6203439715877404.0,5917981655574.833,22216361863632.598,871360787240091.2,3.25497637404673e+16
11.083484256693197,8654620238043034.0,5.309264673169221e+16,3628113496435863.0,6228557333761711.0,6117438585449.444,22965151539422.035,900739302034008.4,3.365153377129274e+16
11.405153941827061,8688568955354051.0,5.4321535874610776e+16,3642345179248475.0,6252989559344078.0,6321132879673.999,23729850002211.953,930742254955536.8,3.4776838942826704e+16
11.733257020663602,8721595549125829.0,5.55730589218077e+16,3656190297559726.5,6276758150922883.0,6529139457198.724,24510738573076.35,961380685985992.1,3.5926094360183e+16
12.067922161076874,8753729085201652.0,5.684771484858893e+16,3669661036095520.0,6299884026601709.0,6741535053509.015,25308105395511.113,992665902777726.1,3.709972515746326e+16
12.409280604298411,8784997520823584.0,5.814601070180829e+16,3682769114843755.0,6322387306646313.0,6958398244354.347,26122245524645.812,1024609484160145.0,3.829816663156546e+16
12.75746621638438,8815427759602131.0,5.946846186072681e+16,3695525812098257.0,6344287353045150.0,7179809470525.797,26953461020398.418,1057223283800194.1,3.952186438169012e+16
13.112615540712067,8845045702923250.0,6.081559229601871e+16,3707941986009140.5,6365602806505912.0,7405851063665.563,27802061044507.84,1090519434014849.5,4.077127445445746e+16
13.474867851526309,8873876298083212.0,6.218793482747254e+16,3720028094761501.0,6386351621097316.0,7636607273094.344,28668361961395.016,1124510349733608.1,4.2046863494562376e+16
13.844365208556836,8901943583414127.0,6.3586031380886856e+16,3731794215492511.0,6406551096724938.0,7872164293645.146,29552687442806.902,1159208732609258.5,4.334910890090958e+16
14.221252512727972,8929270730637334.0,6.501043324462177e+16,3743250062046463.0,6426217909612125.0,8112610294494.421,30455368576210.688,1194627575275625.8,4.467849898817958e+16
14.605677562982532,8955880084659720.0,6.646170132622821e+16,3754405001657820.5,6445368140940577.0,8358035448982.8,31376743976910.11,1230780165751210.2,4.603553315379308e+16
14.997791114242183,8981793201008092.0,6.79404064095456e+16,3765268070644103.0,6464017303791154.0,8608531965420.805,32317159903865.223,1267680091987990.2,4.742072205024489e+16
15.397746936527026,9007030881078700.0,6.944712941263011e+16,3775847989182912.5,6482180368512169.0,8864194118875.184,33276970379200.664,1305341246564832.8,4.883458776279348e+16
15.805701875257567,9031613205363328.0,7.0982461646852664e+16,3786153175240650.5,6499871786631588.0,9125118283934.361,34256537311397.156,1343777831525256.0,5.027766399249654e+16
16.221815912762718,9055559564798760.0,7.25470050774764e+16,3796191757714569.5,6517105513418558.0,9391402968451.98,35256230622162.06,1383004363359493.5,5.175049624459445e+16
16.64625223101797,9078888690373804.0,7.414137258601307e+16,3805971588844416.5,6533895029191085.0,9663148848269.8,36276428376983.72,1423035678130908.8,5.325364202224781e+16
17.079177275638333,9101618681116668.0,7.576618823463218e+16,3815500255944954.0,6550253359457802.0,9940458802921.35,37317516919377.21,1463886936747204.2,5.478767102564328e+16
17.5207608211511,9123767030574348.0,7.742208753288386e+16,3824785092506501.5,6566193093974791.0,10223437952320.072,38379891008832.45,1505573630376796.2,5.635316535649022e+16
17.97117603757412,9145350651887336.0,7.910971770698403e+16,3833833188706479.5,6581726404791307.0,10512193694435.832,39463953962483.695,1548111586011070.8,5.795071972793101e+16
18.430599558325603,9166385901553596.0,8.082973797189606e+16,3842651401371600.0,6596865063352216.0,10806835743965.418,40570117800517.45,1591516972173312.5,5.958094167990095e+16
18.899211549492115,9186888601968798.0,8.258281980643056e+16,3851246363426886.0,6611620456719696.0,11107476172003.01,41698803395345.91,1635806304775224.5,6.12444517999727e+16
19.37719578048196,9206874062822084.0,8.436964723157957e+16,3859624492865094.5,6626003602971497.0,11414229446717.902,42850440624570.32,1680996453122153.0,6.294188394972743e+16
19.864739696091597,9226357101421202.0,8.61909170922885e+16,3867792001267219.5,6640025165828291.0,11727212475047.605,44025468527766.79,1727104646068185.0,6.467388549670088e+16
20.36203449001343,9245352062014452.0,8.80473393428654e+16,3875754901902427.5,6653695468559491.0,12046544645414.975,45224335467127.99,1774148478322486.0,6.6441117551953864e+16
20.869275179813698,9263872834171952.0,8.993963733621339e+16,3883519017433739.5,6667024507211739.0,12372347871479.248,46447499291995.88,1822145916908266.5,6.824425521332414e+16
21.38666068340997,9281932870284022.0,9.186854811707835e+16,3891089987253546.0,6680021963202234.0,12704746636931.137,47695427507326.54,1871115307775987.2,7.008398781441825e+16
21.91439389707817,9299545202230246.0,9.383482271948336e+16,3898473274471416.5,6692697215315031.0,13043868041342.916,48968597446128.305,1921075382572402.0,7.196101917940685e+16
22.452681775019734,9316722457268462.0,9.58392264685301e+16,3905674172574982.0,6705059351136125.0,13389841847086.102,50267496445918.41,1972045265567241.2,7.387606788369011e+16
23.00173541052013,9333476873189726.0,9.788253928673438e+16,3912697811783079.0,6717117177960049.0,13742800527327.781,51592622029244.27,2024044480739366.2,7.582986752050565e+16
23.561770118730532,9349820312781992.0,9.996555600506824e+16,3919549165109012.0,6728879233199195.0,14102879315119.982,52944482088320.33,2077092959024360.2,7.782316697355024e+16
24.133005521105144,9365764277641758.0,1.0208908667886362e+17,3926233054150631.5,6740353794323733.0,14470216253595.01,54323595073831.59,2131211045725561.2,7.98567306956944e+16
24.715665631527248,9381319921370872.0,1.0425395690875003e+17,3932754154622552.5,6751548888359057.0,14844952247281.21,55730490187957.83,2186419508090747.0,8.193133899387165e+16
25.309978944157795,9396498062192498.0,1.064610081667784e+17,3939117001644889.5,6762472300965319.0,15227231114554.102,57165707581675.97,2242739543056590.0,8.404778832022264e+16
25.91617852304095,9411309195018490.0,1.0871109812788907e+17,3945325994802036.0,6773131585121963.0,15617199641238.182,58629798556398.19,2300192785163258.0,8.620689156958576e+16
26.53450209350177,9425763502997634.0,1.1100510100688675e+17,3951385402983855.5,6783534069438876.0,16015007635375.705,60123325770006.28,2358801314641559.0,8.84094783834195e+16
27.165192135371807,9439870868572906.0,1.1334390790106736e+17,3957299369020972.5,6793686866113985.0,16420807983178.512,61646863447347.125,2418587665674971.0,9.065639546025397e+16
27.808495978079243,9453640884073672.0,1.157284271386598e+17,3963071914125139.5,6803596878556291.0,16834756706180.482,63200997595250.766,2479574834839323.0,9.29485068727638e+16
28.464665897640828,9467082861867028.0,1.1815958463323178e+17,3968706942144807.0,6813270808691562.0,17257013019607.842,64786326222141.22,2541786289722528.5,9.528669439156397e+16
29.133959215593645,9480205844091276.0,1.2063832424421243e+17,3974208243645494.5,6822715163967338.0,17687739391985.76,66403459562306.9,2605245977727224.5,9.767185781582688e+16
29.816638399905518,9493018611992750.0,1.2316560814368859e+17,3979579499823908.0,6831936264072462.0,18127101605999.78,68053020304902.336,2669978335059071.5,1.001049153108296e+17
30.51297116790363,9505529694886122.0,1.2574241718962154e+17,3984824286264163.0,6840940247385571.0,18575268820631.086,69735643827753.25,2736008295903526.0,1.0258680375253381e+17
31.223230591261704,9517747378756746.0,1.2836975130564427e+17,3989946076544052.0,6849733077166131.0,19032413634585.62,71451978436040.5,2803361301794073.5,1.0511847907931262e+17
31.947695203086937,9529679714523188.0,1.3104862986758678e+17,3994948245698697.5,6858320547500665.0,19498712151036.953,73202685605939.95,2872063311174886.5,1.0770091665093226e+17
32.686649107148675,9541334525975836.0,1.33780092096888e+17,3999834073548580.0,6866708289016195.0,19974344043703.73,74988440233294.08,2942140809161055.0,1.103351116149093e+17
33.44038208929165,9552719417407934.0,1.3656519746104627e+17,4004606747898537.5,6874901774372016.0,20459492624282.88,76809930887400.3,3013620817499504.5,1.1302207928035672e+17
34.20918973107749,9563841780953250.0,1.3940502608126578e+17,4009269367613755.0,6882906323540457.0,20954344911259.867,78667860069993.19,3086530904733818.0,1.1576285549944326e+17
34.993373525699035,9574708803644412.0,1.4230067914745237e+17,4013824945578746.5,6890727108886676.0,21459091700119.25,80562944479510.25,3160899196576337.5,1.1855849705658661e+17
35.793240996213015,9585327474204930.0,1.4525327934072208e+17,4018276411544634.5,6898369160056784.0,21973927634976.195,82495915280721.33,3236754386490834.5,1.2141008206550944e+17
36.60910581613728,9595704589587426.0,1.4826397126357536e+17,4022626614870020.5,6905837368683138.0,22499051281654.664,84467518379816.28,3314125746489332.0,1.2431871037428395e+17
37.44128793246003,9605846761269202.0,1.5133392187789818e+17,4026878327160233.5,6913136492915309.0,23034665202233.5,86478514705034.48,3393043138146457.5,1.2728550397849966e+17
38.29011369110923,9615760421317040.0,1.544643209509554e+17,4031034244809629.0,6920271161784595.0,23580976031086.188,88529680492931.39,3473537023835052.0,1.303116074426852e+17
39.15591596493141,9625451828230478.0,1.5765638150953507e+17,4035096991451296.0,6927245879409495.0,24138194552437.91,90621807580376.95,3555638478186656.0,1.3339818833012466e+17
40.03903428423004,9634927072574524.0,1.6091134030240842e+17,4039069120318272.0,6934065029049384.0,24706535779465.594,92755703702377.66,3639379199780613.5,1.3654643764120382e+17
40.93981496991464,9644192082410324.0,1.6423045827127206e+17,4042953116520166.5,6940732877012781.0,25286219034966.312,94932192795820.5,3724791523065662.0,1.3975757026043235e+17
41.85861126931294,9653252628533050.0,1.6761502103034442e+17,4046751399238926.5,6947253576427102.0,25877468033619.668,97152115309242.67,3811908430517874.5,1.4303282541228467e+17
42.7957834946992,9662114329525192.0,1.7106633935477606e+17,4050466323847238.5,6953631170875293.0,26480510965871.76,99416328518721.45,3900763565038928.5,1.4637346712600483e+17
