t(s),Total solute volume 1,Total retention volume 1,Total 1 volume 1,Total 2 volume 1,Total 3 volume 1,Total 4 volume 1,Total 5 volume 1,Total 6 volume 1
0.1,988500314890707.8,1201179625827040.0,98333854761724.14,114345456174609.27,0.0,0.0,0.0,0.0
0.202,1444216564849697.8,1849694682250683.8,143667513562507.1,167060749979292.38,117401805618.89139,242086460769.85025,3903493007996.3506,90486872584799.67
0.30604000000000003,1761256718701956.2,2373609451330565.0,175205976583548.28,203734589415125.6,289195747082.4205,596347166043.3281,9615809396527.02,222910814320280.56
0.41216080000000005,2006899627281685.5,2841633686292445.0,199641997360801.75,232149503015639.94,499225348007.26465,1029474458107.5059,16599858660978.668,384814000167226.1
0.5204040160000001,2207258591235327.5,3278979538075114.5,219573270099394.47,255326164974605.16,739413016229.1222,1524817748369.431,24587159745833.93,569970121255354.4
0.6308120963200001,2375762321172384.5,3697972567515614.5,236335653642067.3,274817950695594.6,1004811776408.4932,2072181010319.361,33413310035207.355,774566339183633.8
0.7434283382464002,2520429295845334.0,4105658850994434.5,250726808765121.66,291552403258083.5,1292078771995.1018,2664675486647.581,42967235292408.1,996026353574842.4
0.8582969050113283,2646512124342704.5,4506491523089223.0,263269253563251.6,306137121852155.06,1598822678609.2644,3297374238099.3623,53169494687391.03,1232507331727009.5
0.9754628431115548,2757674930001678.0,4903491982058042.0,274327487033418.0,318995956479126.6,1923269813992.0498,3966623772553.2935,63961181129059.305,1482642533828212.2
1.094972099973786,2856592420546878.5,5298823274232021.0,284167583265637.2,330438305804837.5,2264072618475.1074,4669649204781.469,75297554679080.88,1745393688112338.2
1.2168715419732616,2945285086110247.0,5694101461263300.0,292990536210868.2,340697891422624.5,2620190771642.9463,5404309170606.535,87144090689305.2,2019959356888001.2
1.3412089728127268,3025320591963599.0,6090577251253284.0,300952293790756.56,349956054097003.5,2990813018873.862,6168934671625.569,99473881277146.62,2305714682434277.0
1.4680331522689813,3097941660494751.5,6489248052020389.0,308176479317666.3,358356546599710.6,3375303466776.651,6962218366247.964,112265850220017.61,2602169993555217.5
1.597393815314361,3164150941997382.5,6890930287122996.0,314762834255726.4,366015351197007.0,3773163400904.6875,7783135861930.387,125503483850441.3,2908941376559612.5
1.729341691620648,3224769407540970.5,7296307831763026.0,320793027016152.3,373027434285286.2,4184003380695.134,8630888195098.268,139173903589829.33,3225729167754995.0
1.863928525453061,3280477745139409.5,7705965480763900.0,326334770957802.56,379471534921497.6,4607522379131.843,9504858834518.676,153267172663971.16,3552301875867573.0
2.001207095962122,3331846456246294.0,8120412696396735.0,331444818320871.7,385413646256041.0,5043491891779.541,10404580929558.574,167775768010946.34,3888483934741245.0
2.1412312378813647,3379358213222560.0,8540100850164223.0,336171184299009.44,390909601748295.3,5491743636610.969,11329711961270.238,182694171555063.16,4234146223741403.5
2.284055862638992,3423424779286148.5,8965435994613892.0,340554830198988.5,396007032393484.94,5952159902187.92,12280013853408.256,198018549518892.16,4589198629460783.0
2.4297369798917723,3464400022416858.5,9396788493251818.0,344630958035589.1,400746872115128.7,6424665883899.473,13255337182149.625,213746497824495.1,4953584139793694.0
2.578331719489608,3502590068424096.5,9834500397277126.0,348430020536620.75,405164532228164.3,6909223535719.127,14255608510373.873,229876837876457.97,5327274106165717.0
2.7298983538794,3538261322570738.5,1.027889117744756e+16,351978519116563.1,409290829345834.9,7405826593001.495,15280820136362.736,246409451276210.97,5710264408408823.0
2.884496320956988,3571646878887836.0,1.073026223590948e+16,355299641461218.0,413152726781600.0,7914496511076.258,16331021730748.64,263345144983499.44,6102572325553500.0
3.0421862473761276,3602951693212656.5,1.1188900500085256e+16,358413776130247.4,416773932943888.25,8435279127773.007,17406313466193.838,280685540547573.75,6504233964656896.0
3.2030299723236504,3632356796649069.0,1.165508131694392e+16,361338931703020.4,420175388731035.06,8968241903783.605,18506840338645.234,298432982552192.75,6915302135066183.0
3.3670905717701234,3660022755964856.5,1.2129070807785774e+16,364091081011389.0,423375667815142.5,9513471628329.553,19632787448197.72,316590462534150.1,7335844581383713.0
3.5344323832055258,3686092537050906.5,1.2611127802566356e+16,366684445990365.44,426391307874694.8,10071072502543.656,20784376059016.945,335161555464106.94,7765942507624717.0
3.7051210308696363,3710693890859899.5,1.3101505443327382e+16,369131735026094.1,429237086589668.8,10641164531739.95,21961860296455.664,354150366502273.25,8205689339521252.0
3.879223451487029,3733941354144776.5,1.3600452524893546e+16,371444341984951.4,431926253078340.1,11223882172020.307,23165524368927.23,373561486215980.7,8655189682928543.0
4.0568079205167695,3755937937070688.5,1.4108214625245564e+16,373632514093505.06,434470723112962.7,11819373187636.766,24395680224713.594,393399952810859.06,9114558444745226.0
4.237944078927105,3776776554476174.0,1.4625035066257874e+16,375705494317249.3,436881244681895.56,12427797684036.14,25652665571426.684,413671220210128.8,9583920089316982.0
4.422702960505647,3796541245881754.0,1.515115573667113e+16,377671642724399.9,439167539114937.8,13049327288172.006,26936842199565.71,434381131037862.5,1.0063408008424406e+16
4.61115701971576,3815308220344975.5,1.5686817802471282e+16,379538540425792.75,441338421947665.25,13684144452915.73,28248594562434.145,455535893736492.4,1.0553163987001034e+16
4.803380160110075,3833146755264859.0,1.6232262324710566e+16,381313078986000.7,443401906891251.56,14332441866569.69,29588328573274.438,477142063187476.7,1.1053337749941122e+16
4.9994477633122765,3850119972755135.5,1.67877308008323e+16,383001537655230.6,445365295639979.94,14994421951818.213,30956470587353.94,499206524314867.8,1.1564086577927878e+16
5.199436718578522,3866285512874491.0,1.7353465642466358e+16,384609650340816.75,447235255747618.7,15670296441136.732,32353466542268.79,521736478240725.7,1.2085574982279296e+16
5.403425452950093,3881696119557436.0,1.7929710600228074e+16,386142663894337.7,449017888405381.7,16360286017851.086,33779781234209.824,544739430633592.9,1.2617974430485246e+16
5.611493962009095,3896400152330738.0,1.851671114413003e+16,387605389016052.25,450718787635080.2,17064620013808.812,35235897711584.33,568223181949996.9,1.3161463115472764e+16
5.823723841249277,3910442034677832.5,1.911471480668347e+16,389002244857210.56,452343092153980.2,17783536156071.266,36722316770371.84,592195819317154.5,1.3716225762750884e+16
6.040198318074262,3923862648111969.0,1.9723971494538556e+16,390337298221601.7,453895530959500.1,18517280356225.83,38239556538046.836,616665709844572.8,1.4282453470506678e+16
6.261002284435747,3936699679551148.5,2.034473377352162e+16,391614298121635.7,455380463512031.94,19266106536902.46,39788152134932.28,641641495185024.5,1.4860343578479924e+16
6.486222330124463,3948987928384575.0,2.0977257131127304e+16,392836706324665.56,456801915255075.4,20030276490893.418,41368655403528.41,667132087192489.8,1.545009956207608e+16
6.715946776726952,3960759578630610.0,2.162180021986782e+16,394007724426648.3,458163609097295.8,20810059768957.914,42981634697771.016,693146664547320.1,1.6051930948699196e+16
6.950265712261491,3972044440766788.5,2.2278625084346064e+16,395130317908884.75,459468993386375.44,21605733592960.54,44627674725342.89,719694670237817.2,1.666605325372787e+16
7.18927102650672,3982870167132172.0,2.294799737448017e+16,396207237565760.0,460721266825833.8,22417582791472.36,46307376437151.49,746785809803355.0,1.7292687933924474e+16
7.433056447036854,3993262444234427.5,2.3630186546941e+16,397241038635042.4,461923400720280.9,23245899755364.97,48021356958919.94,774430050257549.9,1.7932062356379408e+16
7.681717575977592,4003245164818463.5,2.4325466056561628e+16,398234097914893.56,463078158879575.44,24090984411271.344,49770249560538.49,802637619621412.9,1.858440978135545e+16
7.935351927497144,4012840582153650.5,2.503411353922804e+16,399188629112021.7,464188115466104.5,24953144211072.902,51554703659426.086,831419007005979.9,1.9249969357619788e+16
8.194058966047088,4022069448658856.0,2.575641098754552e+16,400106696631803.7,465255671030339.25,25832694135822.934,53375384854656.55,860784963192191.4,1.99289861290418e+16
8.45794014536803,4030951140699265.5,2.6492644920400348e+16,400990227992794.56,466283066946774.06,26729956712722.44,55232974989042.3,890746501662774.6,2.062171105139688e+16
8.72709894827539,4039503771145391.0,2.7243106547386788e+16,401841025023853.56,467272398434290.7,27645262043948.234,57128172236740.56,921314900046894.9,2.1328401018455644e+16
9.0016409272409,4047744291078405.0,2.8008091928942004e+16,402660773981573.06,468225626320981.6,28578947846285.29,59061691214263.87,952501701943537.9,2.2049318896556948e+16
9.281673745785717,4055688581848505.0,2.8787902132923876e+16,403451054708041.4,469144587693061.1,29531359500649.203,61034263113058.54,984318719093993.9,2.2784733566966532e+16
9.567307220701432,4063351538541300.0,2.958284338827676e+16,404213348933892.0,470031005549911.8,30502850110699.797,63046635852048.66,1016778033877700.6,2.3534919975411184e+16
9.85865336511546,4070747145777129.0,3.0393227236351276e+16,404949047818662.7,470886497572204.3,31493780569846.227,65099574248751.86,1049892002109009.4,2.4300159188255652e+16
10.155826432417769,4077888546655066.5,3.12193706803766e+16,405659458809190.1,471712584097057.9,32504519636029.21,67193860207752.12,1083673256115362.5,2.508073845485614e+16
10.458942961066125,4084788105556799.0,3.2061596333527852e+16,406345811887203.75,472510695382921.0,33535444013741.707,69330292925471.52,1118134708079866.0,2.5876951275681904e+16
10.768121820287448,4091457465440855.0,3.292023256598075e+16,407009265268828.25,473282178237109.9,34586938442815.547,71509689110318.47,1153289553633467.2,2.66890974758473e+16
11.083484256693197,4097907600184511.0,3.379561365130267e+16,407650910611447.75,474028302070509.94,35659395793555.6,73732883217411.72,1189151275683857.5,2.751748328374128e+16
11.405153941827061,4104148862467310.0,3.4688079912493876e+16,408271777777049.3,474750264436521.6,36753217167855.6,76000727697178.9,1225733648469911.0,2.8362421414478016e+16
11.733257020663602,4110191027633931.0,3.559797786795904e+16,408872839195605.8,475449196104937.25,37868812005972.4,78314093257228.88,1263050741832008.0,2.922423115792934e+16
12.067922161076874,4116043333926153.5,3.652566037766126e+16,409455013867263.3,476126165715796.3,39006598198673.01,80673869136970.86,1301116925689799.8,3.010323847112657e+16
12.409280604298411,4121714519430464.5,3.747148678968826e+16,410019171037815.25,476782184053330.75,40167002204503.61,83080963394526.36,1339946874720260.2,3.099977607484748e+16
12.75746621638438,4127212856050944.0,3.843582308743809e+16,410566133578240.8,477418207975795.7,41350459171957.42,85536303205549.19,1379555573229811.2,3.1914183554225708e+16
13.112615540712067,4132546180783680.5,3.941904203761111e+16,411096681095824.5,478035144033162.75,42557413066348.03,88040835173618.38,1419958320215193.5,3.2846807463243292e+16
13.474867851526309,4137721924540330.5,4.04215233391847e+16,411611552801453.7,478633851801307.44,43788316801212.79,90595525651920.36,1461170734608731.2,3.3798001432979784e+16
13.844365208556836,4142747138742587.0,4.144365377352426e+16,412111450155183.06,479215146958335.6,45043632374096.3,93201361075985.98,1503208760704123.8,3.4768126283513964e+16
14.221252512727972,4147628519886647.0,4.2485827355780264e+16,412597039309853.8,479779804126104.75,46323831006576.75,95859348307284.47,1546088673759768.8,3.5757550139384024e+16
14.605677562982532,4152372432256884.0,4.3548445487703544e+16,413068953370597.8,480328559497635.0,47629393288420.5,98570514987510.84,1589827085777086.0,3.676664854852532e+16
14.997791114242183,4156984928949795.5,4.463191711200422e+16,413527794486256.94,480862113269073.2,48960809325757.19,101335909903438.22,1634440951451820.8,3.7795804604618e+16
15.397746936527026,4161471771353770.0,4.57366588683714e+16,413974135787183.6,481381131893028.75,50318578893185.23,104156603362236.33,1679947574296865.0,3.884540907278512e+16
15.805701875257567,4165838447215748.5,4.686309525126017e+16,414408523182481.44,481886250168452.0,51703211589727.06,107033687577182.47,1726364612935540.0,3.991586051859098e+16
16.221815912762718,4170090187413708.0,4.801165876954905e+16,414831477028485.6,482378073180787.5,53115226998562.55,109968277063711.03,1773710087564522.0,4.100756544029932e+16
16.64625223101797,4174231981542115.0,4.918279010816358e+16,415243493679171.44,482857178104845.7,54555154850478.914,112961509045778.94,1822002386586261.0,4.2120938404354904e+16
17.079177275638333,4178268592407853.0,5.037693829175445e+16,415645046928186.56,483324115881629.56,56023535190982.53,116014543872534.2,1871260273410682.0,4.325640218406273e+16
17.5207608211511,4182204569525121.0,5.1594560850518056e+16,416036589351280.7,483779412779356.8,57520918551026.31,119128565445297.8,1921502893426617.2,4.441438790143928e+16
17.97117603757412,4186044261689287.5,5.283612398823646e+16,416418553557137.56,484223571847961.1,59047866121307.57,122304781654886.28,1972749781143405.0,4.5595335172222536e+16
18.430599558325603,4189791828703000.0,5.410210275262002e+16,416791353353853.25,484657074275505.5,60604949930105.19,125544424829313.39,2025020867503487.8,4.679969225402471e+16
18.899211549492115,4193451252320892.0,5.539298120801858e+16,417155384837698.25,485080380654228.8,62192753024619.86,128848752191930.62,2078336487367081.0,4.802791619762232e+16
19.37719578048196,4197026346473607.0,5.670925261057794e+16,417511027410175.6,485493932163212.7,63811869655792.99,132219046330066.11,2132717387170118.5,4.928047300137496e+16
19.864739696091597,4200520766826347.0,5.805141958590568e+16,417858644728890.94,485898151674072.6,65462905466578.61,135656615674253.44,2188184732756884.8,5.055783776877861e+16
20.36203449001343,4203938019722668.0,5.941999430931139e+16,418198585597254.94,486293444785541.25,67146477683647.4,139162794988130.11,2244760117389087.0,5.1860494869145144e+16
20.869275179813698,4207281470559587.5,6.081549868868615e+16,418531184797624.8,486680200792261.06,68863215312506.54,142738945869115.75,2302465569933035.0,5.318893810142212e+16
21.38666068340997,4210554351636397.5,6.2238464550077576e+16,418856763872087.94,487058793592699.44,70613759336015.94,146386457259976.7,2361323563227018.0,5.454367086115336e+16
21.91439389707817,4213759769515946.0,6.368943382602236e+16,419175631854743.1,487429582540678.4,72398762916289.64,150106745971401.6,2421357022630880.0,5.592520631059237e+16
22.452681775019734,4216900711933983.0,6.516895874669057e+16,419488085959027.7,487792913244610.56,74218891599968.53,153901257215711.62,2482589334760256.0,5.733406755197691e+16
23.00173541052013,4219980054289189.5,6.667760203389666e+16,419794412223331.9,488149118318239.0,76074823526851.0,157771465151848.72,2545044356407672.5,5.877078780397945e+16
23.561770118730532,4223000565743836.5,6.821593709803111e+16,420094886117884.2,488498518086337.3,77967249641874.69,161718873441786.16,2608746423653191.5,6.0235910581346184e+16
24.133005521105144,4225964914962890.5,6.978454823796225e+16,420389773115654.3,488841421248580.2,79896873910435.33,165745015818512.34,2673720361167310.5,6.172998987773888e+16
24.715665631527248,4228875675516650.0,7.138403084396098e+16,420679329229805.3,489178125504508.3,81864413537034.86,169851456665746.12,2739991491708772.5,6.325359035179837e+16
25.309978944157795,4231735330970598.5,7.301499160369363e+16,420963801520017.0,489508918142284.4,83870599187248.52,174039791609558.72,2807585645820323.0,6.480728751644344e+16
25.91617852304095,4234546279683972.5,7.467804871133282e+16,421243428569834.56,489834076593782.56,85916175213001.78,178311648122065.5,2876529171725470.0,6.639166793142484e+16
26.53450209350177,4237310839336828.5,7.637383207983288e+16,421518440937019.06,490153868958259.1,88001899881145.69,182668686137377.47,2946848945429264.0,6.800732939915307e+16
27.165192135371807,4240031251204286.0,7.810298355640949e+16,421789061578732.7,490468554496770.7,90128545605318.05,187112598679986.47,3018572381026510.5,6.965488116381781e+16
27.808495978079243,4242709684194661.5,7.986615714127338e+16,422055506253244.56,490778384099299.25,92296899181084.94,191645112505790.84,3091727441220650.5,7.133494411381858e+16
28.464665897640828,4245348238667477.0,8.166401920965658e+16,422317983899743.06,491083600726391.6,94507762024340.81,196267988755944.62,3166342648056892.5,7.304815098752552e+16
29.133959215593645,4247948950045750.0,8.349724873717173e+16,422576696997669.7,491384439827025.56,96761950412960.34,200983023623746.03,3242447093872978.5,7.479514658239192e+16
29.816638399905518,4250513792236139.5,8.536653752854734e+16,422831841906956.3,491681129734224.75,99060295731682.23,205792049034765.44,3320070452471565.0,7.657658796743211e+16
30.51297116790363,4253044680869428.0,8.727259044977182e+16,423083609190374.9,491973892039914.1,101403644720209.88,210696933340429.66,3399242990517607.0,7.839314469909378e+16
31.223230591261704,4255543476373049.5,8.921612566368984e+16,423332183919191.5,492262941950333.5,103792859724508.12,215699582025286.84,3479995579164939.5,8.024549904053245e+16
31.947695203086937,4258011986886287.5,9.11978748690829e+16,423577745963160.06,492548488623251.1,106228818951277.62,220801938428168.97,3562359705915800.5,8.213434618431499e+16
32.686649107148675,4260451971028349.0,9.321858354326765e+16,423820470265883.7,492830735488168.9,108712416725578.33,226005984477488.16,3646367486717465.0,8.40603944785648e+16
33.44038208929165,4262865140528488.5,9.527901118824853e+16,424060527106457.75,493109880550559.3,111244563751583.02,231313741440899.25,3732051678300133.0,8.602436565657035e+16
34.20918973107749,4265253162726948.5,9.737993158045312e+16,424298082348254.6,493386116681166.4,113826187376426.3,236727270689565.5,3819445690760201.0,8.802699506987066e+16
34.993373525699035,4267617662954818.0,9.952213302408195e+16,424533297675666.5,493659631891294.06,116458231857121.05,242248674477282.5,3908583600393451.0,9.006903192483234e+16
35.793240996213015,4269960226800217.5,1.0170641860810051e+17,424766330819540.3,493930609594949.25,119141658630507.16,247880096734695.72,3999500162782497.5,9.215123952273805e+16
36.60910581613728,4272282402267902.0,1.0393360646690107e+17,424997335772017.75,494199228858664.44,121877446586194.97,253623723878877.28,4092230826142859.0,9.427439550339445e+16
37.44128793246003,4274585701838960.5,1.0620453004465834e+17,425226462991417.1,494465664639739.2,124666592342461.72,259481785638519.0,4186811744932627.0,9.643929209227461e+16
38.29011369110923,4276871604436510.5,1.085200383634037e+17,425453859597786.75,494730088013633.1,127510110525056.77,265456555895001.84,4283279793730116.5,9.864673635120565e+16
39.15591596493141,4279141557303210.5,1.1088099629483842e+17,425679669559670.5,494992666391148.6,130409034048868.1,271550353539612.66,4381672581384474.0,1.0089755043261141e+17
40.03903428423004,4281396977796004.5,1.1328828483590637e+17,425904033872646.2,495253563726036.5,133364414402393.75,277765543347182.97,4482028465444056.5,1.0319257183731802e+17
40.93981496991464,4283639255103002.5,1.157428013881434e+17,426127090730118.6,495512940713597.7,136377321934967.33,284104536866428.56,4584386566867717.0,1.0553265367592774e+17
41.85861126931294,4285869751887167.0,1.1824546004081962e+17,426348975686827.56,495770954980817.5,139448846146667.92,290569793327268.06,4688786785023877.0,1.0791866493376677e+17
42.7957834946992,4288089805861338.0,1.2079719185788373e+17,426569821815531.1,496027761268562.9,142580095980857.25,297163820565406.25,4795269812982714.0,1.1035149073940939e+17
43.751699164593184,4290300731298566.0,1.233989451687297e+17,426789759857245.8,496283511606279.3,145772200119263.9,303889175964488.94,4903877153106683.0,1.1283203263677712e+17
