t(s),Total solute volume 1,Total retention volume 1,Total 1 volume 1,Total 2 volume 1,Total 3 volume 1,Total 4 volume 1,Total 5 volume 1,Total 6 volume 1
0.1,1038034012882719.0,1307672365282961.0,121693262551923.95,147945089848319.12,0.0,0.0,0.0,0.0
0.202,1563484556117105.8,1969615385691378.8,183294126184249.53,222834573721818.72,2085198.0157731154,4604051.196742753,82256671.85164136,2040722285.061749
0.30604000000000003,1963791884000921.0,2473909295227948.0,230223903470333.6,279888103982993.06,5290456.951347451,11681166.351434309,208699752.14636356,5178102324.058607
0.41216080000000005,2302414094332396.5,2900495762609788.0,269922064843532.1,328150004558813.5,9397243.229740093,20748827.766173963,370707356.4091551,9198021620.822416
0.5204040160000001,2603144620344091.5,3279348673202008.0,305178018481044.94,371011418510495.8,14308567.279013209,31592885.06001205,564453219.5186472,14005511707.874002
0.6308120963200001,2877841028698523.5,3625405646562373.0,337381878742868.25,410162337507482.94,19972424.249244753,44098512.969805405,787885761.8840262,19549656799.01149
0.7434283382464002,3133395763317073.5,3947349468476786.0,367341676949519.6,446585102449410.9,26359102.83785441,58200109.77513629,1039832883.6903069,25801368691.742752
0.8582969050113283,3374224462598259.5,4250742760692669.0,395575077685972.8,480909049204203.06,33451862.077116005,73860711.89091906,1319634159.9729443,32744257498.451576
0.9754628431115548,3603353090990738.5,4539397499677514.0,422436827987214.3,513565451301499.56,41242337.90982519,91061851.71230194,1626959630.2406125,40370134246.11606
1.094972099973786,3822960597859478.5,4816058633244481.0,448182375608635.1,544864862020430.06,49727999.54776644,109797941.32518533,1961709452.5808234,48676520542.167015
1.2168715419732616,4034676845441348.0,5082779396322737.0,473002796422208.0,575039576369681.0,58910621.19146899,130072898.10659878,2323953613.693849,57665152370.13206
1.3412089728127268,4239758331367370.5,5341142677936346.0,497045395135659.2,604268675820864.5,68795307.13557366,151897992.18507996,2713893469.8349557,67341025676.03599
1.4680331522689813,4439197808554251.0,5592399115150460.0,520426556511370.5,632693651809213.1,79389841.01694526,175290409.59911355,3131836075.054116,77711759296.9108
1.597393815314361,4633795823729389.0,5837557213890479.0,543240132140271.44,660428601713319.1,90704235.96926866,200272259.05138952,3578176435.0944414,88787154576.76175
1.729341691620648,4824209168976479.0,6077444385871299.0,565563120628256.6,687567134378792.9,102750415.1223352,226869866.46042112,4053384903.313291,100578882588.10356
1.863928525453061,5010984733187011.0,6312749593020798.0,587459636149762.5,714187194773409.4,115541979.92825623,255113263.43151072,4557998041.3201475,113100257333.80972
2.001207095962122,5194583786495306.0,6544053939833722.0,608983755418189.8,740354525109722.2,129094039.5907191,285035810.64147526,5092611890.088225,126366068766.73315
2.1412312378813647,5375399802605547.0,6771853125073428.0,630181607075204.0,766125204960128.6,143423084.1936839,316673917.7104847,5657876964.978037,140392458589.252
2.284055862638992,5553771800284170.0,6996574248735988.0,651092935772167.4,791547552744010.0,158546889.847629,350066833.7677231,6254494513.829509,155196827396.46606
2.4297369798917723,5729994505888075.0,7218588614310899.0,671752293567724.0,816663574135159.6,174484447.80498603,385256490.9403247,6883213720.620226,170797765283.94833
2.578331719489608,5904326214609366.0,7438221631998933.0,692189961535891.2,841510082480363.6,191255911.8726295,422287388.2416875,7544829630.928232,187215000367.26434
2.7298983538794,6076994955706772.0,7655760585376555.0,712432672543056.1,866119577494801.0,208882560.04380068,461206506.8558739,8240181638.33984,204469361221.43494
2.884496320956988,6248203387636433.0,7871460798052003.0,732504185125568.4,890520942937257.1,227386767.36641198,502063250.2316272,8970152414.12355,222582750320.07733
3.0421862473761276,6418132728251031.0,8085550584749133.0,752425744244140.9,914740006759072.2,246791987.83144706,544909404.0924845,9735667192.739063,241578126304.59796
3.2030299723236504,6586945942310622.0,8298235266790916.0,772216454969682.8,938799995401954.0,267122743.61217526,589799112.6772865,10537693347.329569,261479493449.30215
3.3670905717701234,6754790350562301.0,8509700458905474.0,791893588357100.9,962721905655295.5,288404620.3815759,636788868.4011945,11377240204.994276,282311897076.61505
3.5344323832055258,6921799783429294.0,8720114782355052.0,811472833931695.8,986524811609246.8,310664267.72737753,685937512.772088,12255359063.157345,304101423962.46326
3.7051210308696363,7088096372614233.0,8929632121928612.0,830968509726628.0,1010226120001745.0,333929403.9020075,737306246.878327,13173143376.944746,326875206985.1844
3.879223451487029,7253792052172651.0,9138393516941000.0,850393738260333.4,1033841784158010.5,358228824.3093972,790958650.1273781,14131729093.977215,350661433432.5084
4.0568079205167695,7418989824506631.0,9346528756091304.0,869760594954484.8,1057386484425424.1,383592413.2564661,846960706.1927629,15132295117.951626,375489356504.3775
4.237944078927105,7583784834660637.0,9554157730831348.0,889080234078384.2,1080873781286799.0,410051158.5943869,905380835.3415443,16176063886.221207,401389309644.5928
4.422702960505647,7748265287163309.0,9761391590382868.0,908362996234340.8,1104316246032661.2,437637168.9506217,966289932.4821907,17264302049.579575,428392723408.6024
4.61115701971576,7912513232670574.0,9968333732737832.0,927618500579282.2,1127725572876997.8,466383693.3126029,1029761410.4047607,18398321244.814705,456532144633.3215
4.803380160110075,8076605246269103.0,1.017508065917936e+16,946855724345209.2,1151112675632009.0,496325142.7714677,1095871247.79047,19579478952.47541,485841257721.44305
4.9994477633122765,8240613015099773.0,1.0381722714569892e+16,966083071728893.6,1174487771458752.8,527497114.27245367,1164698041.6518712,20809179433.79763,516354907890.06433
5.199436718578522,8404603849663179.0,1.0588344731498674e+16,985308433834437.6,1197860453740581.5,559936416.2493832,1236323063.9330869,22088874741.95745,548109126263.6557
5.403425452950093,8568641130561632.0,1.0795026593097152e+16,1004539241046795.6,1221239755754792.5,593681096.0458724,1310830322.0550103,23420065803.807415,581141156716.0406
5.611493962009095,8732784700356156.0,1.100184372671379e+16,1023782508970881.0,1244634206521727.2,628770469.0465089,1388306623.2361546,24804303569.070557,615489484386.2622
5.823723841249277,8897091208550784.0,1.120886753854266e+16,1043044878875590.4,1268051879973467.2,665245149.4584141,1468841642.4574568,26243190224.639374,651193865810.0242
6.040198318074262,9061614416374218.0,1.141616579760767e+16,1062332653424672.1,1291500438392606.8,703147082.6978649,1552527993.9710064,27738380472.1936,688295360622.2659
6.261002284435747,9226405466936980.0,1.162380297613021e+16,1081651828348451.9,1314987170916223.2,742519579.3486434,1639461306.2790918,29291582867.820652,726836364798.3309
6.486222330124463,9391513125453736.0,1.1831840552187548e+16,1101008120606122.2,1338519027773407.2,783407350.6689638,1729740300.5325348,30904561222.726013,766860645411.0149
6.715946776726952,9556983993488566.0,1.2040337279648052e+16,1120406993502672.0,1362102650820419.5,825856545.6325431,1823466872.3162618,32579136064.46381,808413376889.3586
6.950265712261491,9722862700579720.0,1.2249349429611386e+16,1139853679153885.0,1385744400851878.2,869914789.4967983,1920746176.8068197,34317186158.411453,851541178772.3405
7.18927102650672,9889192076100774.0,1.2458931006953246e+16,1159353198634361.2,1409450382095142.2,915631223.8977139,2021686717.3006842,36120650089.46913,896292154957.0062
7.433056447036854,1.0056013303799e+16,1.2669133945048926e+16,1178910380094762.5,1433226464235828.8,963056548.4765407,2126400437.1248324,37991527904.18934,942715934446.0923
7.681717575977592,1.0223366061106072e+16,1.2880008281315056e+16,1198529875093766.0,1457078302272919.5,1012243064.0485443,2235002814.952116,39931882813.737854,990863713605.1382
7.935351927497144,1.0391288645021978e+16,1.3091602315838924e+16,1218216173356028.2,1481011354460327.8,1063244717.3284539,2347612963.5537586,41943842958.26579,1040788299943.4282
8.194058966047088,1.055981808612955e+16,1.3303962755056364e+16,1237973616138578.5,1505030898556697.2,1116117147.2312791,2464353732.0302854,44029603233.42732,1092544157437.0624
8.45794014536803,1.0728990252087134e+16,1.3517134842176714e+16,1257806408363740.2,1529142046575686.8,1170917732.7708175,2585351811.569989,46191427179.92517,1146187453415.9414
8.72709894827539,1.0898839941772278e+16,1.3731162475831354e+16,1277718629655968.2,1553349758203648.8,1227705642.5814009,2710737844.7916675,48431648937.092155,1201776107039.7686
9.0016409272409,1.106940097062538e+16,1.3946088318248232e+16,1297714244354130.5,1577658852997009.2,1286541886.3912163,2840646545.0900683,50752678015.95726,1259370405258.5105
9.281673745785717,1.1240706250911788e+16,1.4161953893992484e+16,1317797110892818.2,1602074021686321.0,1347489366.688367,2975216788.076679,53156990434.548035,1319030804984.5554
9.567307220701432,1.1412787860618294e+16,1.4378799680431108e+16,1337970989921658.0,1626599836198843.5,1410612935.071885,3114591769.7512946,55647147196.56929,1380821340396.7722
9.85865336511546,1.1585677111099556e+16,1.4596665190611126e+16,1358239552207574.2,1651240759164123.8,1475979447.4038537,3258919105.90986,58225785694.415764,1444807455621.14
10.155826432417769,1.175940460700158e+16,1.4815589049404374e+16,1378606385666948.0,1676001152488534.5,1543657822.2246907,3408350966.682619,60895624690.92362,1511056613849.7305
10.458942961066125,1.1934000301831402e+16,1.503560906357309e+16,1399075001880293.0,1700885285275322.5,1613719100.7107925,3563044208.91894,63659466684.66867,1579638356087.9426
10.768121820287448,1.2109493549172932e+16,1.5256762286352586e+16,1419648842096511.8,1725897341124083.2,1686236508.5107157,3723160512.719856,66520200349.339066,1650624361684.9375
11.083484256693197,1.2285913149968164e+16,1.5479085077079428e+16,1440331282775885.0,1751041424869517.8,1761285519.505752,3888866522.219585,69480803049.02356,1724088510747.7793
11.405153941827061,1.2463287396237136e+16,1.5702613156335046e+16,1461125640715541.5,1776321568812542.0,1838943921.5428176,4060333990.721935,72544343431.30408,1800106948486.266
11.733257020663602,1.2641644111567942e+16,1.5927381657022862e+16,1482035177796296.5,1801741738491160.8,1919291884.1896775,4237739930.3019447,75713984100.12924,1878758151537.3987
12.067922161076874,1.2821010688674268e+16,1.6153425171752716e+16,1503063105385663.8,1827305838033270.0,2002412028.5646245,4421266765.9878,78992984370.52159,1960122996320.487
12.409280604298411,1.3001414124284478e+16,1.6380777796866404e+16,1524212588428075.0,1853017715129246.5,2088389499.2947147,4611102494.642623,82384703107.25436,2044284829475.873
12.75746621638438,1.3182881051600262e+16,1.6609473173403452e+16,1545486749250138.8,1878881165658063.5,2177312038.658749,4807440848.670133,85892601649.71516,2131329540442.267
13.112615540712067,1.3365437770537742e+16,1.6839544525275654e+16,1566888671105949.0,1904899937997401.5,2269270062.973236,5010481464.672679,89520246825.25279,2221345636229.722
13.474867851526309,1.3549110275942754e+16,1.7071024694891896e+16,1588421401484859.8,1931077737044992.8,2364356741.281576,5220430057.194708,93271314053.38126,2314424318447.148
13.844365208556836,1.3733924283952576e+16,1.730394617645033e+16,1610087955202017.0,1957418227975843.8,2462668076.408735,5437498597.689353,97149590543.3048,2410659562645.464
14.221252512727972,1.3919905256660074e+16,1.753834114709444e+16,1631891317289826.0,1983925039757428.0,2564302988.445976,5661905498.850257,101158978587.30154,2510148200039.326
14.605677562982532,1.4107078425220378e+16,1.777424149611008e+16,1653834445706849.5,2010601768443003.5,2669363400.7318616,5893875804.455279,105303498952.58484,2612990001672.6177
14.997791114242183,1.4295468811528106e+16,1.8011678852323472e+16,1675920273879124.5,2037451980261083.0,2777954328.3983736,6133641384.8738985,109587294374.35658,2719287765094.7524
15.397746936527026,1.4485101248579388e+16,1.8250684609846136e+16,1698151713087308.2,2064479214517579.0,2890183969.5527844,6381441138.39415,114014633152.8348,2829147403617.108
15.805701875257567,1.4676000399624346e+16,1.8491289952297856e+16,1720531654711982.0,2091686986325462.0,3006163799.1681886,6637521198.530484,118589912857.14041,2942678038220.9824
16.221815912762718,1.4868190776204602e+16,1.873352587562852e+16,1743062972348250.8,2119078789175538.8,3126008665.757972,6902135147.478092,123317664139.00172,3059992092190.5874
16.64625223101797,1.5061696755162062e+16,1.8977423209646852e+16,1765748523799834.0,2146658097360644.2,3249836890.9114184,7175544235.884943,128202554659.33234,3181205388546.866
17.079177275638333,1.5256542594698758e+16,1.922301263835652e+16,1788591152961746.5,2174428368264549.0,3377770371.770324,7458017609.117284,133249393130.82768,3306437250360.1943
17.5207608211511,1.5452752449558904e+16,1.9470324719189596e+16,1811593691600191.5,2202393044525752.2,3509934686.5285525,7749832540.199649,138463133479.81143,3435810604022.16
17.97117603757412,1.565035038539907e+16,1.9719389901220544e+16,1834758961037253.8,2230555556085617.5,3646459203.0389795,8051274669.61611,143848879130.6683,3569452085559.107
18.430599558325603,1.5849360392407104e+16,1.997023854243681e+16,1858089773747469.2,2258919322129352.0,3787477190.6146016,8362638252.163962,149411887416.28058,3707492150072.4375
18.899211549492115,1.6049806398224058e+16,2.0222900926135364e+16,1881588934872765.8,2287487752927756.0,3933125935.1132116,8684226411.057613,155157574118.0012,3850065184393.103
19.37719578048196,1.6251712280220448e+16,2.0477407276508372e+16,1905259243661619.5,2316264251586833.5,4083546857.3973904,9016351399.484888,161091518138.77655,3997309623040.171
19.864739696091597,1.6455101877172942e+16,2.073378777347732e+16,1929103494837977.0,2345252215712038.0,4238885635.26438,9359334869.824919,167219466313.15414,4149368067575.8965
20.36203449001343,1.6659999000383346e+16,2.0992072566829396e+16,1953124479904803.5,2374455038992976.0,4399292328.942718,9713508150.74128,173547338357.99484,4306387409452.3315
20.869275179813698,1.6866427444280566e+16,2.1252291789704492e+16,1977324988386968.8,2403876112714465.0,4564921510.25561,10079212532.371138,180081231967.8345,4468518956447.116
21.38666068340997,1.707441099654026e+16,2.151447557147957e+16,2001707809017629.0,2433518827198814.5,4735932395.553337,10456799559.83643,186827428058.92993,4635918562788.796
21.91439389707817,1.728397344775618e+16,2.177865405009205e+16,2026275730872046.8,2463386573184239.0,4912488982.52028,10846631335.310022,193792396166.15344,4808746763074.611
22.452681775019734,1.749513860069382e+16,2.2044857383841016e+16,2051031544452425.5,2493482743143722.5,5094760190.964509,11249080828.875286,200982799996.9976,4987168910087.177
23.00173541052013,1.7707930279154518e+16,2.231311576270194e+16,2075978042727099.0,2523810732548360.0,5282920007.701333,11664532198.42504,208405503147.07773,5171355316617.917
23.561770118730532,1.7922372336476606e+16,2.258345941918791e+16,2101118022127148.5,2554373941078995.5,5477147635.64479,12093381118.851593,216067574981.63916,5361481401410.008
24.133005521105144,1.813848866369748e+16,2.2855918638789016e+16,2126454283503282.5,2585175773789485.5,5677627647.224435,12536035120.786686,223976296687.68423,5557727839334.739
24.715665631527248,1.8356303197399372e+16,2.3130523770017464e+16,2151989633045628.5,2616219642224968.0,5884550142.247621,12992913939.15746,232139167501.47806,5760280715919.421
25.309978944157795,1.857583992725957e+16,2.34073052340846e+16,2177726883168880.2,2647508965497909.0,6098110910.33123,13464449871.830843,240563911116.3022,5969331686347.785
25.91617852304095,1.8797122903324612e+16,2.3686293534235612e+16,2203668853365074.0,2679047171324828.5,6318511598.029114,13951088148.626932,249258482275.45657,6185078139056.693
26.53450209350177,1.9020176243025828e+16,2.3967519264762936e+16,2229818371026071.2,2710837697026244.0,6545959880.786022,14453287310.988398,258231073555.65506,6407723364056.791
27.165192135371807,1.924502413795357e+16,2.4251013119721124e+16,2256178272237725.5,2742883990492147.5,6780669639.851388,14971519602.601301,267490122346.07697,6637476726107.5
27.808495978079243,1.9471690860405732e+16,2.4536805901362016e+16,2282751402547567.0,2775189511115290.5,7022861144.290046,15506271371.269995,277044318028.48956,6874553842880.743
28.464665897640828,1.970020076972403e+16,2.482492852830836e+16,2309540617707668.5,2807757730694302.5,7272761238.230671,16058043482.356625,286902609363.983,7119176768250.529
29.133959215593645,1.9930578318432572e+16,2.511541204348364e+16,2336548784394269.5,2840592134308564.5,7530603533.496302,16627351744.104042,297074212092.0181,7371574180849.709
29.816638399905518,2.016284805819046e+16,2.5408287621813376e+16,2363778780905653.5,2873696221166603.0,7796628607.764786,17214727345.168896,307568616747.6185,7631981578038.453
30.51297116790363,2.0397034645570316e+16,2.570358657771319e+16,2391233497839567.5,2907073505429683.5,8071084208.411196,17820717304.700016,318395596702.70325,7900641475432.631
31.223230591261704,2.063316284767359e+16,2.600134037237619e+16,2418915838751534.5,2940727517012099.5,8354225462.187703,18445884935.306206,329565216437.6827,8177803612144.201
31.947695203086937,2.087125754759217e+16,2.630158062087422e+16,2446828720795137.0,2974661802359587.5,8646315090.900633,19090810319.26498,341087840049.6313,8463725161889.256
32.686649107148675,2.111134374972549e+16,2.6604339099082612e+16,2474975075345386.5,3008879925207212.5,8947623633.247992,19756090798.334145,352974140003.4683,8758670950123.287
33.44038208929165,2.1353446584962436e+16,2.6909647750441076e+16,2503357848606183.0,3043385467317802.5,9258429672.985365,20442341477.53577,365235106132.7643,9062913677367.1
34.20918973107749,2.1597591315734224e+16,2.7217538692558716e+16,2531980002202719.5,3078182029202170.0,9579020073.591486,21150195743.291363,377882054896.93176,9376734148890.71
34.993373525699035,2.1843803340945836e+16,2.752804422367333e+16,2560844513759621.0,3113273230821989.0,9909690219.60937,21880305796.296616,390926638901.7346,9700421510926.217
35.793240996213015,2.2092108200792136e+16,2.784119682897153e+16,2589954377465503.5,3148662712276132.0,10250744264.842789,22633343199.532173,404380856690.2119,10034273493585.285
36.60910581613728,2.2342531581463036e+16,2.81570291867773e+16,2619312604624639.5,3184354134471339.0,10602495387.592016,23409999441.81728,418257062811.23883,10378596660659.475
37.44128793246003,2.2595099319742148e+16,2.8475574174613076e+16,2648922224196092.0,3220351179777595.5,10965266053.11667,24210986517.32059,432567978173.1705,10733706666487.027
38.29011369110923,2.2849837407501656e+16,2.8796864875137524e+16,2678786283320556.5,3256657552668761.0,11339388283.51787,25037037521.4517,447326700690.11,11099928520072.605
39.15591596493141,2.310677199609473e+16,2.91209345819629e+16,2708907847835445.0,3293276980348633.0,11725203935.235174,25888907263.567398,462546716228.52716,11477596856649.7
40.03903428423004,2.33659294006459e+16,2.9447816805350676e+16,2739290002777775.0,3330213213362360.5,12123064984.35832,26767372896.931324,478241909862.09705,11867056216880.72
40.93981496991464,2.3627336104237284e+16,2.9777545277785148e+16,2769935852874961.0,3367470026193151.0,12533333819.956491,27673234566.376488,494426577442.7542,12268661333890.785
41.85861126931294,2.38910187619869e+16,3.0110153959418732e+16,2800848523022940.5,3405051217843481.5,12956383545.631336,28607316074.12576,511115437496.09894,12682777428336.076
42.7957834946992,2.4157004205013424e+16,3.0445677043383588e+16,2832031158750959.0,3442960612400177.0,13392598289.503275,29570465564.232296,528323643449.39233,13109780511709.354
43.751699164593184,2.4425319444277424e+16,3.078414896095537e+16,2863486926671934.0,3481202059581911.0,13842373522.842342,30563556226.10663,546066796200.4701,13550057698087.562
