t(s),Total solute volume 1,Total retention volume 1,Total 1 volume 1,Total 2 volume 1,Total 3 volume 1,Total 4 volume 1,Total 5 volume 1,Total 6 volume 1
0.1,1117071271046687.6,1512117690109863.2,171218609237430.47,223827809825744.56,0.0,0.0,0.0,0.0
0.202,1681433668627667.5,2277508583353270.5,257721009934419.12,336909233624759.44,963914767.5774962,2379768558.461656,50259402233.228294,1391068080866.094
0.30604000000000003,2111025054519706.5,2861242753230923.0,323566441867787.1,422986555150835.4,2444541014.997242,6035230364.234352,127464268769.46944,3528757652444.1343
0.41216080000000005,2474025552375607.5,3355459290393739.0,379205184461160.0,495721045200811.5,4340387120.691152,10715814588.222034,226320900482.9654,6266131253967.666
0.5204040160000001,2796039952967257.0,3794750022181988.5,428561800894747.4,560243141753501.5,6606166739.874528,16309715435.855896,344467677536.74316,9537743006771.812
0.6308120963200001,3089833565945831.0,4196357915959334.0,473592888439599.44,619110632814385.2,9217400234.600563,22756496210.21443,480628065203.8963,13308226797868.863
0.7434283382464002,3362827418934561.5,4570307140601837.0,515435901864778.9,673810471356638.9,12159911672.485079,30021158705.646496,634062844645.8004,17557104530843.293
0.8582969050113283,3619775587283601.0,4923020738961340.0,554819519992689.94,725295232519440.2,15425510844.713896,38083482674.76874,804344932838.1007,22272545239252.65
0.9754628431115548,3863935323320652.5,5258901372884049.0,592242996750356.1,774217572675911.5,19009864429.797153,46932770016.20699,991248368621.6758,27448289134063.207
1.094972099973786,4097651293117609.0,5581120402086915.0,628065709805033.4,821047293086908.4,22911316106.27264,56564931792.63549,1194686785290.5742,33081943044175.29
1.2168715419732616,4322676396795909.5,5892051096147771.0,662556334156491.1,866135622737917.4,27130176800.94157,66980735950.84901,1414676399641.5466,39173955145049.266
1.3412089728127268,4540361026321073.0,6193524142041869.0,695921850542802.8,909753139965759.5,31668271185.435596,78184687684.57802,1651312363596.2322,45726959889772.9
1.4680331522689813,4751771147157138.0,6486987029633350.0,728325644354362.0,952113432506062.4,36528634263.1415,90184280350.16167,1904752942512.884,52745339758663.77
1.597393815314361,4957765369521582.0,6773608063179070.0,759899318696793.9,993388540277769.6,41715300966.0983,102989476011.27303,2175208543615.3247,60234921362332.91
1.729341691620648,5159047153468549.0,7054346803352588.0,790750696102274.5,1033719415727254.4,47233156071.8258,116612334905.39421,2462933889863.9194,68202758673660.19
1.863928525453061,5356201286677755.0,7330003281024526.0,820969409646673.0,1073223232890995.1,53087824737.37528,131066745188.7321,2768222311844.649,76656974927334.08
2.001207095962122,5549720055327836.0,7601253301484569.0,850630914278737.5,1111998631259260.0,59285591263.07493,146368222376.445,3091401511715.1797,85606645293394.36
2.1412312378813647,5740022452260086.0,7868674353866042.0,879799430942978.8,1150129564520118.5,65833338015.780495,162533758553.99738,3432830378380.432,95061708667904.86
2.284055862638992,5927468556627635.0,8132765006585887.0,908530150614122.8,1187688181812952.5,72738499092.11995,179581707979.59973,3792896571293.1816,105032900752817.36
2.4297369798917723,6112370487525038.0,8393959681676170.0,936870913209891.4,1224737022509609.2,80009024985.64114,197531699853.8518,4172014678058.861,115531703028737.19
2.578331719489608,6295000877207939.0,8652640084073678.0,964863506320033.9,1261330713995313.0,87653355622.74828,216404571750.84818,4570624808435.128,126570303814583.2
2.7298983538794,6475599516078985.0,8909144165838578.0,992544683713652.2,1297517303125966.0,95680399871.0929,236222319028.96503,4989191525841.123,138161568675227.23
2.884496320956988,6654378628401519.0,9163773244489038.0,1019946973971905.8,1333339313324064.5,104099520131.21582,257008056791.57562,5428203043935.772,150319018170686.9
3.0421862473761276,6831527107617985.0,9416797719083608.0,1047099329654572.6,1368834593210364.0,112920520977.44879,278785991844.92645,5888170634347.785,163056811453499.0
3.2030299723236504,7007213950803175.0,9668461707119112.0,1074027653714394.9,1404037004766061.5,122153641067.44069,301581402725.8837,6369628204850.64,176389734586824.28
3.3670905717701234,7181591069300640.0,9918986841009376.0,1100755230296120.6,1438976986500602.2,131809547723.33641,325420626325.7209,6873132016853.612,190333192721106.62
3.5344323832055258,7354795608175381.0,1.0168575402990114e+16,1127303080249620.8,1473682018200980.8,141899333722.7749,350331049969.75415,7399260518126.7705,204903205462295.62
3.7051210308696363,7526951875069991.0,1.0417412934067528e+16,1153690256774455.5,1508177007416989.0,152434515938.64178,376341108061.4014,7948614271931.886,220116404910164.12
3.879223451487029,7698172955611477.0,1.0665670421013828e+16,1179934093020659.2,1542484613140723.5,163427035542.58096,403480282587.0619,8521815967698.656,235990035955141.34
4.0568079205167695,7868562075156162.0,1.0913506141999242e+16,1206050410809584.5,1576625518659658.0,174889259545.35483,431779106921.61224,9119510501413.98,252541958505947.0
4.237944078927105,8038213753651692.0,1.1161067233910424e+16,1232053697644886.2,1610618662956603.8,186833983491.9412,461269172484.91187,9742365116228.164,269790651385029.6
4.422702960505647,8207214790544794.0,1.1408491031122362e+16,1257957257673797.2,1644481438055912.8,199274435164.1448,491983137885.85767,10391069595601.406,287755217679203.2
4.61115701971576,8375645109128365.0,1.1655906215332628e+16,1283773341104113.2,1678229858205488.2,212224279170.93652,523954740258.24365,11066336502744.354,306455391372475.4
4.803380160110075,8543578483905303.0,1.1903433808226166e+16,1309513255690502.8,1711878705618817.2,225697622328.42432,557218808546.2711,11768901461237.67,325911545119427.4
4.9994477633122765,8711083170016714.0,1.2151188032633728e+16,1335187463209882.2,1745441656593656.0,239709019748.7293,591811278540.3958,12499523472621.615,346144699042555.7
5.199436718578522,8878222450228086.0,1.239927706305595e+16,1360805663300473.0,1778931391111757.0,254273481570.95996,627769209498.576,13258985267471.727,367176530457095.44
5.403425452950093,9045055112154498.0,1.2647803682636114e+16,1386376866608282.2,1812359688460607.5,269406480278.76096,665130802215.8711,14048093687065.645,389029384443167.94
5.611493962009095,9211635866167114.0,1.2896865860646606e+16,1411909458841528.8,1845737510969424.8,285123958558.09534,703935418427.974,14867680093225.441,411726285198322.6
5.823723841249277,9378015712626976.0,1.3146557262135016e+16,1437411257058276.5,1879075077591900.2,301442337656.4499,744223601452.8533,15718600804310.451,435290948114421.5
6.040198318074262,9544242265643772.0,1.3396967699423526e+16,1462889559290366.0,1912381928777776.0,318378526210.8068,786037097989.9456,16601737555660.135,459747792531759.1
6.261002284435747,9710360039380382.0,1.3648183533571064e+16,1488351188426676.5,1945666983839786.5,335949929516.903,829418881008.9681,17517997983051.64,485121955130665.06
6.486222330124463,9876410701964990.0,1.3900288032614288e+16,1513802531131338.2,1978938591830064.8,354174459216.4688,874413173670.9486,18468316127959.863,511439303927041.4
6.715946776726952,1.0042433301283832e+16,1.4153361692342714e+16,1539249572452057.2,2012204576782285.8,373070543382.7776,921065474232.7659,19453652963591.695,538726452843330.4
6.950265712261491,1.0208464466278642e+16,1.4407482524488616e+16,1564697926673872.0,2045472278045680.8,392657136987.7106,969422581893.9044,20474996940821.363,567010776830759.4
7.18927102650672,1.0374538586833958e+16,1.4662726316486278e+16,1590152864891334.2,2078748586329126.0,412953732736.12463,1019532623550.2107,21533364553284.375,596320427522287.0
7.433056447036854,1.0540687974892026e+16,1.4919166866352352e+16,1615619339703259.2,2112039975983708.5,433980372255.3341,1071445081424.6643,22629800920995.63,626684349398694.6
7.681717575977592,1.0706943009056812e+16,1.517687619573479e+16,1641102007376905.0,2145352533977121.5,455757657629.34064,1125210821549.531,23765380391951.71,658132296452849.5
7.935351927497144,1.0873332264635754e+16,1.5435924743752864e+16,1666605247780054.5,2178691985950140.2,478306763268.93176,1180882123078.011,24941207161252.816,690694849339323.6
8.194058966047088,1.1039882630801808e+16,1.56963815438954e+16,1692133182338945.2,2212063719692391.2,501649448110.0216,1238512708406.5586,26158415907350.004,724403432998385.6
8.45794014536803,1.1206619416333688e+16,1.5958314385941106e+16,1717689690245593.2,2245472806329575.5,525808068133.7198,1298157774091.7869,27418172445075.17,759290334744929.0
8.72709894827539,1.1373566445202706e+16,1.6221789964608888e+16,1743278423108799.8,2278924019476193.5,550805589202.4783,1359874022548.0625,28721674395162.0,795388722814264.9
9.0016409272409,1.1540746143111464e+16,1.6486874016427632e+16,1768902818218345.8,2312421852575356.0,576665600207.4985,1423719694513.8933,30070151870006.125,832732665357739.2
9.281673745785717,1.1708179615951436e+16,1.6753631446127728e+16,1794566110570543.2,2345970534619313.0,603412326523.201,1489754602276.7139,31464868175444.688,871357149882200.9
9.567307220701432,1.1875886721027558e+16,1.7022126443697254e+16,1820271343785139.5,2379574044420769.5,631070643765.1006,1558040163647.1294,32907120528367.766,911298103128017.4
9.85865336511546,1.204388613179517e+16,1.729242259310688e+16,1846021380027863.5,2413236123584229.5,659666091847.9446,1628639436674.8384,34398240789995.28,952592411381113.5
10.155826432417769,1.2212195396767168e+16,1.7564582973589938e+16,1871818909039379.5,2446960288309231.5,689224889341.3203,1701617155099.358,35939596214676.86,995277941215049.8
10.458942961066125,1.2380830993172272e+16,1.783867025426014e+16,1897666456359738.5,2480749840141855.5,719773948120.2959,1777039764529.5168,37532590214085.05,1039393560659540.8
10.768121820287448,1.254980837587956e+16,1.811474678276133e+16,1923566390827261.5,2514607875777772.5,751340888308.8804,1854975459346.373,39178663136690.0,1084979160792383.4
11.083484256693197,1.2719142022046742e+16,1.8392874668565236e+16,1949520931421992.8,2548537296008414.0,783954053514.3772,1935494220324.7107,40879293062413.23,1132075677751859.8
11.405153941827061,1.2888845471899404e+16,1.867311586146627e+16,1975532153516114.0,2582540813891912.5,817642526350.8336,2018667852968.716,42635996612368.586,1180725115167159.5
11.733257020663602,1.3058931366005056e+16,1.8955532225762656e+16,2001601994587115.8,2616620962221721.5,852436144249.9146,2104570026557.8179,44450329773603.07,1230970567004372.2
12.067922161076874,1.3229411479366958e+16,1.9240185610562548e+16,2027732259443485.2,2650780100357992.0,888365515557.7053,2193276313898.8975,46323888738760.87,1282856240825886.8
12.409280604298411,1.340029675262926e+16,1.952713791660656e+16,2053924625007710.2,2685020420480160.5,925462035915.9445,2284864231781.2754,48258310760591.664,1336427481461102.2
12.75746621638438,1.3571597320655826e+16,1.981645115996041e+16,2080180644696637.5,2719343953313270.5,963757904926.2911,2379413282131.0264,50255275021232.484,1391730795086398.2
13.112615540712067,1.3743322538718012e+16,2.0108187532894316e+16,2106501752435423.5,2753752573375289.0,1003286143096.2543,2477004993861.2046,52316503516190.41,1448813873712421.0
13.474867851526309,1.3915481006505276e+16,2.040240946223518e+16,2132889266337741.0,2788248003788052.0,1044080609065.3824,2577722965414.6855,54443761952956.22,1507725620076669.8
13.844365208556836,1.4088080590150164e+16,2.069917966545102e+16,2159344392081638.2,2822831820690420.0,1086176017110.3561,2681652907996.1494,56638860664175.83,1568516172939502.0
14.221252512727972,1.4261128442442972e+16,2.0998561204700856e+16,2185868226007960.5,2857505457288748.0,1129607954927.604,2788882689489.873,58903655535310.79,1631236932781412.0
14.605677562982532,1.443463102139445e+16,2.1300617539063304e+16,2212461757965503.0,2892270207576231.5,1174412901691.947,2899502379059.726,61240048946708.055,1695940587899655.0
14.997791114242183,1.4608594107290712e+16,2.1605412575136936e+16,2239125873925125.5,2927127229750233.5,1220628246389.8435,3013604292427.843,63649990730008.07,1762681140902020.0
15.397746936527026,1.4783022818372358e+16,2.1913010716187844e+16,2265861358382944.0,2962077549353947.5,1268292306425.6807,3131283037828.0503,66135479138808.49,1831513935595572.8
15.805701875257567,1.4957921625257956e+16,2.2223476910006104e+16,2292668896571103.5,2997122062166364.5,1317444346499.479,3252635562630.3027,68698561833501.52,1902495684268036.0
16.221815912762718,1.5133294364222482e+16,2.253687669561649e+16,2319549076492994.0,3032261536862915.0,1368124597754.4016,3377761200631.9395,71341336880198.25,1975684495359516.2
16.64625223101797,1.5309144249431614e+16,2.285327624897976e+16,2346502390798506.5,3067496617466872.0,1420374277192.283,3506761720011.45,74065953763650.36,2051139901521863.8
17.079177275638333,1.5485473884225796e+16,2.3172742427806384e+16,2373529238513513.5,3102827825610308.5,1474235607355.3164,3639741371940.4116,76874614414075.8,2128922888063350.2
17.5207608211511,1.5662285271539154e+16,2.3495342815597388e+16,2400629926636917.5,3138255562621773.5,1529751836272.1091,3776806939848.8076,79769574247786.42,2209095921775594.2
17.97117603757412,1.5839579823533732e+16,2.382114576501635e+16,2427804671617268.5,3173780111456654.0,1586967257665.9907,3918067789338.8984,82753143221520.17,2291722980140186.0
18.430599558325603,1.6017358370521992e+16,2.41502204406897e+16,2455053600720382.5,3209401638485032.5,1645927231423.5845,4063635918742.6523,85827686900365.84,2376869580911808.0
18.899211549492115,1.6195621169246256e+16,2.4482636861523972e+16,2482376753298340.0,3245120195150611.5,1706678204321.4705,4213626010317.327,88995627539172.52,2464602812074921.0
19.37719578048196,1.6374367910578538e+16,2.4818465942622876e+16,2509774081969752.5,3280935719513534.0,1769267731008.7107,4368155482073.918,92259445177329.06,2554991362170708.0
19.864739696091597,1.6553597726700402e+16,2.5157779536882856e+16,2537245453720135.5,3316848037689014.5,1833744495242.9546,4527344540232.661,95621678746789.08,2648105550991034.0
20.36203449001343,1.6733309197817806e+16,2.5500650476334744e+16,2564790650931215.0,3352856865192801.5,1900158331377.7002,4691316232299.912,99084927193227.8,2744017360635996.5
20.869275179813698,1.6913500358463186e+16,2.584715261330257e+16,2592409372346869.0,3388961808203930.0,1968560246098.3252,4860196500760.428,102651850610196.67,2842800466931533.0
21.38666068340997,1.7094168703433798e+16,2.619736086143904e+16,2620101233983247.0,3425162364754532.0,2039002440404.381,5034114237378.715,106325171386150.52,2944530271203521.0
21.91439389707817,1.7275311193410982e+16,2.6551351236695852e+16,2647865769990158.0,3461457925855874.5,2111538331835.5715,5213201338103.541,110107675364214.34,3049283932404674.0
22.452681775019734,1.7456924260304872e+16,2.6909200898285016e+16,2675702433470215.5,3497847776569198.5,2186222576938.8696,5397592758569.188,114002213014557.95,3157140399590612.0
23.00173541052013,1.763900381236453e+16,2.7270988189680828e+16,2703610597262127.0,3534331097029653.5,2263111093974.125,5587426570186.668,118011700619241.27,3268180444741127.5
23.561770118730532,1.7821545239092018e+16,2.763679267971207e+16,2731589554693875.5,3570906963430943.5,2342261085855.4917,5782844016819.023,122139121469393.45,3382486695923112.0
24.133005521105144,1.8004543415997242e+16,2.8006695203787864e+16,2759638520311505.5,3607574348978050.5,2423731063326.1587,5983989572033.829,126387527074590.84,3500143670791129.0
24.715665631527248,1.81879927092277e+16,2.838077790530285e+16,2787756630588781.0,3644332124814907.5,2507580868363.519,6191010996926.46,130760038384296.5,3621237810421870.0
25.309978944157795,1.8371886980106576e+16,2.8759124277259316e+16,2815942944622751.0,3681179060933690.5,2593871697812.375,6404059398508.019,135259847021225.11,3745857513478788.0
25.91617852304095,1.855621958961013e+16,2.9141819204147496e+16,2844196444819958.0,3718113827071917.0,2682666127243.4214,6623289288651.083,139890216526501.39,3874093170703108.5
26.53450209350177,1.874098340281399e+16,2.952894900411812e+16,2872516037578044.0,3755134993603431.0,2774028135034.5854,6848858643587.579,144654483616478.22,4006037199727522.5
27.165192135371807,1.8926170793337304e+16,2.9920601471483788e+16,2900900553966834.0,3792241032428800.0,2868023126672.643,7080928963952.486,149556059451092.2,4141784080209172.0
27.808495978079243,1.911177364781113e+16,3.0316865919581704e+16,2929348750413317.5,3829430317870711.0,2964717959272.8564,7319665335367.437,154598430913627.25,4281430389278229.0
28.464665897640828,1.929778337039801e+16,3.071783322402841e+16,2957859309394287.5,3866701127579489.5,3064180966314.161,7565236489559.062,159785161901775.03,4425074837299012.5
29.133959215593645,1.948419088738601e+16,3.1123595866399132e+16,2986430840140527.0,3904051643453661.5,3166481982588.0044,7817814866006.462,165119894629878.34,4572818303940455.0
29.816638399905518,1.967098665188213e+16,3.1534247978357412e+16,3015061879356253.0,3941479952580383.0,3271692369358.569,8077576674113.111,170606350942257.62,4724763874552912.0
30.51297116790363,1.9858160648627044e+16,3.1949885386266336e+16,3043750891957015.5,3978984048200115.5,3379885039732.7573,8344701955898.799,176248333637521.16,4881016876848974.0
31.223230591261704,2.0045702398952896e+16,3.2370605656305244e+16,3072496271829567.0,4016561830700039.5,3491134484238.1587,8619374649207.493,182049727803785.06,5041684917885510.0
31.947695203086937,2.0233600965904264e+16,3.2796508140119184e+16,3101296342616917.0,4054211108640177.5,3605516796607.6284,8901782651427.916,188014502164718.3,5206877921345129.0
32.686649107148675,2.0421844959542748e+16,3.32276940210256e+16,3130149358531280.0,4091929599816267.5,3723109699769.2964,9192117883723.707,194146710436366.97,5376708165115399.0
33.44038208929165,2.0610422542453748e+16,3.3664266360801656e+16,3159053505198106.0,4129714932363067.0,3843992572041.1294,9490576355771.424,200450492694700.3,5551290319164261.0
34.20918973107749,2.0799321435471748e+16,3.4106330147076536e+16,3188006900533744.0,4167564645901696.0,3968246473529.295,9797358231004.639,206930076753855.28,5730741483710902.0
34.993373525699035,2.098852892364405e+16,3.4553992341349664e+16,3217007595659377.0,4205476192734407.0,4095954172730.19,10112667892363.557,213589779555067.8,5915181227691630.0
35.793240996213015,2.1178031862445308e+16,3.5007361927657736e+16,3246053575853666.5,4243446939089955.5,4227200173336.11,10436714008550.496,220434008566286.44,6104731627520619.0
36.60910581613728,2.136781668426118e+16,3.546654996191127e+16,3275142761546508.0,4281474166422637.0,4362070741244.966,10769709600792.47,227467263192505.56,6299517306146417.0
37.44128793246003,2.155786940515388e+16,3.593166962192154e+16,3304273009355983.0,4319555072767909.5,4500653931774.853,11111872110112.781,234694136196853.9,6499665472404972.0
38.29011369110923,2.174817563192272e+16,3.640283625813665e+16,3333442113170560.5,4357686774157140.0,4643039617084.9795,11463423465114.982,242119315132514.53,6705305960671424.0
39.15591596493141,2.1938720569473416e+16,3.688016744510839e+16,3362647805278655.0,4395866306094146.5,4789319513804.156,11824590150283.848,249747583785558.62,6916571270812638.0
40.03903428423004,2.2129489028506076e+16,3.736378303370723e+16,3391887757547038.5,4434090625095763.0,4939587210869.693,12195603274808.57,257583823628827.84,7133596608443856.0
40.93981496991464,2.2320465433535324e+16,3.785380520410392e+16,3421159582649984.5,4472356610298662.0,5093938197579.005,12576698641935.338,265633015286988.78,7356519925493407.0
41.85861126931294,2.2511633831248892e+16,3.835035851953742e+16,3450460835350574.0,4510661065134305.0,5252469891857.351,12968116818857.424,273900240012959.34,7585481961079932.0
42.7957834946992,2.2702977899216716e+16,3.885356998088543e+16,3479789013835514.5,4549000719073895.0,5415281668745.491,13370103207152.617,282390681175883.4,7820626282707577.0
43.751699164593184,2.289448095495679e+16,3.936356908205603e+16,3509141561104667.5,4587372229444963.0,5582474889111.894,13782908113778.895,291109625760913.94,8062099327785782.0
