t(s),Total solute volume 1,Total retention volume 1,Total 1 volume 1,Total 2 volume 1,Total 3 volume 1,Total 4 volume 1,Total 5 volume 1,Total 6 volume 1
0.1,1392571168361754.5,6037270240607699.0,1452613831222594.2,3192085241023349.0,0.0,0.0,0.0,-0.09582846306271511
0.202,1306492749207109.5,1.149090272877289e+16,1362824653157795.0,2994784146936379.0,1419966476768.8555,7770103244712.524,419872833652866.0,5397738276097265.0
0.30604000000000003,1197816801179980.5,1.7414953634436222e+16,1249462906078194.5,2745673216067072.5,2629739473705.4395,14394848401477.023,797149008449360.0,1.1407827114786428e+16
0.41216080000000005,1146360613316109.5,2.361323443763167e+16,1195788038342014.8,2627722938662508.5,3812980698441.093,20873586274792.746,1163387467033703.8,1.7455288813304108e+16
0.5204040160000001,1121452223759142.9,3.00062799436426e+16,1169805652248086.0,2570626756988570.5,5023491450179.376,27501521393362.266,1536831665453571.0,2.3575038632349676e+16
0.6308120963200001,1107611453449737.1,3.656360061073391e+16,1155368098367199.5,2538900306199957.0,6264391287938.069,34295938212050.6,1919463591622090.5,2.980169683159494e+16
0.7434283382464002,1098981953635154.0,4.327314267142521e+16,1146366513716532.0,2519119372877441.5,7534139575246.172,41248431124173.92,2310959480260007.0,3.614893278023664e+16
0.8582969050113283,1093152367663622.1,5.013024349179401e+16,1140285568952527.0,2505756529648761.5,8831916242888.637,48354520905072.984,2711084578867217.5,4.262277800951392e+16
0.9754628431115548,1088983076981557.4,5.713356749713211e+16,1135936507665005.8,2496199490232177.0,10157471967283.283,55612852210767.664,3119769297947553.0,4.922690880012779e+16
1.094972099973786,1085871980587792.4,6.428345377281369e+16,1132691267611225.0,2489068091456734.5,11510864320523.928,63023749888576.89,3537036754525521.0,5.596425106442331e+16
1.2168715419732616,1083473035396690.9,7.15811719573916e+16,1130188885114059.0,2483569117828855.0,12892322589866.084,70588478960629.88,3962961412500114.0,6.283749870500136e+16
1.3412089728127268,1081574190669137.2,7.902855552108536e+16,1128208166289872.2,2479216497149346.5,14302181560243.104,78308882218857.75,4397649088011784.0,6.984929651518607e+16
1.4680331522689813,1080038782227857.9,8.66278069838776e+16,1126606554313358.5,2475696961668066.0,15740846385992.201,86187188011455.48,4841226548750410.0,7.700231010252045e+16
1.597393815314361,1078775062490472.9,9.438138793734619e+16,1125288345654790.4,2472800203457183.5,17208772507778.307,94225900367084.97,5293835618267232.0,8.429925403460163e+16
1.729341691620648,1077719322211603.4,1.0229195378785915e+17,1124187084070298.1,2470380185315204.0,18706453497207.0,102427732499058.05,5755629610870158.0,9.17429033993956e+16
1.863928525453061,1076826044872976.6,1.1036231345923989e+17,1123255290471880.8,2468332572221835.5,20234413375025.87,110795564788391.38,6226771073446328.0,9.93360985000634e+16
2.001207095962122,1076061910562761.2,1.1859540371507354e+17,1122458208267810.1,2466580986763629.0,21793201595133.406,119332417354494.39,6707430306328993.0,1.0708174668420077e+17
2.1412312378813647,1075402008487156.4,1.2699427240630197e+17,1121769852566428.1,2465068327284583.5,23383389689699.152,128041431716428.08,7197784371147703.0,1.1498282302541e+17
2.284055862638992,1074827368371384.9,1.3556206736611258e+17,1121170435136811.0,2463751109253564.0,25005568988640.84,136925858334319.39,7698016414957731.0,1.2304237061107008e+17
2.4297369798917723,1074323307020948.0,1.4430202899130074e+17,1120644639677537.1,2462595675178250.5,26660349056110.8,145989048075636.22,8208315206353776.0,1.3126350076593848e+17
2.578331719489608,1073878294034171.4,1.532174852974022e+17,1120180438621346.4,2461575594540735.0,28348356618457.67,155234446372223.66,8728874817477874.0,1.3964939334973734e+17
2.7298983538794,1073483156976451.4,1.6231184867539373e+17,1119768264038305.9,2460669841862277.5,30070234836946.406,164665589265254.66,9259894408750400.0,1.4820329717966403e+17
2.884496320956988,1073130513771549.0,1.7158861384551085e+17,1119400415553111.2,2459861495605167.0,31826642827304.85,174286100802197.7,9801578087397274.0,1.5692853058955434e+17
3.0421862473761276,1072814360391544.6,1.810513566710918e+17,1119070630257159.4,2459136793057011.0,33618255359277.46,184099691420147.62,1.0354134819968148e+16,1.6582848212063862e+17
3.2030299723236504,1072529766705995.6,1.907037336026152e+17,1118773765443409.6,2458484433142462.0,35445762689723.4,194110157061281.44,1.0917778385033092e+16,1.749066113325393e+17
3.3670905717701234,1072272648953506.5,2.0054948159238458e+17,1118505561267439.1,2457895054872229.5,37309870496417.164,204321378840725.47,1.1492727356268396e+16,1.841664497216859e+17
3.5344323832055258,1072039597342310.4,2.105924183672961e+17,1118262460914545.0,2457360842161303.0,39211299888998.22,214737323137973.53,1.2079205108895646e+16,1.936116017349552e+17
3.7051210308696363,1071827743881793.6,2.208364429791138e+17,1118041472732459.2,2456875220866333.0,41150787479961.484,225362042018259.44,1.2677439844352932e+16,2.0324574586778205e+17
3.879223451487029,1071634659957565.6,2.3128553657381373e+17,1117840063390084.0,2456432624002545.0,43129085503117.56,236199673915130.8,1.3287664629429698e+16,2.1307263583761555e+17
4.0568079205167695,1071458276161855.4,2.4194376333711082e+17,1117656074251153.6,2456028307975289.0,45146961970192.766,247254444523204.72,1.3910117447063842e+16,2.2309610182516534e+17
4.237944078927105,1071296818961960.8,2.5281527158436448e+17,1117487655311962.1,2455658207408551.5,47205200858577.47,258530667862896.0,1.454504125669996e+16,2.3332005177726067e+17
4.422702960505647,1071148760239823.4,2.6390429497105587e+17,1117333212565201.1,2455318819477244.0,49304602324944.74,270032747488282.2,1.519268406262092e+16,2.4374847276633946e+17
4.61115701971576,1071012776764955.0,2.7521515380587107e+17,1117191365725443.5,2455007111009176.0,51445982940721.99,281765177816177.7,1.5853298989043752e+16,2.5438543240257088e+17
4.803380160110075,1070887717402141.8,2.8675225645273715e+17,1117060914022916.8,2454720443317024.0,53630175946341.56,293732545559654.0,1.6527144361054506e+16,2.652350802954347e+17
4.9994477633122765,1070772576392382.5,2.985201008113825e+17,1116940808332375.2,2454456510951675.5,55858031521905.16,305939531253118.7,1.7214483790670228e+16,2.7630164956226077e+17
5.199436718578522,1070666471439819.9,3.105232758684118e+17,1116830128315183.0,2454213291472059.5,58130417072433.34,318390910859023.44,1.7915586267478288e+16,2.8758945838177504e+17
5.403425452950093,1070568625629780.4,3.227664633127449e+17,1116728063557701.9,2453989003996839.0,60448217526284.48,331091557448510.94,1.8630726253428148e+16,2.991029115911575e+17
5.611493962009095,1070478352421931.4,3.3525443921067296e+17,1116633897917388.2,2453782074805026.5,62812335645644.414,344046442950066.5,1.936018378144617e+16,3.1084650232548704e+17
5.823723841249277,1070395043127790.9,3.479920757369005e+17,1116546996460353.0,2453591108631341.5,65223692348233.94,357260639961584.0,2.0104244557619376e+16,3.228248136987521e+17
6.040198318074262,1070318156407647.8,3.609843429587763e+17,1116466794505418.0,2453414864590562.5,67683227039575.7,370739323622319.75,2.0863200066752732e+16,3.3504252052585824e+17
6.261002284435747,1070247209418479.1,3.742363106716173e+17,1116392788390344.5,2453252235886355.0,70191897955312.73,384487773542038.06,2.1637347681150204e+16,3.475043910852746e+17
6.486222330124463,1070181770319083.6,3.877531502835428e+17,1116324527653812.1,2453102232631205.5,72750682513192.97,398511375785326.9,2.2426990772507716e+16,3.6021528892213254e+17
6.715946776726952,1070121451896724.0,4.0154013674867706e+17,1116261608387246.2,2452963967237091.5,75360577674428.8,412815624909582.94,2.3232438826834776e+16,3.731801746917371e+17
6.950265712261491,1070065906125079.2,4.156026505479155e+17,1116203667558127.2,2452836641940972.5,78022600314221.02,427406126055601.56,2.4054007562346236e+16,3.864041080435748e+17
7.18927102650672,1070014819499195.1,4.299461797167353e+17,1116150378143792.9,2452719538111339.5,80737787601296.17,442288597090050.56,2.4892019050283844e+16,3.998922495460054e+17
7.433056447036854,1069967909021581.0,4.44576321919757e+17,1116101444944460.9,2452612007047353.0,83507197386360.23,457468870799395.94,2.5746801838644504e+16,4.13649862651913e+17
7.681717575977592,1069924918736309.9,4.5949878657194746e+17,1116056600967889.6,2452513462034144.0,86331908599412.77,472952897135074.0,2.6618691078804388e+16,4.276823157056703e+17
7.935351927497144,1069885616726173.5,4.747193970065236e+17,1116015604297056.6,2452423371459559.0,89213021655898.84,488746745509914.44,2.7508028655038936e+16,4.4199508399183584e+17
8.194058966047088,1069849792502642.9,4.9024409268973126e+17,1115978235367578.4,2452341252831287.5,92151658871709.16,504856607145958.4,2.8415163316948548e+16,4.5659375182606355e+17
8.45794014536803,1069817254730260.1,5.060789314827995e+17,1115944294593984.9,2452266667560611.0,95148964887057.81,521288797473983.94,2.9340450814806464e+16,4.71484014688747e+17
8.72709894827539,1069787829236785.2,5.2223009195145344e+17,1115913600294062.5,2452199216401170.0,98206107099291.94,538049758585136.56,3.0284254037853324e+16,4.8667168140198374e+17
9.0016409272409,1069761357268305.4,5.3870387572345536e+17,1115885986868737.4,2452138535449239.5,101324276104703.14,555146061735189.7,3.124694315556694e+16,5.021626763504624e+17
9.281673745785717,1069737693955062.9,5.5550670989471834e+17,1115861303201742.5,2452084292627024.5,104504686149425.75,572584409902030.9,3.222889576194228e+16,5.1796304174694086e+17
9.567307220701432,1069716706959066.2,5.7264514948458106e+17,1115839411248922.1,2452036184582641.5,107748575589520.66,590371640397057.4,3.323049702281994e+16,5.3407893994298394e+17
9.85865336511546,1069698275279017.6,5.901258799409133e+17,1115820184791630.1,2451993933950740.5,111057207360354.05,608514727531219.9,3.4252139826305556e+16,5.505166557856945e+17
10.155826432417769,1069682288191767.6,6.079557196957437e+17,1115803508332541.6,2451957286926028.5,114431869455390.58,627020785336533.0,3.5294224936326344e+16,5.6728259902117523e+17
10.458942961066125,1069668644312581.9,6.261416227721669e+17,1115789276115397.5,2451926011109179.5,117873875414530.27,645897070343901.9,3.635716114937349e+16,5.84383306745498e+17
10.768121820287448,1069657250759074.4,6.446906814433064e+17,1115777391252892.8,2451899893590366.5,121384564822125.53,665150984418192.2,3.744136545448264e+16,6.018254459039809e+17
11.083484256693197,1069648022405841.8,6.636101289441673e+17,1115767764949171.8,2451878739240688.0,124965303814822.66,684790077651489.5,3.854726319650648e+16,6.196158158395987e+17
11.405153941827061,1069640881218627.4,6.829073422372301e+17,1115760315805278.4,2451862369185915.5,128617485599376.94,704822051315556.9,3.967528824273713e+16,6.377613508913682e+17
11.733257020663602,1069635755658402.0,7.025898448326762e+17,1115754969197545.1,2451850619440493.0,132342530980601.06,725254760874534.1,4.082588315293681e+16,6.56269123043588e+17
12.067922161076874,1069632580147054.2,7.22665309664165e+17,1115751656720247.1,2451843339682768.5,136141888899605.64,746096219058960.0,4.199949935283913e+16,6.751463446268177e+17
12.409280604298411,1069631294587475.6,7.431415620211084e+17,1115750315684989.1,2451840392154904.5,140017036982503.02,767354599002230.6,4.3196597311183704e+16,6.944003710715128e+17
12.75746621638438,1069631843931793.5,7.640265825384147e+17,1115750888670326.6,2451841650673171.5,143969482099744.12,789038237440659.2,4.441764672035055e+16,7.140387037152486e+17
13.112615540712067,1069634177792295.4,7.853285102447112e+17,1115753323115911.6,2451846999736087.0,148000760936268.7,811155637978308.9,4.566312668066127e+16,7.340689926644913e+17
13.474867851526309,1069638250090299.9,8.070556456700598e+17,1115757570956222.0,2451856333719526.0,152112440572648.78,833715474417837.5,4.693352588841691e+16,7.544990397118862e+17
13.844365208556836,1069644018738800.0,8.292164540142196e+17,1115763588289522.5,2451869556149271.5,156306119077413.28,856726594158601.5,4.8229342827743656e+16,7.753368013100631e+17
14.221252512727972,1069651445355245.6,8.5181956837654e+17,1115771335078266.2,2451886579042649.5,160583426110744.44,880198021663305.0,4.95510859663199e+16,7.965903916029695e+17
14.605677562982532,1069660495001262.9,8.748737930485592e+17,1115780774877586.0,2451907322311889.5,164946023539739.97,904138961994518.2,5.089927395505957e+16,8.182680855157746e+17
14.997791114242183,1069671135946484.5,8.983881068704573e+17,1115791874588943.5,2451931713222757.5,169395606065441.22,928558804422417.1,5.227443583182904e+16,8.403783219043823e+17
15.397746936527026,1069683339454009.0,9.223716666524865e+17,1115804604236340.1,2451959685902792.0,173933901861829.4,953467126105124.1,5.367711122927613e+16,8.629297067656507e+17
15.805701875257567,1069697079585296.0,9.468338106625505e+17,1115818936762794.9,2451991180894063.0,178562673226997.0,978873695843076.1,5.5107850586852056e+16,8.859310165093862e+17
16.221815912762718,1069712333022548.1,9.717840621811287e+17,1115834847845072.9,2452026144746038.0,183283717246704.25,1004788477908855.2,5.6567215367109016e+16,9.093912012932499e+17
16.64625223101797,1069729078906863.6,9.972321331247474e+17,1115852315724857.2,2452064529644576.0,188098866470537.47,1031221635953979.1,5.805577827635759e+16,9.333193884216882e+17
17.079177275638333,1069747298690623.8,1.023187927739242e+18,1115871321054769.8,2452106293073565.0,193009989600882.97,1058183536994148.5,5.957412348977016e+16,9.577248858100577e+17
17.5207608211511,1069766976002747.2,1.0496615463640568e+18,1115891846757819.6,2452151397506061.0,198018992194943.16,1085684755474515.4,6.112284688101928e+16,9.82617185515102e+17
17.97117603757412,1069788096525614.6,1.076663289268869e+18,1115913877899016.6,2452199810122151.5,203127817380016.97,1113736077416538.4,6.270255625654017e+16,1.0080059673329859e+18
18.430599558325603,1069810647882562.1,1.1042036605638341e+18,1115937401568018.1,2452251502551080.5,208338446582275.75,1142348504648051.8,6.431387159450988e+16,1.0339011024660924e+18
18.899211549492115,1069834619534986.2,1.1322933721847816e+18,1115962406771792.5,2452306450635377.0,213652900269265.9,1171533259118181.2,6.595742528863774e+16,1.0603126572598144e+18
19.37719578048196,1069860002688188.2,1.1609433479547044e+18,1115988884336408.4,2452364634215027.5,219073238706375.34,1201301787298815.0,6.763386239686177e+16,1.0872508970105974e+18
19.864739696091597,1069886790205186.5,1.1901647277229087e+18,1116016826817126.8,2452426036929907.5,224601562727505.3,1231665764674315.2,6.9343840895050856e+16,1.114726289846504e+18
20.36203449001343,1069914976527790.1,1.2199688715832305e+18,1116046228416074.5,2452490646038874.5,230240014520187.62,1262637100321255.0,7.10880319358115e+16,1.1427495106815962e+18
20.869275179813698,1069944557604316.9,1.250367364172717e+18,1116077084906843.9,2452558452254076.0,235990778425398.88,1294227941579954.5,7.286712011250243e+16,1.1713314452454436e+18
21.38666068340997,1069975530823381.4,1.2813720190522135e+18,1116109393565427.5,2452629449589164.0,241856081752318.78,1326450678819651.5,7.468180372856043e+16,1.2004831941891026e+18
21.91439389707817,1070007894953257.2,1.3129948831703406e+18,1116143153106960.8,2452703635220311.0,247838195608288.97,1359317950299161.2,7.653279507224552e+16,1.2302160772689073e+18
22.452681775019734,1070041650086334.2,1.3452482414123185e+18,1116178363627793.5,2452781009358883.0,253939435744230.25,1392842647124943.2,7.842082069691286e+16,1.2605416376094648e+18
23.00173541052013,1070076797588280.8,1.378144621235158e+18,1116215026552451.9,2452861575134918.0,260162163415778.8,1427037918308519.2,8.034662170692309e+16,1.2914716460472353e+18
23.561770118730532,1070113340051517.1,1.4116967973907525e+18,1116253144585108.8,2452945338490459.5,266508786260407.7,1461917175925194.2,8.23109540493049e+16,1.3230181055561344e+18
24.133005521105144,1070151281252668.6,1.4459177967384323e+18,1116292721665201.4,2453032308082040.0,272981759190800.4,1497494100376151.0,8.43145888112846e+16,1.35519325575658e+18
24.715665631527248,1070190626113686.5,1.4808209031485445e+18,1116333762926879.8,2453122495191560.5,279583585304751.25,1533782645755945.8,8.635831252380237e+16,1.3880095775094484e+18
25.309978944157795,1070231380666368.4,1.516419662498683e+18,1116376274661989.8,2453215913644954.0,286316816811865.56,1570797045327523.2,8.844292747113368e+16,1.4214797975964362e+18
25.91617852304095,1070273552020002.9,1.5527278877641733e+18,1116420264286330.4,2453312579738025.5,293184055977339.5,1608551817106894.2,9.056925200674091e+16,1.4556168934883039e+18
26.53450209350177,1070317148331936.6,1.5897596642044966e+18,1116465740308946.5,2453412512168977.0,300187956083104.6,1647061769559690.2,9.273812087547968e+16,1.4904340982025646e+18
27.165192135371807,1070362178780828.1,1.6275293546472878e+18,1116512712304232.2,2453515731977112.5,307331222406618.8,1686342007411793.0,9.49503855422885e+16,1.5259449052521185e+18
27.808495978079243,1070408653542411.9,1.666051604871651e+18,1116561190886650.0,2453622262487269.0,314616613217596.75,1726407937576360.2,9.720691452749238e+16,1.5621630736864479e+18
28.464665897640828,1070456583767599.9,1.7053413490924908e+18,1116611187687883.8,2453732129259622.5,322046940792970.0,1767275275199544.0,9.950859374885389e+16,1.5991026332269297e+18
29.133959215593645,1070505981562751.6,1.7454138155476152e+18,1116662715336262.1,2453845360044466.5,329625072450376.0,1808960049827299.8,1.0185632687050835e+17,1.6367778894978842e+18
29.816638399905518,1070556859971972.6,1.786284532189388e+18,1116715787438297.6,2453961984741636.5,337353931600471.8,1851478611695699.0,1.0425103565892138e+17,1.6752034293550182e+18
30.51297116790363,1070609232961321.8,1.8279693324827384e+18,1116770418562201.6,2454082035364296.0,345236498818378.3,1894847638147212.5,1.0669366034601208e+17,1.7143941263128724e+18
31.223230591261704,1070663115404779.8,1.8704843613113324e+18,1116826624223258.8,2454205546006792.0,353275812934560.75,1939084140175497.2,1.0918515999958507e+17,1.754365146073002e+18
31.947695203086937,1070718523071896.9,1.913846080993772e+18,1116884420870937.1,2454332552816324.5,361474972145450.6,1984205469101256.5,1.1172651290122045e+17,1.7951319521545439e+18
32.686649107148675,1070775472616999.1,1.958071277411685e+18,1116943825877628.0,2454463093968209.0,369837135144129.5,2030229323381785.0,1.1431871693177226e+17,1.836710311628923e+18
33.44038208929165,1070833981569871.4,2.0031770662516237e+18,1117004857528930.0,2454597209644525.0,378365522271380.8,2077173755556895.0,1.1696278996462848e+17,1.8791163009604242e+18
34.20918973107749,1070894068327824.8,2.0491808993626673e+18,1117067535015373.2,2454734942015922.5,387063416687435.0,2125057179333945.0,1.1965977026689162e+17,1.922366311954394e+18
34.993373525699035,1070955752149078.5,2.0961005712316928e+18,1117131878425517.8,2454876335226463.5,395934165564726.8,2173898376814762.2,1.2241071690863787e+17,1.966477057814874e+18
35.793240996213015,1071019053147386.0,2.1439542255783063e+18,1117197908740341.5,2455021435381293.0,404981181301988.7,2223716505867289.2,1.2521671018042069e+17,2.0114655793134477e+18
36.60910581613728,1071083992287823.8,2.1927603620713823e+18,1117265647828856.5,2455170290536987.5,414207942760008.1,2274531107644861.5,1.2807885201918426e+17,2.0573492510711383e+18
37.44128793246003,1071150591383708.8,2.2425378431692861e+18,1117335118444887.2,2455322950694489.0,423617996519378.7,2326362114256096.5,1.309982664427578e+17,2.104145787955229e+18
38.29011369110923,1071218873094574.0,2.2933059010857994e+18,1117406344224959.5,2455479467794473.0,433214958160575.5,2379229856588361.5,1.3397609999310507e+17,2.151873251592831e+18
39.15591596493141,1071288860925146.6,2.345084144883823e+18,1117479349687238.8,2455639895714991.0,443002513566695.1,2433155072287940.5,1.3701352218850606e+17,2.200550057003135e+18
40.03903428423004,1071360579225309.0,2.397892567698945e+18,1117554160231482.6,2455804290271393.0,452984420249189.1,2488158913900037.5,1.4011172598485205e+17,2.2501949793502185e+18
