t(s),Total solute volume 1,Total retention volume 1,Total 1 volume 1,Total 2 volume 1,Total 3 volume 1,Total 4 volume 1,Total 5 volume 1,Total 6 volume 1
0.1,1038034012882719.0,1307672365282961.0,121693262551923.95,147945089848319.12,0.0,0.0,0.0,0.0
0.202,1538858793123057.2,1992241320238124.0,180407140425636.78,219324803779631.44,52529755673.49008,115985954045.43428,2072225791263.1753,51409841408814.82
0.30604000000000003,1902670696310354.5,2530911017774183.0,223058399646097.53,271176848627235.6,131192473620.95103,289676207325.6044,5175469921692.947,128408734587853.38
0.41216080000000005,2196228491280630.8,3001069774867611.0,257473462740180.94,313015974240471.2,229422854147.59622,506575792888.46106,9050734183547.486,224565113775744.12
0.5204040160000001,2445005861333204.0,3431481895465367.5,286638720941513.4,348472800175587.9,343965061148.28644,759496846415.2285,13569594277182.271,336691456830314.3
0.6308120963200001,2661924518780342.0,3836377680123780.5,312069043053540.94,379388984733307.06,472814328229.4513,1044013764235.936,18652980092244.52,462825325371880.7
0.7434283382464002,2854627756838064.5,4223982058215074.0,334660485739730.2,406853883095260.7,614596369700.1924,1357092990231.693,24246693134326.098,601621550047764.0
0.8582969050113283,3028096192569743.5,4599544542552604.0,354996948502059.6,431577354326887.44,768307791087.9607,1696519867557.951,30311165999540.176,752098053495725.2
0.9754628431115548,3185799320023456.0,4966656753502434.0,373485175288013.9,454053885710381.0,933185761774.0161,2060610891270.856,36816321217362.54,913508254610178.5
1.094972099973786,3330274830744606.0,5327907003254119.0,390422670765965.0,474645160008567.56,1108634388057.9175,2448051150468.923,43738666865470.03,1085268989330985.4
1.2168715419732616,3463449215921218.5,5685238005003717.0,406035285915656.3,493625749068366.8,1294179516883.3904,2857794542491.7837,51059513728233.73,1266916266310869.2
1.3412089728127268,3586828406737105.0,6040156886539766.0,420499567629866.4,511210284707792.06,1489439224839.3389,3288998618478.159,58763811207551.414,1458076378414138.0
1.4680331522689813,3701617689325817.5,6393865607643376.0,433956816868453.06,527570549513381.8,1694103606864.4338,3740979961561.342,66839350085175.24,1658446118282122.0
1.597393815314361,3808800623325953.0,6747345691178902.0,446522340625433.44,542846724653692.9,1907920398252.6433,4213182444255.0625,75276195393600.77,1867778704337701.8
1.729341691620648,3909192949963477.0,7101415358360836.0,458291771809038.4,557155073092125.06,2130684425398.5886,4705153939191.79,84066270320056.78,2085873454811547.2
1.863928525453061,4003480582565364.0,7456769276559275.0,469345523035624.5,570593354159056.5,2362229665144.5073,5216528789301.845,93203043012214.42,2312568015332559.5
2.001207095962122,4092247099046842.5,7814006955385111.0,479752009694079.75,583244741899909.0,2602423137882.597,5747014326678.329,102681285720096.47,2547732381559635.0
2.1412312378813647,4175994096707733.5,8173653503312788.0,489570036227548.2,595180726128658.1,2851160124458.582,6296380314223.548,112496886158056.17,2791264217652113.5
2.284055862638992,4255156564667401.0,8536175106561881.0,498850598311132.9,606463303373669.6,3108360360862.315,6864450546132.099,122646697437718.4,3043085131864969.5
2.4297369798917723,4330114697589195.5,8901990777451880.0,507638267826448.25,617146660620745.1,3373964969655.368,7451096075013.193,133128417063332.08,3303137673307496.0
2.578331719489608,4401203115566136.5,9271481412198122.0,515972273749095.44,627278489371063.0,3647933956298.109,8056229686266.456,143940488211220.5,3571382881658042.5
2.7298983538794,4468718159143017.0,9644996873199592.0,523887357375977.8,636901025359230.0,3930244145369.5483,8679801343720.645,155082018362341.12,3847798267469931.5
2.884496320956988,4532923732778507.0,1.002286159748601e+16,531414457379902.5,646051881388758.9,4220887464089.979,9321794402117.596,166552711635717.72,4132376132436915.0
3.0421862473761276,4594056037741177.0,1.040537908970624e+16,538581264667646.44,654764721884833.2,4519869503456.615,9982222432581.83,178352812073830.9,4425122161402715.0
3.2030299723236504,4652327444157928.0,1.0792835559883096e+16,545412676317136.6,663069814755401.4,4827208303775.373,10661126543587.355,190483055780854.47,4726054234024410.0
3.3670905717701234,4707929687820191.0,1.1185502897697994e+16,551931170352983.3,670994487013777.2,5142933323418.188,11358573106529.043,202944630289818.97,5035201415791284.0
3.5344323832055258,4761036531571315.0,1.1583641126527954e+16,558157117752569.06,678563504091095.6,5467084558576.07,12074651814744.988,215739139887449.3,5352603096852213.0
3.7051210308696363,4811805997917967.0,1.1987500445527516e+16,564109044184830.5,685799388037706.1,5799711788503.381,12809474019686.107,228868575890726.34,5678308253688106.0
3.879223451487029,4860382255125095.0,1.2397322942565264e+16,569803851125411.2,692722686337587.0,6140873925872.185,13563171299239.129,242335291071305.53,6012374813680763.0
4.0568079205167695,4906897220911568.0,1.281334404199877e+16,575257003864917.5,699352200473977.2,6490638455800.631,14335894221920.787,256141977579563.6,6354869106491014.0
4.237944078927105,4951471934205845.0,1.3235793737205318e+16,580482692325816.4,705705181437911.1,6849080950191.985,15127811277443.283,270291647841223.7,6705865389166890.0
4.422702960505647,4994217735027699.0,1.366489764715775e+16,585493969385137.4,711797497890066.4,7216284646433.662,15939107949480.459,284787617994720.75,7065445434264203.0
4.61115701971576,5035237284575314.0,1.4100877928228472e+16,590302870463726.9,717643781547973.6,7592340081420.873,16769985910690.023,299633493512980.1,7433698172136360.0
4.803380160110075,5074625451400518.0,1.4543954066163278e+16,594920517416457.0,723257553487551.4,7977344773399.514,17620662323427.54,314833156713660.2,7810719380048257.0
4.9994477633122765,5112470084707497.0,1.4994343568318096e+16,599357209189404.2,728651334356965.1,8371402945356.092,18491369232309.13,330390755910566.25,8196611411975962.0
5.199436718578522,5148852691985475.0,1.545226257245672e+16,603622501261685.4,733836740955768.8,8774625284683.798,19382353036991.836,346310695998401.9,8591482963933713.0
5.403425452950093,5183849035146462.0,1.5917926385414652e+16,607725275533300.4,738824571199036.9,9187128734671.059,20293874035343.94,362597630295313.44,8995448870470522.0
5.611493962009095,5217529656906191.0,1.6391549962553786e+16,611673802035069.2,743624879139446.4,9609036314031.773,21226206028664.223,379256453494190.0,9408629928636210.0
5.823723841249277,5249960347185094.0,1.687334833703308e+16,615475793606844.4,748247041440753.1,10040476961252.207,22179635981835.723,396292295595625.25,9831152746261650.0
6.040198318074262,5281202557715968.0,1.736353700638701e+16,619138454503787.9,752699816469463.4,10481585400992.271,23154463732321.99,413710516713710.1,1.0263149611850786e+16
6.261002284435747,5311313771747769.0,1.7862332282666208e+16,622668523738363.2,756991396986645.4,10932502030165.791,24151001742767.125,431516702661056.44,1.0704758383759446e+16
6.486222330124463,5340347834670500.0,1.8369951611384452e+16,626072313840933.6,761129457269968.1,11393372821648.89,25169574892679.48,449716661232321.7,1.1156122396656362e+16
6.715946776726952,5368355250507756.0,1.8886613863691064e+16,629355745618876.6,765121195371136.4,11864349243840.633,26210520305283.94,468316419116269.75,1.1617390383527916e+16
6.950265712261491,5395383448496271.0,1.9412539605508744e+16,632524379408869.5,768973371109955.0,12345588194532.1,27274187206142.105,487322219375642.94,1.208871641171732e+16
7.18927102650672,5421477023365021.0,1.99479513468137e+16,635583443245866.9,772692340319929.4,12837251947738.414,28360936810577.57,506740519441900.5,1.2570259831682702e+16
7.433056447036854,5446677952419155.0,2.049307377377214e+16,638537858312783.1,776284085788010.2,13339508112317.543,29471142237316.65,526577989578584.3,1.3062185237323976e+16
7.681717575977592,5471025792107799.0,2.104813396605426e+16,641392261985004.2,779754245270297.6,13852529601345.494,30605188446076.94,546841511772797.5,1.3564662436870948e+16
7.935351927497144,5494557856394455.0,2.161336160132534e+16,644151028741537.9,783108136914150.0,14376494611341.666,31763472197113.125,567538179019232.0,1.4077866433447508e+16
8.194058966047088,5517309378944633.0,2.2188989148637716e+16,646818289178950.8,786350782373862.4,14911586610547.387,32946402030967.086,588675294965460.4,1.4601977414533332e+16
8.45794014536803,5539313660884772.0,2.2775252052216796e+16,649397947333823.4,789486927869917.9,15457994335553.857,34154398266878.83,610260373890907.2,1.5137180749634956e+16
8.72709894827539,5560602205666565.0,2.337238890693978e+16,651893696493466.2,792521063410423.1,16015911795657.818,35387893018492.99,632301140995139.4,1.5683666995560034e+16
9.0016409272409,5581204842380118.0,2.398064162663923e+16,654309033652465.6,795457440366242.6,16585538284393.297,36647330225656.08,654805532973922.8,1.6241631908756422e+16
9.281673745785717,5601149838697149.0,2.460025560622166e+16,656647272753510.2,798300087568141.6,17167078397752.186,37933165701233.58,677781698863984.2,1.6811276464239852e+16
9.567307220701432,5620464004484699.0,2.523147987847111e+16,658911556834467.4,801052826074263.2,17760742058658.75,39245867192002.78,701238001139562.8,1.7392806880687472e+16
9.85865336511546,5639172787008353.0,2.587456726630365e+16,661104869189492.2,803719282738911.9,18366744547312.785,40585914452776.086,725183017045713.1,1.7986434651321114e+16
10.155826432417769,5657300358539189.0,2.652977453114881e+16,663230043639555.1,806302902698649.9,18985306537058.117,41953799333012.27,749625540155063.8,1.8592376580246268e+16
10.458942961066125,5674869697086354.0,2.7197362518058292e+16,665289773997087.0,808806960878686.1,19616654135470.395,43350025875248.84,774574582136173.8,1.9210854823949216e+16
10.768121820287448,5691902660898055.0,2.787759629807507e+16,667286622800044.4,811234572611047.1,20261018930391.926,44775110424767.45,800039374722962.5,1.984209693768784e+16
11.083484256693197,5708420057303497.0,2.857074530833816e+16,669223029382565.9,813588703446251.5,20918638040670.06,46229581749967.805,826029371875878.0,2.0486335926539308e+16
11.405153941827061,5724441706407416.0,2.927708349034797e+16,671101317342142.6,815872178231316.9,21589754171382.656,47713981172984.414,852554252126477.0,2.1143810300896228e+16
11.733257020663602,5739986500095163.0,2.9996889426775656e+16,672923701457056.4,818087689519420.9,22274615673357.613,49228862710132.484,879623921098087.9,2.1814764136222412e+16
12.067922161076874,5755072456758698.0,3.0730446477158428e+16,674692294102140.1,820237805369693.2,22973476606813.465,50774793221818.03,907248514195988.0,2.249944713690334e+16
12.409280604298411,5769716772112495.0,3.147804291279267e+16,676409111206154.5,822324976589708.8,23686596808967.496,52352352571585.02,935438399461342.5,2.3198114704042496e+16
12.75746621638438,5783935866431362.0,3.2239972051105456e+16,678076077789670.1,824351543468034.5,24414241965476.17,53962133794017.195,964204180583806.2,2.391102800707306e+16
13.112615540712067,5797745428509308.0,3.301653238976038e+16,679695033118578.1,826319742039425.1,25156683685584.125,55604743271237.586,993556700068273.6,2.463845405906796e+16
13.474867851526309,5811160456609790.0,3.380802774073229e+16,681267735504849.2,828231709921247.8,25914199580875.88,57280800917786.69,1023507042551857.5,2.538066579564593e+16
13.844365208556836,5824195296651796.0,3.461476736456182e+16,682795866783258.5,830089491755904.8,26687073347533.51,58990940373685.5,1054066538267664.0,2.6137942157381984e+16
14.221252512727972,5836863677852991.0,3.543706610498816e+16,684281036489994.8,831895044290867.4,27475594852016.613,60735809205513.56,1085246766652349.2,2.691056817564442e+16
14.605677562982532,5849178746031067.0,3.6275244524140024e+16,685724785766724.2,833650241124921.5,28280060220090.766,62516069115358.38,1117059560094891.1,2.769883506178692e+16
14.997791114242183,5861153094745656.0,3.712962903845106e+16,687128591011472.1,835356877146643.4,29100771929137.64,64332396157509.39,1149517007824398.8,2.8503040299636172e+16
15.397746936527026,5872798794446694.0,3.800055205545529e+16,688493867295842.1,837016672688754.9,29938038903692.78,66185480962794.336,1182631459935090.0,2.932348774122247e+16
15.805701875257567,5884127419780780.0,3.888835211160734e+16,689821971566242.6,838631277419954.0,30792176614159.652,68076028970466.42,1216415531546855.8,3.016048770570895e+16
16.221815912762718,5895150075193447.0,3.979337401126006e+16,691114205645350.1,840202273993832.2,31663507178658.973,70004760667573.984,1250882107100222.0,3.1014357081480956e+16
16.64625223101797,5905877418953060.0,4.07159689669282e+16,692371819048547.9,841731181472894.4,32552359467977.008,71972411835754.23,1286044344784693.5,3.188541943136526e+16
17.079177275638333,5916319685712156.0,4.165649474095532e+16,693596011628882.2,843219458544085.1,33459069213583.24,73979733805406.84,1321915681099708.5,3.2774005100951572e+16
17.5207608211511,5926486707711257.0,4.2615315788696696e+16,694787936062884.9,844668506540846.4,34383979118691.812,76027493717218.47,1358509835547735.0,3.3680451329998144e+16
17.97117603757412,5936387934722293.0,4.359280340332349e+16,695948700188614.0,846079672285546.6,35327438972347.52,78116474791018.61,1395840815459135.0,3.4605102366904476e+16
18.430599558325603,5946032452820144.0,4.458933586234943e+16,697079369206342.9,847454250764871.5,36289805766520.49,80247476601956.55,1433922920948775.8,3.5548309586240776e+16
18.899211549492115,5955429002063954.0,4.560529857597662e+16,698180967751402.5,848793487649858.0,37271443816198.54,82421315364005.02,1472770750004334.5,3.651043160932687e+16
19.37719578048196,5964585993163439.0,4.664108423735124e+16,699254481848051.4,850098581671234.0,38272724882468.25,84638824220795.97,1512399203706619.0,3.7491834427858664e+16
19.864739696091597,5973511523198911.0,4.769709297481687e+16,700300860752403.1,851370686859904.5,39294028298582.28,86900853543815.62,1552823491582278.8,3.849289153058088e+16
20.36203449001343,5982213390458997.0,4.877373250625204e+16,701321018691917.5,852610914661698.4,40335741099011.586,89208271237977.9,1594059137089404.2,3.951398403301287e+16
20.869275179813698,5990699108454561.0,4.9871418295571464e+16,702315836508315.5,853820335934683.9,41398258151481.83,91561963054621.17,1636121983236725.8,4.0555500810231016e+16
21.38666068340997,5998975919163275.0,5.099057371147141e+16,703286163210282.2,854999982836845.4,42481982292003.25,93962832911962.52,1679028198337199.8,4.1617838632719736e+16
21.91439389707817,6007050805554662.0,5.213163018849467e+16,704232817441861.5,856150850611206.0,43587324462896.94,96411803223065.17,1722794281896944.2,4.270140230530399e+16
22.452681775019734,6014930503442352.0,5.3295027390490696e+16,705156588871925.8,857273899275056.9,44714703853828.65,98909815231372.05,1767437070640506.8,4.380660480917561e+16
23.00173541052013,6022621512706169.0,5.448121337654228e+16,706058239509793.2,858370055219398.2,45864548045862.484,101457829353868.02,1812973744673685.5,4.493386744703345e+16
23.561770118730532,6030130107924032.0,5.56906447694314e+16,706938504951656.5,859440212724214.1,47037293158545.51,104056825531939.05,1859421833785098.0,4.608361999135598e+16
24.133005521105144,6037462348450503.0,5.692378692671046e+16,707798095562140.0,860485235394927.6,48233384000041.57,106707803590001.05,1906799223887920.5,4.725630083582494e+16
24.715665631527248,6044624087976271.0,5.818111411445064e+16,708637697594980.1,861505957524861.5,49453274220329.39,109411783601977.3,1955124163603213.0,4.845235714992903e+16
25.309978944157795,6051620983600374.0,5.9463109683731416e+16,709457974256628.1,862503185388242.2,50697426467482.85,112169806265706.89,2004415270986374.2,4.967224503676667e+16
25.91617852304095,6058458504444787.0,6.077026624993768e+16,710259566716155.2,863477698467998.6,51966312547056.26,114982933285373.78,2054691540398358.0,5.091642969407799e+16
26.53450209350177,6065141939838917.0,6.210308587492976e+16,711043095064768.4,864430250622238.5,53260413584592.33,117852247762047.05,2105972349523398.5,5.218538557853378e+16
27.165192135371807,6071676407099716.0,6.346208025214917e+16,711809159227897.5,865361571193107.1,54580220191278.24,120778854592432.17,2158277466534988.8,5.347959657330964e+16
27.808495978079243,6078066858930962.0,6.484777089472439e+16,712558339832654.9,866272366061387.0,55926232632771.01,123763880875933.27,2211627057412038.5,5.479955615897863e+16
28.464665897640828,6084318090464647.0,6.6260689326637576e+16,713291199033324.6,867163318650030.4,57298961001217.766,126808476330129.62,2266041693407111.5,5.614576758775117e+16
29.133959215593645,6090434745964642.0,6.770137727701646e+16,714008281297259.1,868035090879616.5,58698925390497.484,129913813714780.67,2321542358668804.0,5.751874406110095e+16
29.816638399905518,6096421325212380.0,6.917038687760867e+16,714710114153499.2,868888324078463.2,60126656074706.32,133081089264467.19,2378150458020328.0,5.891900891080499e+16
30.51297116790363,6102282189592680.0,7.066828086350409e+16,715397208906252.5,869723639850005.4,61582693689918.414,136311523129989.62,2435887824896461.5,6.034709578343886e+16
31.223230591261704,6108021567896493.0,7.21956327771613e+16,716070061315168.4,870541640899835.6,63067589419246.62,139606359828641.69,2494776729441168.0,6.1803548828360696e+16
31.947695203086937,6113643561856982.0,7.37530271758009e+16,716729152244350.9,871342911824698.1,64581905181230.96,142966868703484.12,2554839886767987.0,6.32889228892221e+16
32.686649107148675,6119152151432981.0,7.534105984222344e+16,717374948281773.0,872128019865552.5,66126213821585.78,146394344391744.6,2616100465385813.0,6.480378369904389e+16
33.44038208929165,6124551199854529.0,7.696033799911232e+16,718007902330772.2,872897515626664.0,67701099308331.33,149890107302476.9,2678582095792254.0,6.63487080788973e+16
34.20918973107749,6129844458443201.0,7.86114805268801e+16,718628454175178.9,873651933762610.5,69307156930341.65,153455504103606.72,2742308879237172.5,6.792428414022794e+16
34.993373525699035,6135035571219425.0,8.02951181851145e+16,719237031019434.2,874391793634953.1,70944993499336.55,157091908218513.8,2807305396658927.0,6.9531111490863816e+16
35.793240996213015,6140128079308546.0,8.20118938376883e+16,719834048005136.5,875117599940192.9,72615227555347.56,160800720332273.06,2873596717795849.5,7.116980144475092e+16
36.60910581613728,6145125425156102.0,8.376246268158315e+16,720419908705227.1,875829843310572.0,74318489575687.81,164583368907713.75,2941208410475748.5,7.284097723545194e+16
37.44128793246003,6150030956562908.0,8.554749247949064e+16,720995005597026.6,876529000889145.4,76055422187455.38,168441310711427.56,3010166550085924.5,7.454527423345704e+16
38.29011369110923,6154847930548999.0,8.736766379624811e+16,721559720515232.6,877215536880503.5,77826680383600.19,172376031349894.6,3080497729226772.0,7.62833401673432e+16
39.15591596493141,6159579517055853.0,8.922367023915891e+16,722114425085940.0,877889903078421.9,79632931742581.05,176389045815852.06,3152229067551435.0,7.805583534882893e+16
40.03903428423004,6164228802495045.0,9.111621870226576e+16,722659481142662.6,878552539371632.2,81474856651647.0,180481899045083.1,3225388221794736.5,7.986343290176486e+16
40.93981496991464,6168798793151454.0,9.304602961462075e+16,723195241125321.5,879203874228866.5,83353148533767.06,184656166483773.9,3300003395993995.5,8.170681899510346e+16
41.85861126931294,6173292418448433.0,9.501383719261938e+16,723722048463023.0,879844325164217.6,85268514078239.78,188913454666593.38,3376103351904927.5,8.358669307989374e+16
42.7957834946992,6177712534082205.0,9.702038969644462e+16,724240237941512.5,880474299183865.0,87221673475008.88,193255401805668.38,3453717419615595.0,8.550376813034093e+16
43.751699164593184,6182061925031849.0,9.906644969068502e+16,724750136056063.4,881094193215084.6,89213360652714.23,197683678390608.78,3532875508361450.0,8.745877088897709e+16
44.72673314788505,6186343308451439.0,1.01152794309172e+17,725252061350524.1,881704394518430.6,91244323520502.03,202199987799760.25,3613608117544561.5,8.945244211598674e+16
