t(s),Total solute volume 1,Total retention volume 1,Total 1 volume 1,Total 2 volume 1,Total 3 volume 1,Total 4 volume 1,Total 5 volume 1,Total 6 volume 1
0.1,1390364305082634.2,4522349373840332.0,1040967157064613.5,2091017911693084.5,0.0,0.0,0.0,-7.577716622845604e-138
0.202,2065940120052515.8,6769196900784219.0,1546771659199981.5,3107042936739771.5,8302644469.6882105,39645648141.09221,2057921148218.5938,47336315351115.75
0.30604000000000003,2576329480025797.0,8510257176754090.0,1928900765502453.8,3874636516212216.0,20914677710.06715,99877590784.2023,5216611125704.907,125053011619419.06
0.41216080000000005,3001546214418662.0,9998328903220200.0,2247261020093997.5,4514135704122248.0,36916451131.59412,176299941770.1052,9231878128932.543,225940870063462.25
0.5204040160000001,3373032136623771.5,1.1332196464434748e+16,2525392951928170.0,5072827104134786.0,55870392977.457344,266822397441.25723,13991648714260.164,346629930243343.5
0.6308120963200001,3706667984346065.5,1.2561569180230708e+16,2775186489221827.0,5574594368692396.0,77520488469.07109,370222080393.37427,19430909460936.652,485241685940616.0
0.7434283382464002,4011750447233091.5,1.3715462920074978e+16,3003602074682262.0,6033419140752716.0,101700610246.66655,485705502829.0099,25507616468506.766,640596234825329.6
0.8582969050113283,4294264961449024.5,1.4812522481356784e+16,3215121011399157.0,6458303141945074.0,128296537788.39844,612727118887.9497,32192921206681.664,811899421700184.0
0.9754628431115548,4558328723805971.0,1.5865563381238232e+16,3412825849401786.5,6855438377948104.0,157227110968.4533,750899296386.5157,39466358256442.625,998595945418573.5
1.094972099973786,4806915133664735.0,1.6883846629386704e+16,3598942776212558.5,7229296654469301.0,188433715030.63605,899942089639.1399,47313170837736.24,1200290518397698.8
1.2168715419732616,5042253249719854.0,1.7874329817017148e+16,3775140690626505.0,7583230335463343.0,221873909123.5937,1059652805740.6836,55722693965629.73,1416701320526954.5
1.3412089728127268,5266064247852314.0,1.8842405715713664e+16,3942708238987337.5,7919827961004159.0,257517321039.84558,1229886395898.8003,64687314252757.27,1647630549900138.2
1.4680331522689813,5479709398783053.0,1.97923632437453e+16,4102664606230791.5,8241136796423911.0,295342873403.5198,1410542206576.4905,74201767817435.28,1892944789410129.5
1.597393815314361,5684286919356803.0,2.0727688347575176e+16,4255832028553794.0,8548808490575235.0,335336837222.0618,1601554682556.8518,84262647991475.98,2152561369578090.2
1.729341691620648,5880697745509094.0,2.165126778336193e+16,4402885037711077.0,8844197994245509.0,377491423316.0048,1802886639159.287,94868049276994.95,2426438578556778.0
1.863928525453061,6069691603557658.0,2.2565531478860708e+16,4544384954644132.0,9128432848484032.0,421803736690.0051,2014524268010.8633,106017303164341.69,2714568441005835.0
2.001207095962122,6251900142246994.0,2.3472554647194096e+16,4680804695481036.0,9402463013112952.0,468274983577.7886,2236473349680.9263,117710777860631.17,3016971270159221.0
2.1412312378813647,6427861306121030.0,2.4374132717359532e+16,4812547019908449.0,9667097522745496.0,516909859145.2885,2468756329199.5005,129949723688918.92,3333691478707296.5
2.284055862638992,6598037623145032.0,2.5271837419602412e+16,4939958223134976.0,9923031990217362.0,567716067371.2592,2711410022895.75,142736151886863.75,3664794305127912.0
2.4297369798917723,6762830166181987.0,2.6167059504734024e+16,5063338588864465.0,1.0170869603767292e+16,620703939602.4646,2964483796534.0117,156072738329321.38,4010363219854806.0
2.578331719489608,6922589376691407.0,2.7061041791011e+16,5182950493011619.0,1.0411137405197804e+16,675886128095.7628,3228038101606.767,169962746185041.75,4370497845695431.0
2.7298983538794,7077623571566001.0,2.795490508545656e+16,5299024772780250.0,1.0644299083620922e+16,733277357458.5089,3502143288164.0493,184409963187997.3,4745312273655794.0
2.884496320956988,7228205711707307.0,2.8849668771469948e+16,5411765794303509.0,1.0870765154968842e+16,792894221437.1761,3786878634236.0386,199418650352096.56,5134933687282511.0
3.0421862473761276,7374578847565919.0,2.974626734629752e+16,5521355529726053.0,1.1090901151743014e+16,854755015688.7833,4082331547117.1875,214993499763488.53,5539501230936215.0
3.2030299723236504,7516960544505683.0,3.0645563842902744e+16,5627956870479213.0,1.130503427848239e+16,918879599445.2355,4388596902648.477,231139599659935.06,5959165073273420.0
3.3670905717701234,7655546512165638.0,3.1548360826737892e+16,5731716344588398.0,1.1513458870094744e+16,985289280633.0887,4705776496527.023,247862405424388.97,6394085628687541.0
3.5344323832055258,7790513605988358.0,3.2455409484495564e+16,5832766363920725.0,1.1716440905965828e+16,1054006720228.9574,5033978587488.478,265167715427607.5,6844432907885333.0
3.7051210308696363,7922022328623292.0,3.336741719682572e+16,5931227096988567.0,1.1914221771912012e+16,1125055852540.3005,5373317516551.507,283061650884400.2,7310385975048330.0
3.879223451487029,8050218929284053.0,3.4285053895535096e+16,6027208040740687.0,1.2107021417481188e+16,1198461818788.826,5723913389797.69,301550639061762.75,7792132493758792.0
4.0568079205167695,8175237177166690.0,3.5208957438064264e+16,6120809348322529.0,1.2295041023061616e+16,1274250911899.4297,6085891814670.482,320641399309897.25,8289868347476959.0
4.237944078927105,8297199868554155.0,3.613973818131236e+16,6212122957447033.0,1.2478465266472228e+16,1352450530803.4846,6459383681716.318,340340931489637.06,8803797323136786.0
4.422702960505647,8416220114735861.0,3.707798289847893e+16,6301233554661418.0,1.2657464259911962e+16,1433089142881.9766,6844524985202.497,360656506449691.75,9334130848591930.0
4.61115701971576,8532402448302061.0,3.802425815323327e+16,6388219403631120.0,1.2832195213756986e+16,1516196253422.7888,7241456677235.754,381595658270009.56,9881087776342474.0
4.803380160110075,8645843777978513.0,3.897911322286424e+16,6473153060025492.0,1.300280387257141e+16,1601802381163.9756,7650324550948.339,403166178037353.0,1.0444894207319352e+16
4.9994477633122765,8756634216402119.0,3.9943082644430744e+16,6556101991274438.0,1.3169425760029926e+16,1689939039152.5037,8071279149071.585,425376108959015.56,1.102578334957699e+16
5.199436718578522,8864857800709761.0,4.0916688444097176e+16,6637129116074023.0,1.3332187262637666e+16,1780638720274.8274,8504475694822.977,448233742652607.75,1.1623995407608042e+16
5.403425452950093,8970593122226533.0,4.190044209890061e+16,6716293275834810.0,1.3491206576741734e+16,1873934886918.4143,8950074042523.291,471747616475780.3,1.2239777498692288e+16
5.611493962009095,9073913878681166.0,4.289484627148735e+16,6793649648126170.0,1.3646594539028276e+16,1969861964306.9744,9408238645760.28,495926511780857.5,1.287338359326079e+16
5.823723841249277,9174889360081960.0,4.3900396351379864e+16,6869250110452126.0,1.3798455357249264e+16,2068455337120.7769,9879138541242.646,520779452996671.9,1.352507447672144e+16
6.040198318074262,9273584877533670.0,4.491758183070284e+16,6943143561307017.0,1.3946887255136064e+16,2169751349069.9023,10362947346758.05,546315707454129.9,1.4195117730576088e+16
6.261002284435747,9370062142770456.0,4.5946887537733096e+16,7015376204332399.0,1.4091983043193112e+16,2273787305135.0454,10859843271872.266,572544785883848.4,1.4883787730976254e+16
6.486222330124463,9464379604950772.0,4.6988794747911336e+16,7085991800475506.0,1.4233830625216082e+16,2380601476229.3706,11370009140192.328,599476443524008.1,1.5591365663128542e+16
6.715946776726952,9556592750249230.0,4.804378218889722e+16,7155031892294248.0,1.4372513448859312e+16,2490233106067.5923,11893632422172.166,627120681784798.1,1.6318139550181396e+16
6.950265712261491,9646754368948200.0,4.9112326953731656e+16,7222536003928905.0,1.4508110907324722e+16,2602722420055.574,12430905277569.516,655487750422679.2,1.7064404295409528e+16
7.18927102650672,9734914794039922.0,5.0194905334082824e+16,7288541819743797.0,1.4640698698204316e+16,2718110636036.966,12982024606773.111,684588150183549.0,1.7830461736668416e+16
7.433056447036854,9821122114774358.0,5.1291993583816776e+16,7353085344210793.0,1.4770349144642838e+16,2836439976752.899,13547192110312.654,714432635878774.9,1.8616620712222984e+16
7.681717575977592,9905422368106448.0,5.2404068621683656e+16,7416201045246196.0,1.4897131483262394e+16,2957753683887.256,14126614355942.92,745032219862279.8,1.942319713716651e+16
7.935351927497144,9987859710591736.0,5.353160868069147e+16,7477921982909038.0,1.5021112122682598e+16,3082096033584.5547,14720502852762.084,776398175880434.9,2.0250514089741284e+16
8.194058966047088,1.006847657293786e+16,5.467509391071714e+16,7538279925114092.0,1.5142354875956412e+16,3209512353339.282,15329074131882.094,808542043269569.1,2.1098901906954016e+16
8.45794014536803,1.0147313799130916e+16,5.5835006940035176e+16,7597305451795895.0,1.5260921169807448e+16,3340049040166.543,15952549833219.748,841475631478608.0,2.1968698288948924e+16
8.72709894827539,1.0224410771809932e+16,5.701183340070954e+16,7655028048776730.0,1.5376870233185378e+16,3473753579972.642,16591156798020.398,875211024896589.2,2.286024841166289e+16
9.0016409272409,1.0299805525353534e+16,5.820606242216845e+16,7711476192434817.0,1.5490259267341108e+16,3610674568052.479,17245127166765.025,909760587966868.4,2.3773905047337324e+16
9.281673745785717,1.0373534847964026e+16,5.941818709674735e+16,7766677426134727.0,1.560114359935499e+16,3750861730647.534,17914698482144.55,945136970571541.8,2.4710028692509304e+16
9.567307220701432,1.044563437388022e+16,6.064870492052412e+16,7820658429267270.0,1.5709576820819074e+16,3894365947504.4717,18600113796814.875,981353113671198.2,2.5668987703142056e+16
9.85865336511546,1.0516138666718324e+16,6.1898118212380376e+16,7873445079646867.0,1.5815610913176512e+16,4041239275379.9,19301621785672.63,1018422255186458.9,2.6651158436591156e+16
10.155826432417769,1.0585081294825682e+16,6.316693451388047e+16,7925062509929089.0,1.5919296361049298e+16,4191534972441.677,20019476862415.24,1056357936109012.4,2.7656925400132504e+16
10.458942961066125,1.0652494899433728e+16,6.445566697226626e+16,7975535158636730.0,1.6020682254735554e+16,4345307523521.7983,20753939300169.734,1095174006830966.0,2.8686681405805624e+16
10.768121820287448,1.0718411256309774e+16,6.576483470861347e+16,8024886816318678.0,1.6119816382930346e+16,4502612666179.725,21505275355994.63,1134884633682299.8,2.974082773135024e+16
11.083484256693197,1.0782861331533072e+16,6.70949631729706e+16,8073140667309435.0,1.6216745316609286e+16,4663507417538.783,22273757399076.508,1175504305667181.0,3.0819774287035028e+16
11.405153941827061,1.0845875331954504e+16,6.844658448811268e+16,8120319327508450.0,1.6311514484916922e+16,4828050101861.755,23059664042458.883,1217047841390670.0,3.1923939788197852e+16
11.733257020663602,1.0907482750842544e+16,6.982023778337145e+16,8166444878555195.0,1.6404168243815204e+16,4996300378834.838,23863280278156.633,1259530396168217.2,3.305375193333334e+16
12.067922161076874,1.0967712409166778e+16,7.121646951985687e+16,8211538898738279.0,1.6494749938171654e+16,5168319272532.031,24684897615523.12,1302967469310944.5,3.4209647587581212e+16
12.409280604298411,1.102659249292681e+16,7.263583380825622e+16,8255622490943593.0,1.6583301957899464e+16,5344169201034.983,25524814222749.555,1347374911580543.5,3.5392072971481964e+16
12.75746621638438,1.1084150586894204e+16,7.407889272028261e+16,8298716307916965.0,1.6669865788703492e+16,5523914006685.702,26383335071390.215,1392768932808132.0,3.6601483854881736e+16
13.112615540712067,1.1140413705100782e+16,7.554621659474722e+16,8340840575090816.0,1.6754482057932818e+16,5707618986952.233,27260772083817.42,1439166109672088.2,3.783834575587991e+16
13.474867851526309,1.11954083183756e+16,7.703838433913646e+16,8382015111201046.0,1.683719057599445e+16,5895350925889.631,28157444283522.1,1486583393630443.8,3.910313414472556e+16
13.844365208556836,1.124916037920481e+16,7.855598372750394e+16,8422259346899698.0,1.691803037374121e+16,6087178126180.844,29073677948187.668,1535038119003971.0,4.039633465257982e+16
14.221252512727972,1.1301695344164258e+16,8.009961169540968e+16,8461592341550370.0,1.6997039736209122e+16,6283170441744.378,30009806765472.617,1584548011206656.5,4.171844328507204e+16
14.605677562982532,1.1353038194153156e+16,8.166987463258875e+16,8500032798376960.0,1.7074256233047224e+16,6483399310897.694,30966171991450.707,1635131195120725.5,4.30699666405884e+16
14.997791114242183,1.1403213452635416e+16,8.326738867396379e+16,8537599078121168.0,1.7149716745951836e+16,6687937790067.141,31943122611664.477,1686806203613915.8,4.445142213323964e+16
15.397746936527026,1.1452245202079336e+16,8.4892779989578e+16,8574309211350884.0,1.722345749339064e+16,6896860588037.631,32941015504759.16,1739591986197166.2,4.586333822046717e+16
15.805701875257567,1.1500157098768808e+16,8.654668507397874e+16,8610180909549275.0,1.7295514052877868e+16,7110244100736.58,33960215608671.285,1793507917821377.2,4.730625463525199e+16
16.221815912762718,1.1546972386144694e+16,8.822975103553856e+16,8645231575103590.0,1.7365921381038994e+16,7328166446549.015,35001096089357.785,1848573807812264.5,4.878072262290308e+16
16.64625223101797,1.1592713906821978e+16,8.99426358861738e+16,8679478310302360.0,1.7434713831683706e+16,7550707502162.185,36064038512056.1,1904809908942941.8,5.028730518240861e+16
17.079177275638333,1.163740411341565e+16,9.168600883188397e+16,8712937925440716.0,1.7501925172087346e+16,7777948938939.879,37149433015078.95,1962236926644067.5,5.182657731234214e+16
17.5207608211511,1.16810650782973e+16,9.34605505645096e+16,8745626946125280.0,1.756758859766449e+16,8009974259828.372,38257678486149.28,2020876028352011.0,5.339912626132452e+16
17.97117603757412,1.172371850239443e+16,9.526695355508168e+16,8777561619862116.0,1.763173674520225e+16,8246868836797.465,39389182741296.38,2080748852995750.8,5.500555178304906e+16
18.430599558325603,1.1765385723134556e+16,9.71059223491126e+16,8808757922004524.0,1.769440170480798e+16,8488719948821.555,40544362706332.88,2141877520623690.8,5.664646639588671e+16
18.899211549492115,1.1806087721628048e+16,9.897817386415872e+16,8839231561130898.0,1.775561503071173e+16,8735616820407.523,41723644600947.37,2204284642171885.2,5.832249564709488e+16
19.37719578048196,1.1845845129175674e+16,1.0088443768996747e+17,8868997983916791.0,1.7815407751053068e+16,8987650660677.168,42927464125449.6,2267993329375598.5,6.003427838166028e+16
19.864739696091597,1.1884678233178878e+16,1.028254563915036e+17,8898072379560083.0,1.7873810376770036e+16,9244914703013.924,44156266650213.14,2333027204826423.0,6.178246701581494e+16
20.36203449001343,1.1922606982525124e+16,1.0480198581513754e+17,8926469683812944.0,1.7930852909698156e+16,9507504245284.262,45410507407867.22,2399410412177484.0,6.35677278152708e+16
20.869275179813698,1.1959650992513164e+16,1.0681479539826314e+17,8954204582669415.0,1.7986564849977908e+16,9775516690646.125,46690651688295.82,2467167626499702.0,6.539074117822393e+16
21.38666068340997,1.1995829549378576e+16,1.0886466848260059e+17,8981291515753656.0,1.8040975202860724e+16,10049051588957.424,47997175036505.91,2536324064792252.5,6.725220192318994e+16
21.91439389707817,1.203116161447323e+16,1.1095240263143344e+17,9007744679449040.0,1.8094112484994588e+16,10328210678799.182,49330563453435.98,2606905496650694.0,6.915281958173362e+16
22.452681775019734,1.2065665828148172e+16,1.1307880995101078e+17,9033578029805462.0,1.8146004730263876e+16,10613097930128.795,50691313599777.48,2678938255096651.5,7.109331869616679e+16
23.00173541052013,1.2099360513384936e+16,1.1524471741634946e+17,9058805285257970.0,1.8196679495250436e+16,10903819587579.992,52079933002888.95,2752449247572941.5,7.307443912229245e+16
23.561770118730532,1.213226367921529e+16,1.1745096720164835e+17,9083439929187090.0,1.8246163864376604e+16,11200484214427.25,53496940266887.73,2827465967108574.5,7.509693633727944e+16
24.133005521105144,1.2164393023965758e+16,1.1969841701553642e+17,9107495212348176.0,1.829448445478506e+16,11503202737232.96,54942865286007.21,2904016503658047.5,7.716158175275597e+16
24.715665631527248,1.2195765938360246e+16,1.2198794044135533e+17,9130984155194168.0,1.834166742100458e+16,11812088491196.979,56418249461312.484,2982129555619801.0,7.926916303322389e+16
25.309978944157795,1.2226399508509046e+16,1.2432042728268262e+17,9153919550113592.0,1.8387738459445596e+16,12127257266228.791,57923645920872.29,3061834441538774.0,8.142048441988853e+16
25.91617852304095,1.2256310518811488e+16,1.2669678391429074e+17,9176313963603700.0,1.84327228127654e+16,12448827353763.357,59459619743486.88,3143161111998154.5,8.361636706001485e+16
26.53450209350177,1.228551545479441e+16,1.2911793363873587e+17,9198179738395652.0,1.8476645274137092e+16,12776919594342.361,61026748186076.49,3226140161705872.0,8.585764934192245e+16
27.165192135371807,1.2314030505907468e+16,1.3158481704876581e+17,9219528995547374.0,1.8519530191453624e+16,13111657425983.482,62625620914838.61,3310802841781217.0,8.814518723573531e+16
27.808495978079243,1.2341871568293114e+16,1.3409839239573285e+17,9240373636517494.0,1.856140147149342e+16,13453166933360.738,64256840240283.234,3397181072247425.5,9.047985464000774e+16
28.464665897640828,1.23690542475469e+16,1.366596359641966e+17,9260725345231822.0,1.8602282584071904e+16,13801576897819.62,65921021356261.4,3485307454735981.0,9.286254373435587e+16
29.133959215593645,1.2395593861481298e+16,1.3926954245289634e+17,9280595590152858.0,1.8642196566197976e+16,14157018848251.354,67618792583101.66,3575215285408816.5,9.529416533822402e+16
29.816638399905518,1.2421505442905184e+16,1.4192912536227354e+17,9299995626360610.0,1.868116602625408e+16,14519627112851.08,69350795614973.48,3666938568104405.5,9.777564927592147e+16
30.51297116790363,1.244680374242814e+16,1.44639417388723e+17,9318936497652190.0,1.8719213148213996e+16,14889538871785.271,71117685771599.81,3760512027714167.5,1.003079447480711e+17
31.223230591261704,1.2471503231298038e+16,1.4740147082574797e+17,9337429038666444.0,1.8756359695909852e+16,15266894210794.07,72920132254439.7,3855971123795502.0,1.028920207096126e+17
31.947695203086937,1.2495618104278318e+16,1.5021635797219536e+17,9355483877038046.0,1.8792627017359884e+16,15651836175754.586,74758818407468.25,3953352064428009.0,1.0552886625450773e+17
32.686649107148675,1.2519162282570524e+16,1.530851715477513e+17,9373111435585592.0,1.882803604916331e+16,16044510828232.037,76634441982679.3,4052691820319542.0,1.0821949100730133e+17
33.44038208929165,1.2542149416785482e+16,1.5600902511586237e+17,9390321934536326.0,1.8862607320969044e+16,16445067302045.3,78547715410440.56,4154028139168745.0,1.109649255216903e+17
34.20918973107749,1.2564592889966802e+16,1.589890535142675e+17,9407125393789488.0,1.889636096002267e+16,16853657860874.113,80499366074830.2,4257399560290956.5,1.1376622168626182e+17
34.993373525699035,1.258650582066818e+16,1.6202641329331094e+17,9423531635220642.0,1.892931669579432e+16,17270437956935.879,82490136594088.86,4362845429514351.5,1.1662445313756245e+17
35.793240996213015,1.2607901066085182e+16,1.65122283162212e+17,9439550285026188.0,1.896149386468926e+16,17695566290759.17,84520785106317.81,4470405914353252.5,1.1954071568066122e+17
36.60910581613728,1.2628791225242534e+16,1.6827786444347155e+17,9455190776109868.0,1.899291141484054e+16,18129204872082.883,86592085560560.52,4580122019465779.0,1.225161277173802e+17
37.44128793246003,1.2649188642235626e+16,1.7149438153558627e+17,9470462350509540.0,1.9023587910984652e+16,18571519081908.9,88704828013400.2,4692035602402881.0,1.2555183068235806e+17
38.29011369110923,1.2669105409525532e+16,1.747730823842569e+17,9485374061864284.0,1.905354153941653e+16,19022677735736.945,90859818931213.2,4806189389655912.0,1.2864898948712771e+17
39.15591596493141,1.2688553371285778e+16,1.781152389622653e+17,9499934777919978.0,1.908279011302322e+16,19482853148010.723,93057881498216.44,4922626993010186.0,1.3180879297237971e+17
