t(s),Total solute volume 1,Total retention volume 1,Total 1 volume 1,Total 2 volume 1,Total 3 volume 1,Total 4 volume 1,Total 5 volume 1,Total 6 volume 1
0.1,1090211262672958.4,1436790320131653.8,152346489675587.4,194232567783107.2,0.0,0.0,0.0,0.0
0.202,1633939109857370.8,2171189231738556.5,228327203765749.03,291103391714908.3,13567945388.279856,32231782618.542023,642574163306.1072,17131152509216.807
0.30604000000000003,2042280745541567.0,2736522064307874.0,285389002196575.5,363853738332895.6,34256061175.689064,81378307320.92387,1622394652796.7588,43260549215543.6
0.41216080000000005,2382685511895941.0,3219686218583073.0,332957279454598.4,424500418638978.1,60549107969.14928,143840040584.1617,2867684437034.9365,76470935007968.03
0.5204040160000001,2680556277224903.0,3653227327956615.5,374581841004456.3,477569220388615.75,91737415672.72859,217931158248.54657,4344831739476.751,115865489025238.9
0.6308120963200001,2948596108966540.5,4053346375249074.5,412037817799665.25,525323328368758.94,127409763250.658,302674826034.0154,6034361081258.819,160924674443569.0
0.7434283382464002,3194210347980842.5,4429456235816227.0,446360034681057.25,569082081757538.1,167302347924.36456,397444413817.6531,7923779307569.68,211315245327473.2
0.8582969050113283,3422154713396305.5,4787589644960447.0,478213057449896.0,609692761813598.9,211236433221.5885,501815374125.4602,10004622300627.506,266811438192669.28
0.9754628431115548,3635694562544853.0,5131886396313439.0,508053188244942.25,647737126202741.9,259087467137.98987,615491880315.9637,12270992304688.604,327255947668762.3
1.094972099973786,3837184666953861.0,5465334817079988.0,536209483636233.9,683634702175611.1,310767877109.945,738265955029.607,14718743045834.658,392538187436301.1
1.2168715419732616,4028388115108524.5,5790178366441755.0,562928318205172.9,717699602441195.0,366216657617.17847,869992735007.3933,17344986575622.287,462581134718616.06
1.3412089728127268,4210664752308295.5,6108155174093050.0,588399717193905.6,750174097704482.6,425392668774.5985,1010574551617.1388,20147775878992.117,537332863786983.25
1.4680331522689813,4385088946799795.5,6420647300592271.0,612773813184603.6,781249597938616.0,488270113240.913,1159950186116.4297,23125890653491.684,616760831716413.6
1.597393815314361,4552526581807139.0,6728778038925579.0,636171604991854.4,811080369322855.4,554835365650.5259,1318087337923.872,26278687147569.805,700847872952582.1
1.729341691620648,4713687292535492.0,7033477746033635.0,658692257279210.5,839792840812781.2,625084680678.837,1484977180142.0771,29605989613133.09,789589303932190.9
1.863928525453061,4869161025946537.0,7335529791831262.0,680418209434590.1,867492117647847.1,699022493549.303,1660630322465.9802,33108009817563.5,882990776168719.6
2.001207095962122,5019444313235810.0,7635603492181024.0,701418846895157.8,894266662068825.4,776660132689.1644,1845073753179.181,36785286076065.09,981066650019291.1
2.1412312378813647,5164959583982892.0,7934278258415434.0,721753200113184.9,920191734336264.8,858014826843.721,2038348480658.5276,40638636230265.97,1083838740445322.0
2.284055862638992,5306069648702882.0,8232061662160014.0,741471968352712.5,945331972948993.4,943108927457.2502,2240507686262.0933,44669120822374.21,1191335334719336.0
2.4297369798917723,5443088748862926.0,8529403187400043.0,760619063822595.4,969743363320446.9,1031969291617.6447,2451615258650.81,48878013874046.57,1303590412969752.8
2.578331719489608,5576291118649022.0,8826704863462065.0,779232808100685.6,993474763147262.8,1124626786903.0068,2671744617700.92,53266779438878.04,1420643022721613.8
2.7298983538794,5705917710424630.0,9124329601467852.0,797346871951699.9,1016569100620271.5,1221115890249.2844,2900977761774.74,57837052608023.016,1542536772211194.2
2.884496320956988,5832181543152293.0,9422607812637124.0,814991022717460.2,1039064327301918.8,1321474360369.6301,3139404489724.194,62590623999490.32,1669319416615853.8
3.0421862473761276,5955272003215352.0,9721842722539798.0,832191725315178.5,1060994184362751.9,1425742968455.3955,3387121761352.3984,67529427007899.49,1801042517908820.0
3.2030299723236504,6075358337822870.0,1.0022314682650182e+16,848972630407046.2,1082388824968190.4,1533965275602.4534,3644233168881.081,72655527267377.73,1937761163740217.2
3.3670905717701234,6192592518709215.0,1.0324284701766604e+16,865354974574573.5,1103275324476600.1,1646187448102.647,3910848498376.3037,77971113907973.72,2079533734151768.5
3.5344323832055258,6307111609391738.0,1.0627997363893684e+16,881357911119982.6,1123678102191114.8,1762458103726.9255,4187083364804.604,83478492280055.36,2226421707442268.0
3.7051210308696363,6419039737153720.0,1.093368325883248e+16,896998785631775.9,1143619272689068.8,1882828183610.0535,4473058907915.421,89180077891416.0,2378489498374970.5
3.879223451487029,6528489747421876.0,1.124156102223059e+16,912293367168002.0,1163118940566704.2,2007350845468.3826,4768901538810.198,95078391354934.8,2535804323334800.0
4.0568079205167695,6635564600789716.0,1.1551839060015464e+16,927256043476777.4,1182195449333556.5,2136081374739.4714,5074742729094.871,101176054185237.36,2698436088126338.5
4.237944078927105,6740358559876321.0,1.1864717015790006e+16,941899986848320.9,1200865592863752.2,2269077110894.74,5390718836086.532,107475785314181.97,2866457294940444.0
4.422702960505647,6842958203308937.0,1.218038702740047e+16,956237295809243.5,1219144796047684.8,2406397386692.9966,5716970958771.587,113980398219453.2,3039942965669674.0
4.61115701971576,6943443296539703.0,1.2499034809432406e+16,970279116810759.0,1237047269937142.0,2548103478548.9233,6053644820178.864,120692798579807.7,3218970579266272.0
4.803380160110075,7041887543350406.0,1.2820840591097328e+16,984035749244220.4,1254586145633742.0,2694258566513.3696,6400890672596.822,127615982385774.78,3403620021244079.5
4.9994477633122765,7138359237336593.0,1.3145979933297174e+16,997516736479717.6,1271773590357680.5,2844927702619.9824,6758863222676.911,134753034446849.9,3593973543751022.0
5.199436718578522,7232921829077034.0,1.3474624444202542e+16,1010730945122544.6,1288620908494912.5,3000177786560.364,7127721573958.1875,142107127246026.62,3790115734901510.0
5.403425452950093,7325634421857636.0,1.3806942409162628e+16,1023686634285822.2,1305138629915570.0,3160077547818.31,7507629184748.215,149681520100509.72,3992133496270537.5
5.611493962009095,7416552206556722.0,1.4143099347963406e+16,1036391516361510.5,1321336587453335.8,3324697533530.987,7898753839621.475,157479558593938.3,4200116027624744.0
5.823723841249277,7505726844483530.0,1.4483258510207528e+16,1048852810518383.1,1337223985112138.5,3494110101457.611,8301267633064.609,165504674250798.28,4414154818108169.5
6.040198318074262,7593206805496003.0,1.4827581317779616e+16,1061077289950750.5,1352809458305380.5,3668389417529.257,8715346964018.139,173760384428101.8,4634343643217829.0
6.261002284435747,7679037667533664.0,1.5176227761892528e+16,1073071323735251.4,1368101127220864.5,3847611457530.4507,9141172540248.432,182250292403071.8,4860778567001882.0
6.486222330124463,7763262382728112.0,1.552935676101361e+16,1084840914017233.1,1383106644231168.0,4031854012527.913,9578929391636.12,190978087638618.12,5093557948994321.0
6.715946776726952,7845921514455305.0,1.5887126484987448e+16,1096391729136537.4,1397833236127001.8,4221196697715.2583,10028806891595.613,199947546210944.06,5332782455468338.0
6.950265712261491,7927053449034559.0,1.6249694649862482e+16,1107729133210363.5,1412287741833592.8,4415720964388.321,10490998785947.518,209162531385771.1,5578555074647841.0
7.18927102650672,8006694585232029.0,1.6617218787259326e+16,1118858212614560.6,1426476646172734.8,4615510114803.807,10965703228658.627,218626994331502.12,5830981135565038.0
7.433056447036854,8084879504271293.0,1.6989856491560452e+16,1129783799740973.5,1440406110151939.8,4820649319706.938,11453122823939.04,228344974959159.94,6090168330293426.0
7.681717575977592,8161641122672209.0,1.7367765647734718e+16,1140510494355179.2,1454081998194301.8,5031225638340.86,11953464674254.967,238320602880287.88,6356226739320109.0
7.935351927497144,8237010829919116.0,1.7751104642220624e+16,1151042682834291.2,1467509902665498.0,5247328040775.497,12466940433869.428,248558098475096.94,6629268859851966.0
8.194058966047088,8311018612688936.0,1.8140032558961724e+16,1161384555526643.2,1480695166006390.2,5469047432412.599,12993766367573.809,259061774064128.1,6909409636875670.0
8.45794014536803,8383693167141824.0,1.853470936241027e+16,1171540122443328.8,1493642900738717.2,5696476680542.477,13534163414314.314,269836035177532.4,7196766496813958.0
8.72709894827539,8455062000581385.0,1.893529606907734e+16,1181513227464218.8,1506358007576943.8,5929710642842.524,14088357255452.588,280885381916788.94,7491459383639671.0
9.0016409272409,8525151523626590.0,1.934195490900992e+16,1191307561218102.8,1518845191849708.0,6168846197721.143,14656578387433.605,292214410404309.7,7793610797326052.0
9.281673745785717,8593987133895714.0,1.9754849478399468e+16,1200926672776705.5,1531108978408909.8,6413982276422.202,15239062198659.33,303827814316936.6,8103345834526172.0
9.567307220701432,8661593292079989.0,2.017414488438252e+16,1210373980285259.5,1543153725183081.5,6665219896815.153,15836049050391.17,315730386499803.3,8420792231387222.0
9.85865336511546,8727993591180839.0,2.0600007882965784e+16,1219652780637733.8,1554983635512746.5,6922662198804.918,16447784361526.643,327927020657459.44,8746080408416729.0
10.155826432417769,8793210819593605.0,2.1032607010900424e+16,1228766258292157.0,1566602769389376.0,7186414481303.478,17074518697112.006,340422713119542.9,9079343517327286.0
10.458942961066125,8857267018641913.0,2.147211271223373e+16,1237717493310516.2,1578015053705801.5,7456584240712.048,17716507860471.62,353222564678574.75,9420717489795770.0
10.768121820287448,8920183535099472.0,2.191869746018853e+16,1246509468698158.0,1589224291613506.5,7733281210868.6,18374012988847.08,366331782497793.94,9770341088079860.0
11.083484256693197,8981981069176167.0,2.2372535874944236e+16,1255145077109376.5,1600234171071850.0,8016617404421.32,19047300652454.42,379755682087162.7,1.0128355957442828e+16
11.405153941827061,9042679718393898.0,2.2833804837838108e+16,1263627126978642.8,1611048272664991.2,8306707155593.475,19736642956876.84,393499689345938.75,1.049490668034217e+16
11.733257020663602,9102299017732030.0,2.3302683602445332e+16,1271958348130554.8,1621670076754265.5,8603667164309.008,20442317648723.91,407569342670403.7,1.0870140832345062e+16
12.067922161076874,9160857976382924.0,2.3779353902954036e+16,1280141396916050.8,1632102970026525.2,8907616541652.967,21164608224494.94,421970295125530.0,1.1254209039736834e+16
12.409280604298411,9218375111422566.0,2.426400006020649e+16,1288178860917556.8,1642350251492942.5,9218676856643.791,21903804042593.812,436708316679535.06,1.1647265038794638e+16
12.75746621638438,9274868478670980.0,2.475680908574408e+16,1296073263261441.2,1652415137987086.8,9536972184298.02,22660200438451.72,451789296500437.44,1.2049465736701402e+16
13.112615540712067,9330355700989322.0,2.5257970784159736e+16,1303827066572258.8,1662300769206380.2,9862629154970.889,23434098842718.094,467219245313862.06,1.2460971274080224e+16
13.474867851526309,9384853994237064.0,2.5767677854033932e+16,1311442676599998.0,1672010212336633.5,10195777004959.15,24225806902490.19,483004297821458.2,1.2881945089131354e+16
13.844365208556836,9438380191090660.0,2.6286125987706276e+16,1318922445548536.0,1681546466295584.0,10536547628354.617,25035638605555.168,499150715179470.75,1.3312553983358156e+16
14.221252512727972,9490950762906372.0,2.6813513970111036e+16,1326268675130743.8,1690912465627977.8,10885075630139.54,25863914407625.156,515664887537007.6,1.3752968188871138e+16
14.605677562982532,9542581839792924.0,2.735004377688635e+16,1333483619373433.8,1700111084081756.0,11241498380516.75,26710961362550.52,532553336633784.8,1.4203361437261348e+16
14.997791114242183,9593289229044450.0,2.789592067195022e+16,1340569487193217.8,1709145137892036.5,11605956070470.121,27577113255501.72,549822718457100.7,1.4663911030037476e+16
15.397746936527026,9643088432070576.0,2.8451353304718972e+16,1347528444762293.0,1718017388797435.5,11978591768551.557,28462710739114.3,567479825957972.6,1.5134797910623062e+16
15.805701875257567,9691994659948558.0,2.9016553807131868e+16,1354362617681719.2,1726730546810796.8,12359551478893.945,29368101472595.89,585531591826373.9,1.5616206737912886e+16
16.221815912762718,9740022847711210.0,2.959173789063259e+16,1361074092978005.5,1735287272764749.8,12748984200449.953,30293640263796.875,603985091325674.4,1.6108325961388712e+16
16.64625223101797,9787187667474350.0,3.0177124943248056e+16,1367664920937554.8,1743690180650515.0,13147041987458.246,31239689214253.43,622847545186385.5,1.661134789779751e+16
17.079177275638333,9833503540499548.0,3.077293812689319e+16,1374137116792310.0,1751941839767011.2,13553880011141.293,32206617867210.67,642126322559413.6,1.7125468809396546e+16
17.5207608211511,9878984648278598.0,3.1379404475025044e+16,1380492662268722.2,1760044776695642.5,13969656622638.082,33194803358640.004,661828944029091.1,1.7650888983771732e+16
17.97117603757412,9923644942720124.0,3.1996754990758628e+16,1386733507011196.5,1768001477115185.8,14394533417179.156,34204630571267.23,681963084686335.9,1.818781281523735e+16
18.430599558325603,9967498155511394.0,3.2625224745550676e+16,1392861569890327.8,1775814387469655.0,14828675299509.713,35236492291631.34,702536577262293.4,1.8736448887825852e+16
18.899211549492115,1.0010557806722622e+16,3.3265052978553452e+16,1398878740205293.5,1783485916501295.5,15272250550570.379,36290789370195.17,723557415322963.8,1.929701005988046e+16
19.37719578048196,1.0052837212716008e+16,3.3916483196731068e+16,1404786878789032.0,1791018436659615.2,15725430895444.252,37367930884534.46,745033756525250.6,1.9869713550261228e+16
19.864739696091597,1.0094349493416216e+16,3.4579763275829884e+16,1410587819024232.2,1798414285396723.8,16188391572581.406,38468334305632.484,766973925935078.1,2.0454781026179436e+16
20.36203449001343,1.0135107578994932e+16,3.525514556228664e+16,1416283367777432.2,1805675766358255.5,16661311404312.238,39592425667310.84,789386419408100.0,2.1052438692676324e+16
20.869275179813698,1.0175124216017696e+16,3.5942886976156204e+16,1421875306258012.8,1812805150478492.2,17144372868662.18,40740639738830.41,812279907033745.6,2.1662917383760828e+16
21.38666068340997,1.0214411973098098e+16,3.664324911513635e+16,1427365390808265.8,1819804676987702.2,17637762172481.777,41913420200695.96,835663236643243.4,2.228645265522582e+16
21.91439389707817,1.0252983246099856e+16,3.735649835976249e+16,1432755353630365.2,1826676554338968.2,18141669325906.54,43111219823704.266,859545437382441.6,2.292328487916123e+16
22.452681775019734,1.0290850262925198e+16,3.808290597984598e+16,1438046903455491.0,1833422961061252.2,18656288218162.05,44334500651274.44,883935723350170.8,2.3573659340184364e+16
23.00173541052013,1.0328025087924532e+16,3.882274824222096e+16,1443241726160036.2,1840046046545083.0,19181816694730.035,45583734185104.34,908843497303060.9,2.423782633340832e+16
23.561770118730532,1.036451962595982e+16,3.957630651986919e+16,1448341485333423.2,1846547931766409.5,19718456635894.5,46859401574195.42,934278354427650.0,2.4916041264171844e+16
24.133005521105144,1.0400345626151442e+16,4.034386740248567e+16,1453347822801696.5,1852930709954228.2,20266414036683.645,48161993807294.664,960250086180742.0,2.5608564749553572e+16
24.715665631527248,1.0435514685336552e+16,4.112572280854509e+16,1458262359110795.0,1859196447206660.2,20825899088227.918,49492011908801.125,986768684199010.9,2.6315662721695024e+16
25.309978944157795,1.0470038251264196e+16,4.192217009893367e+16,1463086693973030.8,1865347183060239.0,21397126260553.457,50849967138187.93,1013844344278818.2,2.7037606532958564e+16
25.91617852304095,1.0503927625551016e+16,4.2733512192201224e+16,1467822406680121.8,1871384931016457.0,21980314386831.168,52236381192993.055,1041487470427342.5,2.77746730629465e+16
26.53450209350177,1.0537193966419122e+16,4.356005768149364e+16,1472471056485799.0,1877311679029594.5,22575686749102.758,53651786415432.56,1069708678986096.8,2.852714482740838e+16
27.165192135371807,1.0569848291236894e+16,4.440212095321995e+16,1477034182960825.5,1883129389959341.5,23183471165505.305,55096726002692.15,1098518802827955.5,2.9295310089066804e+16
27.808495978079243,1.0601901478880444e+16,4.5260022307511864e+16,1481513306323030.0,1888840001991564.0,23803900079017.164,56571754220958.35,1127928895628886.5,3.007946297038804e+16
28.464665897640828,1.063336427193407e+16,4.613408808052676e+16,1485909927744765.5,1894445429030293.5,24437210647748.28,58077436623244.17,1157950236215543.8,3.087990356833111e+16
29.133959215593645,1.0664247278744564e+16,4.70246507686501e+16,1490225529639996.2,1899947561063762.2,25083644836798.715,59614350271076.63,1188594332990040.2,3.169693807110383e+16
29.816638399905518,1.0694560975344766e+16,4.793204915464886e+16,1494461575933084.0,1905348264507080.0,25743449511710.164,61183083960104.91,1219872928433053.5,3.2530878876959108e+16
30.51297116790363,1.0724315707259578e+16,4.885662843582846e+16,1498619512311175.5,1910649382523998.8,26416876533534.72,62784238449697.336,1251798003686698.8,3.3382044715063916e+16
31.223230591261704,1.0753521691207008e+16,4.979874035424408e+16,1502700766461898.2,1915852735329986.5,27104182855548.258,64418426696592.92,1284381783218419.0,3.4250760768474616e+16
31.947695203086937,1.0782189016705744e+16,5.075874332901703e+16,1506706748297998.2,1920960120478594.2,27805630621632.523,66086274092674.79,1317636739567296.5,3.513735879925321e+16
32.686649107148675,1.081032764759963e+16,5.1737002590808904e+16,1510638850170375.0,1925973313133113.5,28521487266354.48,67788418706937.91,1351575598174179.5,3.604217727575835e+16
33.44038208929165,1.0837947423509224e+16,5.273389031850032e+16,1514498447070940.8,1930894066325143.0,29252025616770.13,69525511531719.06,1386211342297081.0,3.696556150214942e+16
34.20918973107749,1.0865058061218882e+16,5.37497857781272e+16,1518286896826421.0,1935724111201726.8,29997523995979.32,71298216733266.27,1421557218013279.0,3.790786375013758e+16
34.993373525699035,1.0891669156007868e+16,5.47850754641224e+16,1522005540284377.8,1940465157262501.2,30758266328461.723,73107211906717.89,1457626739309618.8,3.886944339302275e+16
35.793240996213015,1.0917790182932832e+16,5.584015324291283e+16,1525655701492434.0,1945118892588194.8,31534542247221.684,74953188335569.6,1494433693262569.2,3.9850667042054e+16
36.60910581613728,1.0943430498068722e+16,5.691542049892135e+16,1529238687871666.2,1949686984061693.2,32326647202772.312,76836851255708.38,1531992145309544.2,4.085190868515129e+16
37.44128793246003,1.0968599339714166e+16,5.8011286283022136e+16,1532755790385052.8,1954171077582808.8,33134882573987.25,78758920124084.42,1570316444613084.0,4.187354982802899e+16
38.29011369110923,1.0993305829567292e+16,5.912816746349885e+16,1536208283701767.5,1958572798277732.8,33959555780851.65,80720128892111.6,1609421229519519.2,4.291597963775954e+16
39.15591596493141,1.1017558973877002e+16,6.026648887955569e+16,1539597426358077.2,1962893750704187.8,34800980399142.926,82721226283869.97,1649321433113705.8,4.3979595088819624e+16
40.03903428423004,1.104136766457452e+16,6.142668349742742e+16,1542924460915465.8,1967135519052989.5,35659476277070.99,84762976079194.53,1690032288871513.5,4.506480111165667e+16
40.93981496991464,1.1064740680389492e+16,6.260919256914108e+16,1546190614116583.8,1971299667346931.2,36535369653911.95,86846157401735.97,1731569336411777.5,4.617201074382067e+16
41.85861126931294,1.1087686687954692e+16,6.3814465793975256e+16,1549397097039616.2,1975387739637541.8,37428993280663.625,88971565012076.39,1773948427349350.8,4.730164528370118e+16
42.7957834946992,1.1110214242902336e+16,6.504296148266704e+16,1552545105251515.5,1979401260200460.2,38340686542759.31,91140009605985.45,1817185731251052.8,4.845413444691284e+16
