t(s),Total solute volume 1,Total retention volume 1,Total 1 volume 1,Total 2 volume 1,Total 3 volume 1,Total 4 volume 1,Total 5 volume 1,Total 6 volume 1
0.1,839524706393360.9,941664656952722.2,50673114377222.37,51466836182138.266,0.0,0.0,0.0,0.0
0.202,1264761292527148.8,1419108050169336.8,76340092464338.19,77535850953841.55,1193123153.6075504,1997797552.0355475,23575000085.523888,444048303217.8462
0.30604000000000003,1588403107920916.5,1782849002451970.5,95874882366996.2,97376625459005.33,3026756851.4480844,5068086936.614471,59806002525.557686,1126485858738.1992
0.41216080000000005,1861988520250739.2,2090646711032423.5,112388303361159.6,114148705614034.27,5375379480.510236,9000693225.675047,106212807913.33853,2000592925870.0393
0.5204040160000001,2104804146897187.0,2364112245348531.0,127044481964743.89,129034452325487.5,8183151301.58148,13702118568.466005,161692090406.68024,3045586800839.647
0.6308120963200001,2326458004732130.0,2614010705252457.5,140423351246574.06,142622882487644.5,11419999824.442225,19122010436.270344,225649663925.7075,4250275111922.0483
0.7434283382464002,2532533924633904.0,2846598442023598.0,152861947269139.47,155256311352285.97,15068614404.068176,25231385082.306126,297743505867.87134,5608215262911.455
0.8582969050113283,2726608595374172.0,3065883395097065.0,164576156424097.53,167154006863359.97,19119102313.553703,32013679559.41689,377778165861.1974,7115725487702.235
0.9754628431115548,2911132577139950.5,3274612253979481.0,175713892782250.53,178466199954471.78,23566355177.082184,39460342026.12395,465652728951.26495,8770904676640.684
1.094972099973786,3087870024835748.5,3474763104317135.0,186381639479495.06,189301041667832.84,28408589986.81034,47568388801.90666,561331987531.4088,10573089367740.248
1.2168715419732616,3258140091241756.0,3667815854995289.0,196659019639853.28,199739402310018.72,33646471950.046005,56338935651.73776,664829109714.471,12522527286345.113
1.3412089728127268,3422959308002858.5,3854911720765394.5,206607390390749.62,209843600080247.62,39282554435.23903,65776260027.70563,776194573287.2933,14620168903787.348
1.4680331522689813,3583130406345520.5,4036952701532931.0,216275204018342.44,219662846200551.3,45320904644.12243,75887174294.54709,895508769443.5677,16867528120133.098
1.597393815314361,3739300282514922.5,4214666497807421.0,225701506720106.7,229236798471329.3,51766844381.554985,86680591677.35962,1022876880742.1835,19266585784260.684
1.729341691620648,3891999257081230.5,4388650473618062.5,234918308268643.84,238597968052560.22,58626765479.26656,98167217211.59296,1158425234159.6028,21819720998780.395
1.863928525453061,4041668504452097.0,4559402370217061.0,243952237637563.72,247773401022695.4,65907995500.72225,110359322885.06293,1302298647653.3315,24529661138677.12
2.001207095962122,4188679730521506.0,4727342338592018.0,252825730730376.0,256785884711632.97,73618698405.58737,123270581317.35898,1454658467498.022,27399444881283.81
2.1412312378813647,4333349614138640.0,4892829108600888.0,261557902057285.5,265654833031080.7,81767800193.80455,136915941265.9887,1615681099199.6753,30432394533223.016
2.284055862638992,4475950613426480.5,5056172092982857.0,270165196998776.8,274396948959306.72,90364932764.33188,151311533825.7506,1785556940694.1846,33632100191008.18
2.4297369798917723,4616719217573373.0,5217640606075031.0,278661889870277.75,283026730389492.44,99420391754.02873,166474601069.38095,1964489380215.4253,37002383868850.445
2.578331719489608,4755862290292604.0,5377470996790304.0,287060466820452.7,291556859052644.2,108945104144.98566,182423442978.21292,2152694409770.2427,40547317667721.63
2.7298983538794,4893562082708592.0,5535872241715709.0,295371928397605.44,299998507804940.56,118950604567.48973,199177377002.67136,2350399988346.849,44271194834643.9
2.884496320956988,5029980194698430.0,5693030386512302.0,303606028655429.94,308361583483393.75,129449017633.82059,216756708685.85895,2557845735122.679,48178528213602.68
3.0421862473761276,5165260758672848.0,5849112112103882.0,311771467323771.8,316654922086689.94,140453045406.30472,235182710691.88535,2775282681997.524,52274045582465.49
3.2030299723236504,5299533021386700.0,6004267627278045.0,319876045644870.2,324886447052381.75,151975958974.12897,254477608714.57718,3002973107319.2056,56562686519078.96
3.3670905717701234,5432913456885344.0,6158633036710872.0,327926793909297.2,333063298790502.44,164031593403.78644,274664573035.70032,3241190436277.0186,61049600523019.14
3.5344323832055258,5565507510296196.0,6312332296031053.0,335930076709983.2,341191941586239.3,176634345495.21695,295767714781.7421,3490219196741.2476,65740146181621.3
3.7051210308696363,5697411048079232.0,6465478838561819.0,343891680478294.75,349278252507143.06,189799173900.40048,317812086137.13916,3750355021791.425,70639891215328.95
3.879223451487029,5828711572726612.0,6618176938648706.0,351816886802455.5,357327595869971.1,203541601255.3237,340823683929.4682,4021904692036.0312,75754613272438.94
4.0568079205167695,5959489246850262.0,6770522861869584.0,359710534240729.6,365344886022093.25,217877718048.14087,364829456122.5231,4305186212247.6133,81090301370093.22
4.237944078927105,6089817761816351.0,6922605841476629.0,367577070751592.94,373334640592900.4,232824188001.86,389857310846.1695,4600528917933.714,86653157899009.36
4.422702960505647,6219765078680891.0,7074508912129955.0,375420598416070.06,381301025916660.3,248398254793.12,415936127664.2107,4908273608318.36,92449601125553.52
4.61115701971576,6349394063516151.0,7226309625643851.0,383244911785591.06,389247895981030.4,264617749962.6432,443095770838.53876,5228772702881.409,98486268137403.03
4.803380160110075,6478763034845340.0,7378080668572012.0,391053530924757.56,397178825987398.6,281501101899.898,471367104392.88684,5562390419135.019,104770018189088.64
4.9994477633122765,6607926237498899.0,7529890397648479.0,398849730012971.7,405097141400511.0,299067345806.0691,500782008815.67957,5909502969743.035,111307936411726.2
5.199436718578522,6736934254533496.0,7681803306111077.0,406636562207573.44,413005943201057.5,317336134556.7731,531373399270.4816,6270498777431.829,118107337857699.98
5.403425452950093,6865834366741218.0,7833880431568388.0,414416881343560.9,420908129925285.75,336327750400.0219,563175245206.0709,6645778706418.216,125175771856301.8
5.611493962009095,6994670867594110.0,7986179714188719.0,422193360943417.6,428806416972593.75,356063117436.4036,596222591277.445,7035756309308.122,132521026660591.2
5.823723841249277,7123485340118548.0,8138756312479028.0,429968510929057.0,436703353579234.9,376563814837.88855,630551579504.7627,7440858088604.567,140151134369254.28
6.040198318074262,7252316901105915.0,8291662882703344.0,437744692362195.0,444601337789588.4,397852090769.40704,666199472610.3292,7861523772117.919,148074376110128.9
6.261002284435747,7381202417181411.0,8444949827001367.0,445524130486122.06,452502629702201.5,419950876983.83954,703204678484.4213,8298206601698.712,156299287474467.47
6.486222330124463,7510176696531844.0,8598665514461359.0,453308926298247.44,460409363223611.2,442883804066.40784,741606775739.9122,8751373634819.384,164834664193010.72
6.715946776726952,7639272659501171.0,8752856478737846.0,461101066847128.6,468323556526651.56,466675217308.98834,781446540323.0902,9221506058621.346,173689568046627.5
6.950265712261491,7768521490773908.0,8907567595260254.0,468902434418156.2,476247121380027.06,491350193198.6675,822765973154.486,9709099516117.78,182873333005687.88
7.18927102650672,7897952775462499.0,9062842240624392.0,476714814747683.06,484181871491104.3,516934556508.0618,865608328778.9292,10214664444307.105,192395571593536.38
7.433056447036854,8027594621077167.0,9218722436382892.0,484539904385047.6,492129529983241.94,543454897977.65894,910018145008.5638,10738726424005.305,202266181470442.5
7.681717575977592,8157473767075982.0,9375248979135300.0,492379317304928.3,500091736111729.4,570938592582.7562,956041273546.4476,11281826541251.414,212495352235271.75
7.935351927497144,8287615683455434.0,9532461558554500.0,500234590858205.9,508070051307855.6,599413818379.5564,1003724911581.8135,11844521760180.156,223093572442863.3
8.194058966047088,8418044659643451.0,9690398864762700.0,508107191137485.56,516065964628473.25,628909575926.7019,1053117634350.7057,12427385307288.354,234071636835726.53
8.45794014536803,8548783884787640.0,9849098686282152.0,515998517823230.2,524080897678043.3,659455708279.9225,1104269428658.3281,13031007067051.955,245440653789224.7
8.72709894827539,8679855520388214.0,1.0008597999625108e+16,523909908567838.6,532116209061380.9,691082921558.8457,1157231727361.5042,13655993988874.152,257212052969861.8
9.0016409272409,8811280766103744.0,1.0168933051452194e+16,531842642967630.9,540173198417856.7,723822806085.9714,1212057444811.4556,14302970505367.826,269397593206716.34
9.281673745785717,8943079919452791.0,1.0330139434110308e+16,539797946166400.75,548253110081392.2,757707858098.8505,1268801013258.6033,14972578961992.62,282009370576397.1
9.567307220701432,9075272430045722.0,1.049225215526221e+16,547776992128802.25,556357136405125.5,792771502037.2571,1327518420222.6655,15665480058084.314,295059826702205.06
9.85865336511546,9207876948903580.0,1.0655305702233704e+16,555780906617208.4,564486420784890.9,829048113407.8529,1388267246832.2224,16382353299327.143,308561757268439.8
10.155826432417769,9340911373354992.0,1.0819334101630366e+16,563810769901650.5,572642060411607.5,866573042229.4822,1451106707139.15,17123897461732.105,322528320751018.25
10.458942961066125,9474392887943968.0,1.0984370974710548e+16,571867619228991.6,580825108779130.1,905382637062.6324,1516097688414.0574,17890831067193.82,336973047365758.6
10.768121820287448,9608338001732880.0,1.1150449588947096e+16,579952451074495.5,589036577971091.2,945514269627.2295,1583302792429.6836,18683892870708.223,351909848235851.9
11.083484256693197,9742762582340036.0,1.131760290616119e+16,588066223196329.8,597277440747571.0,987006360013.0938,1652786377739.7625,19503842359340.34,367353024780180.56
11.405153941827061,9877681887015100.0,1.1485863627569252e+16,596209856511235.5,605548632450160.1,1029898402487.86,1724614602961.5173,20351460263037.234,383317278324266.4
11.733257020663602,1.001311059102136e+16,1.165526423604703e+16,604384236807674.5,613851052741929.8,1074230991907.3516,1798855471070.2083,21227549077387.195,399817719935703.75
12.067922161076874,1.0149062813565644e+16,1.1825837035883542e+16,612590216310929.6,622185567197066.0,1120045850733.6274,1875578874714.76,22132933598430.617,416869880486069.8
12.409280604298411,1.0285552141491316e+16,1.1997614190268054e+16,620828615113219.4,630553008753354.0,1167385856666.086,1954856642563.5288,23068461469630.566,434489720941290.25
12.75746621638438,1.0422591650927432e+16,1.2170627756728432e+16,629100222480386.6,638954179039362.8,1216295070891.1619,2036762586689.7078,24035003741114.402,452693642882555.5
13.112615540712067,1.0560193927066534e+16,1.2344909720718326e+16,637405798045713.5,647389849586951.5,1266818766956.2,2121372551005.9067,25033455441299.594,471498499259879.7
13.474867851526309,1.0698371082228614e+16,1.2520492027529944e+16,645746072900220.9,655860762938641.9,1319003460273.2002,2208764460757.618,26064736161018.543,490921605380429.0
13.844365208556836,1.0837134772350416e+16,1.269740661269224e+16,654121750587969.1,664367633658502.8,1372896938258.126,2299018373085.2095,27129790650256.133,510980750133749.56
14.221252512727972,1.097649621202797e+16,1.287568543099974e+16,662533508014001.1,672911149254333.2,1428548291111.458,2392216528664.3403,28229589427616.844,531694207456051.25
14.605677562982532,1.1116466188226778e+16,1.305536048430282e+16,670981996271893.1,681491971018164.2,1486007943245.636,2488443404434.27,29365129402634.05,553080748035622.6
14.997791114242183,1.1257055072764772e+16,1.3236463848178812e+16,679467841397193.2,690110734791501.5,1545327685365.035,2587785767423.8823,30537434511035.99,575159651261526.1
15.397746936527026,1.1398272833661036e+16,1.3419027697592152e+16,687991645052454.1,698768051661080.6,1606560707203.9194,2690332729684.641,31747556363079.64,597950717417610.5
15.805701875257567,1.1540129045438156e+16,1.3603084331641838e+16,696553985149051.4,707464508590441.1,1669761630927.7861,2796175804339.9272,32996574905061.645,621474280123872.0
16.221815912762718,1.1682632898455404e+16,1.3788666197487238e+16,705155416410539.2,716200668992088.9,1734986545203.3645,2905408962759.628,34285599094114.188,645751219027122.6
16.64625223101797,1.1825793207344796e+16,1.397580591353342e+16,713796470881843.6,724977073244675.9,1802293039942.277,3018128692868.8555,35615767586386.93,670802972742880.1
17.079177275638333,1.1969618418615258e+16,1.4164536291952006e+16,722477658388235.1,733794239159161.8,1871740241723.3174,3134434058599.147,36988249438717.31,696651552050319.8
17.5207608211511,1.2114116617484664e+16,1.4354890360606324e+16,731199466947717.6,742652662397660.6,1943388849897.8552,3254426760490.174,38404244823882.19,723319553342010.9
17.97117603757412,1.2259295533994954e+16,1.454690138444384e+16,739962363140132.0,751552816848317.1,2017301173382.8887,3378211197449.5864,39864985759521.945,750830172330085.6
18.430599558325603,1.2405162548459774e+16,1.474060288641408e+16,748766792435965.4,760495154959281.8,2093541168145.6658,3505894529678.1924,41371736850820.836,779207218010396.0
18.899211549492115,1.255172469629157e+16,1.4936028667965138e+16,757613179487706.5,769480108034624.1,2172174475383.7197,3637586742766.865,42925796047021.086,808475126886048.9
19.37719578048196,1.269898867224935e+16,1.513321282916715e+16,766501928386254.2,778508086494746.0,2253268460403.5625,3773400712971.254,44528495411842.37,838658977451587.2
19.864739696091597,1.2846960834146624e+16,1.5332189788507704e+16,775433422884711.9,787579480103700.4,2336892252201.0146,3913452273669.46,46181201907865.22,869784504938924.6
20.36203449001343,1.2995647206054052e+16,1.5532994302398926e+16,784408026591704.6,796694658165522.4,2423116783745.5327,4057860283007.078,47885318194934.305,901878116325946.0
20.869275179813698,1.31450534810295e+16,1.5735661484434068e+16,793426083136152.0,805853969691589.2,2512014832970.4604,4206746692733.089,49642283442620.79,934966905608520.6
21.38666068340997,1.329518502340385e+16,1.5940226824425674e+16,802487916305261.1,815057743540773.6,2603661064470.301,4360236618228.985,51453574156772.62,969078669336336.6
21.91439389707817,1.3446046870649452e+16,1.614672620725537e+16,811593830157276.4,824306288533957.4,2698132071905.622,4518458409732.484,53320705020168.67,1004241922412849.0
22.452681775019734,1.3597643734854016e+16,1.6355195931561188e+16,820744109110464.8,833599893544411.0,2795506421115.1616,4681543724755.568,55245229747273.78,1040485914159169.6
23.00173541052013,1.3749980003820026e+16,1.656567272828488e+16,829939018009461.4,842938827565184.8,2895864693933.9297,4849627601695.115,57228741953076.73,1077840644641490.8
23.561770118730532,1.3903059741807816e+16,1.6778193779097118e+16,839178802170134.2,852323339754664.4,2999289532714.8037,5022848534632.748,59272876035967.57,1116336881261174.8
24.133005521105144,1.4056886689936082e+16,1.6992796734716582e+16,848463687403741.5,861753659461118.4,3105865685550.152,5201348549318.172,61379308074591.48,1156006175606168.5
24.715665631527248,1.4211464266251586e+16,1.7209519733132802e+16,857793880021158.2,871229996226980.9,3215680052188.3193,5385273280328.109,63549756738582.195,1196880880561957.8
25.309978944157795,1.4366795565476476e+16,1.7428401417740062e+16,867169566817607.6,880752539773353.1,3328821730638.395,5574772049390.278,65785984213054.484,1238994167679538.5
25.91617852304095,1.4522883358437638e+16,1.7649480955384216e+16,876590915038228.9,890321459965023.6,3445382064454.669,5769997944858.577,68089797136690.13,1282380044797345.0
26.53450209350177,1.4679730091180412e+16,1.7872798054320544e+16,886058072324581.8,899936906756136.8,3565454690690.3174,5971107902322.27,70463047553216.66,1327073373913175.8
27.165192135371807,1.4837337883764614e+16,1.80983929820752e+16,895571166641961.2,909599010116373.2,3689135588507.1216,6178262786328.314,72907633876030.62,1373109889301360.8
27.808495978079243,1.4995708528736674e+16,1.8326306583197756e+16,905130306187187.8,919307879937293.2,3816523128425.784,6391627473190.641,75425501865660.5,1420526215869342.2
28.464665897640828,1.5154843489269606e+16,1.855658029688785e+16,914735579276344.0,929063605918311.8,3947718122198.0474,6611370934856.515,78018645619712.77,1469359887746821.2
29.133959215593645,1.531474389695735e+16,1.878925617447169e+16,924387054211630.2,938866257431468.6,4082823873278.6846,6837666323793.126,80689108574871.17,1519649367099294.2
29.816638399905518,1.5475410549246308e+16,1.9024376896700268e+16,934084779126334.4,948715883363978.0,4221946227871.5874,7070691058852.348,83438984520449.84,1571434063156477.5
30.51297116790363,1.5636843906483668e+16,1.926198579083367e+16,943828781806680.6,958612511937276.2,4365193626520.161,7310626912064.556,86270418622922.25,1624754351444508.0
31.223230591261704,1.5799044088558094e+16,1.9502126847470828e+16,953619069489050.4,968556150501074.2,4512677156207.71,7557660096304.203,89185608460752.88,1679651593209347.8
31.947695203086937,1.5962010871104094e+16,1.9744844737077784e+16,963455628630898.0,978546785300673.6,4664510602928.493,7811981353762.843,92186805068768.94,1736168155016613.5
32.686649107148675,1.6125743681239246e+16,1.9990184826160896e+16,973338424653429.8,988584381215635.5,4820810504684.961,8073786045155.262,95276313991198.55,1794347428511544.2
33.44038208929165,1.6290241592798692e+16,2.023819319302744e+16,983267401653987.2,998668881467629.8,4981696204860.821,8343274239575.399,98456496342393.0,1854233850320289.8
34.20918973107749,1.6455503321030214e+16,2.048891664306786e+16,993242482085825.6,1008800207295227.8,5147289905913.475,8620650804908.571,101729769874127.52,1915872922071590.5
34.993373525699035,1.6621527216709364e+16,2.0742402723491236e+16,1003263566402912.9,1018978257593111.5,5317716723322.932,8906125498695.09,105098610048247.66,1979311230515615.5
35.793240996213015,1.6788311259633128e+16,2.099869973743984e+16,1013330532667219.1,1029202908513237.8,5493104739727.288,9199913059329.57,108565551113292.94,2044596467713877.0
36.60910581613728,1.6955853051450366e+16,2.1257856757403628e+16,1023443236115951.5,1039474013025265.9,5673585059168.023,9502233297467.938,112133187183588.81,2111777451271814.0
37.44128793246003,1.7124149807784222e+16,2.151992363785459e+16,1033601508686090.9,1049791400433666.1,5859291861360.416,9813311187501.355,115804173319151.03,2180904144582622.5
38.29011369110923,1.7293198349605538e+16,2.1784951027015684e+16,1043805158493675.5,1060154875848846.1,6050362455897.29,10133376958944.611,119581226604595.55,2252027677048174.0
39.15591596493141,1.746299509381531e+16,2.205299037767952e+16,1054053969265376.6,1070564219609811.4,6246937336286.287,10462666187572.178,123467127225095.14,2325200364240032.0
40.03903428423004,1.7633536042997146e+16,2.232409395699069e+16,1064347699719955.8,1081019186655946.4,6449160233712.752,10801419886123.264,127464719537268.28,2400475727960535.5
40.93981496991464,1.7804816774304472e+16,2.2598314855106348e+16,1074686082897516.1,1091519505845754.1,6657178170413.211,11149884594383.023,131576913132734.61,2477908516161082.0
41.85861126931294,1.7976832427451544e+16,2.2875706992651624e+16,1085068825434643.9,1102064879220638.5,6871141512535.83,11508312468435.258,135806683891909.66,2557554722671942.0
42.7957834946992,1.8149577691782532e+16,2.3156325126890236e+16,1095495606783894.9,1112654981212180.4,7091204022357.572,11876961368868.63,140157075025479.84,2639471606694919.0
43.751699164593184,1.832304679239956e+16,2.3440224856533964e+16,1105966078376518.9,1123289457791724.6,7317522909719.886,12256094947706.709,144631198100843.56,2723717712007892.0
44.72673314788505,1.8497233475339244e+16,2.372746262512288e+16,1116479862727695.0,1133967925561626.2,7550258882538.506,12645982733820.75,149232234050672.34,2810352885827286.5
