t(s),Total solute volume 1,Total retention volume 1,Total 1 volume 1,Total 2 volume 1,Total 3 volume 1,Total 4 volume 1,Total 5 volume 1,Total 6 volume 1
0.1,878184692305091.0,1002349173156223.1,60489917771387.09,63674563079745.664,0.0,0.0,0.0,0.0
0.202,1323021113720353.5,1510394668371006.0,91130532336480.0,95928330947300.58,660248595.9479634,1168073765.4916763,14969662476.59569,297893382033.8885
0.30604000000000003,1661673333625320.0,1897411823393362.8,114457111768271.81,120482997513363.73,1675048958.3439765,2963401207.415573,37978075011.08652,755763961231.8748
0.41216080000000005,1948014408641314.0,2224857609005534.0,134180466396274.53,141244738320019.56,2975023554.90094,5263243960.312042,67452229102.374176,1342305151307.7124
0.5204040160000001,2202209830098924.2,2515733971227203.0,151689608042856.9,159675693265362.2,4529338583.867312,8013053050.76511,102693036434.54895,2043604391988.0374
0.6308120963200001,2434305850850548.0,2781499676986686.0,167676528969525.53,176504286307178.22,6321415396.507476,11183498897.89282,143324616083.66437,2852181329055.8765
0.7434283382464002,2650141137764947.5,3028814372377167.5,182543400249068.47,192153861838489.56,8341736906.80078,14757744835.626064,189131193635.02042,3763741849283.709
0.8582969050113283,2853455749591832.0,3261944335143375.5,196547839497426.66,206895600410352.66,10584891936.89229,18726218145.428135,239990087747.83908,4775844445937.444
0.9754628431115548,3046812324118084.5,3483813212131184.5,209866362828704.44,220915311276883.44,13048118789.991741,23084033434.083637,295838688726.6572,5887243066564.087
1.094972099973786,3232055852645291.0,3696526415683151.5,222626054412474.7,234346769277105.78,15730498529.797468,27829565433.788555,356656167857.1752,7097523116456.528
1.2168715419732616,3410566088953199.5,3901658988993686.5,234921952563088.22,247290016259215.78,18632470087.585186,32963591160.59614,422452483514.34424,8406882673416.634
1.3412089728127268,3583406419774552.5,4100425377512876.0,246827304032293.34,259822155236540.28,21755520765.586323,38488742373.52618,493261364012.7736,9815992842332.2
1.4680331522689813,3751416732525682.0,4293785328475673.0,258399960797344.03,272004083950838.8,25101979472.4053,44409139781.08211,569135619689.1538,11325904462872.074
1.597393815314361,3915274021007167.5,4482512997295119.5,269686554620058.75,283884889211648.3,28674873626.104206,50730139884.83647,650143898514.3406,12937983544222.82
1.729341691620648,4075533432363412.0,4667243749534627.0,280725324387394.78,295504823089394.0,32477827356.492184,57458154887.14918,736368378077.6033,14653865334117.129
1.863928525453061,4232656945224256.0,4848506858524435.0,291548091480008.2,306897382282257.94,36514987527.26167,64600521816.16148,827903088327.4375,16475420940222.89
2.001207095962122,4387033942887918.0,5026748961299370.0,302181676866127.5,318090799816561.8,40790969104.8969,72165405878.01662,924852672960.0778,18404732680820.35
2.1412312378813647,4538996311902139.0,5202351272485250.0,312648941101393.4,329109139800041.94,45310814355.64275,80161728272.94678,1027331464330.8573,20444075674715.48
2.284055862638992,4688829744497470.0,5375642470133434.0,322969562847607.06,339973116927705.9,50079962165.532,88599111920.56593,1135462787885.5957,22595903998687.316
2.4297369798917723,4836782347766198.0,5546908511116678.0,333160631878449.3,350700720707835.5,55104224930.26053,97487840577.39558,1249378438223.4841,24862840260460.594
2.578331719489608,4983071303128333.0,5716400223896526.0,343237107787697.4,361307698320071.94,60389771214.94147,106838828162.22655,1369218285981.1868,27247667775055.457
2.7298983538794,5127888088851732.0,5884339263311810.0,353212179719729.6,371807933284845.2,65943112889.19528,116663595999.1089,1495129986187.2986,29753324760418.977
2.884496320956988,5271402621516545.0,6050922839072756.0,363097551638557.0,382213745757082.3,71771095740.18999,126974256386.90297,1627268809804.442,32382905998635.32
3.0421862473761276,5413766604724832.0,6216327511191270.0,372903672979607.7,392536135297143.44,77880893156.43866,137783500736.41583,1765797323774.7725,35139636472009.734
3.2030299723236504,5555116198504455.0,6380712270155340.0,382639922534296.44,402784974473008.3,84280001610.74393,149104592616.9629,1910885553082.147,38026904496262.875
3.3670905717701234,5695574248965564.0,6544221057206625.0,392314762020501.25,412969170491215.9,90976238520.3486,160951363286.1748,2062710756465.2903,41048237371071.91
3.5344323832055258,5835252106641386.0,6706984845272499.0,401935861333486.5,423096797048166.9,97977741435.80289,173338210430.1236,2221457451921.074,44207306845666.0
3.7051210308696363,5974251143117126.0,6869123370298293.0,411510203012249.1,433175204296385.9,105292968607.96799,186280099170.18832,2387317429611.7515,47507929375139.32
3.879223451487029,6112664021436471.0,7030746582086483.0,421044169745934.25,443211110957918.3,112930700692.37605,199792565082.25607,2560489790561.675,50954066889823.36
4.0568079205167695,6250575767265699.0,7191955868192561.0,430543618156292.6,453210681991263.1,120900043438.8098,213891718959.11636,2741181007694.599,54549828009208.875
4.237944078927105,6388064677571474.0,7352845092772805.0,440013941387985.06,463179594476896.4,129210431244.70175,228594253101.28287,2929605006459.117,58299469645641.414
4.422702960505647,6525203095826115.0,7513501483453534.0,449460122505206.7,473123093825104.3,137871631474.90607,243917448963.85995,3125983262832.9067,62207398953828.42
4.61115701971576,6662058076832766.0,7674006392541612.0,458886780285273.8,483046041980480.4,146893749469.2586,259879186020.43198,3330544916924.38,66278175590693.31
4.803380160110075,6798691959691666.0,7834435953686091.0,468298208684899.5,492952958966010.44,156287234174.28583,276497951731.4135,3543526900729.0024,70516514256872.61
4.9994477633122765,6935162863870065.0,7994861651043757.0,477698411009800.25,502848058851622.4,166062884347.40958,293792852525.47577,3765174078869.0522,74927287496544.52
5.199436718578522,7071525120544294.0,8155350814818658.0,487091129625820.8,512735281029530.7,176231855291.6233,311783625719.7251,3995739401364.625,79515528736633.45
5.403425452950093,7207829649174029.0,8315967054526161.0,496479871897593.75,522618317518500.25,186805666086.46176,330490652318.1799,4235484067660.836,84286435549967.86
5.611493962009095,7344124287508118.0,8476770639328372.0,505867932919565.25,532500636891605.5,197796207287.4784,349934970639.4095,4484677701281.498,89245373129856.3
5.823723841249277,7480454081811764.0,8637818833178827.0,515258415507012.3,542385505319727.06,209215749071.71695,370138290733.4974,4743598534599.211,94397877965928.8
6.040198318074262,7616861542965007.0,8799166191217513.0,524654247836284.06,552276005140504.5,221076949811.02884,391123009556.2746,5012533603310.25,99749661713048.22
6.261002284435747,7753386873159867.0,8960864822804137.0,534058199059831.2,562175051295466.25,233392865058.70465,412912226875.09314,5291778950285.5205,105306615246746.92
6.486222330124463,7890068167168200.0,9122964625718586.0,543472893169669.75,572085405923361.0,246176956937.9568,435529761885.9125,5581639838537.286,111074812900010.47
6.715946776726952,8026941591533856.0,9285513495351888.0,552900821340250.2,582009691352854.5,259443103923.32928,459000170525.89264,5882430973100.267,117060516877386.06
6.950265712261491,8164041544532536.0,9448557512129384.0,562344352946591.6,591950401700747.1,273205611008.30093,483348763469.6325,6194476731673.969,123270181843380.34
7.18927102650672,8301400799319239.0,9612141109926672.0,571805745424370.8,601909913251153.0,287479220254.1839,508601624800.39386,6518111403916.231,129710459682938.14
7.433056447036854,8439050632331337.0,9776307227836256.0,581287153114405.5,611890493765648.1,302279121717.01746,534785631350.48737,6853679439312.768,136388204432513.83
7.681717575977592,8577020938720891.0,9941097447309402.0,590790635213708.9,621894310852906.1,317620964750.50616,561928472707.4026,7201535703579.291,143310477380857.1
7.935351927497144,8715340336342496.0,1.0106552116413602e+16,600318162938229.5,631923439508563.2,333520869684.2366,590058671884.3461,7562045743578.703,150484552339173.38
8.194058966047088,8854036259614716.0,1.0272710462711704e+16,609871625988102.2,641979868920814.6,349995439877.4201,619205606655.6425,7935586060759.875,157917921080768.6
8.45794014536803,8993135044396739.0,1.0439610696064884e+16,619452838393984.5,652065508624587.4,367061774149.3311,649399531559.1093,8322544393144.14,165618298950709.4
8.72709894827539,9132662004872242.0,1.0607290102493688e+16,629063543812886.4,662182194076148.0,384737479588.33826,680671600568.7692,8723320005903.666,173593630646361.0
9.0016409272409,9272641503304968.0,1.077578513008458e+16,638705420332967.8,672331691710875.5,403040684742.1826,713053890442.635,9138323990591.63,181852096169996.12
9.281673745785717,9413097013421408.0,1.0945131467805708e+16,648380084839379.1,682515703538957.2,421990053192.7056,746579424751.2568,9567979573097.396,190402116954930.12
9.567307220701432,9554051178082406.0,1.1115364117989512e+16,658089096986716.8,692735871326974.1,441604797518.8115,781282198593.7551,10012722430413.305,199252362166886.25
9.85865336511546,9695525861825106.0,1.1286517463147326e+16,667833962818153.8,702993780407569.9,461904693651.9074,817197204008.897,10473001016308.936,208411755182517.12
10.155826432417769,9837542198787404.0,1.1458625327703114e+16,677616138066488.9,713290963154308.8,482910095628.5123,854360456089.5094,10949276896020.504,217889480247189.25
10.458942961066125,9980120636466520.0,1.1631721035164222e+16,687437031168294.0,723628902154485.1,504641950745.0862,892809019809.2582,11442025090069.701,227694989314331.0
10.768121820287448,1.0123280975712212e+16,1.1805837461188542e+16,697298006018637.0,734009033108896.1,527121815120.52136,932581037571.3679,11951734427336.24,237838009068779.0
11.083484256693197,1.026704240730842e+16,1.1981007082954978e+16,707200384490874.1,744432747484290.0,550371869671.9873,973715757489.5172,12478907907513.773,248328548136726.1
11.405153941827061,1.0411423545458964e+16,1.2157262025200378e+16,717145448743154.2,754901394941286.9,574414936510.1772,1016253562411.4985,13024063073086.256,259176904484968.44
11.733257020663602,1.0556442458457552e+16,1.2334634103245516e+16,727134443331000.5,765416285558207.5,599274495760.1941,1060235999696.8661,13587732390967.502,270393673012298.62
12.067922161076874,1.0702116696792706e+16,1.2513154863299196e+16,737168577143172.1,775978691868837.4,624974702814.5786,1105705811759.991,14170463643951.541,281989753335969.25
12.409280604298411,1.0848463318910564e+16,1.2692855620299074e+16,747249025176252.2,786589850730446.5,651540406025.1981,1152706967390.5654,14772820332126.594,293976357776261.1
12.75746621638438,1.0995498914837198e+16,1.2873767493520856e+16,757376930161741.9,797250965036547.8,678997164840.8628,1201284693863.652,15395382084409.45,306365019542269.6
13.112615540712067,1.1143239627838692e+16,1.3055921440164842e+16,767553404058039.2,807963205287411.4,707371268397.7545,1251485509851.9507,16038745080361.307,319167601122097.9
13.474867851526309,1.129170117428176e+16,1.3239348287107196e+16,777779529418439.0,818727711030117.0,736689754569.876,1303357259153.0374,16703522482448.994,332396302880722.8
13.844365208556836,1.1440898861839692e+16,1.3424078760985972e+16,788056360645174.9,829545592178584.8,766980429486.8698,1356949145244.5972,17390344878919.408,346063671868850.2
14.221252512727972,1.159084760617488e+16,1.3610143516774394e+16,798384925138518.8,840417930223190.9,798271887526.6777,1412311766681.062,18099860737457.203,360182610846139.0
14.605677562982532,1.1741561946216354e+16,1.3797573164981122e+16,808766224349116.8,851345779338501.1,830593531790.6295,1469497153344.9404,18832736869798.207,374766387522218.0
14.997791114242183,1.1893056058139832e+16,1.3986398297602738e+16,819201234740931.0,862330167396910.0,863975595068.6356,1528558803566.649,19589658907473.492,389828644018962.75
15.397746936527026,1.2045343768146698e+16,1.4176649512943212e+16,829690908671476.5,873372096895216.8,898449161302.2198,1589551722126.5132,20371331788861.69,405383406557540.2
15.805701875257567,1.2198438564130566e+16,1.4368357439404706e+16,840236175195404.2,884472545800528.0,934046187553.2175,1652532459152.8813,21178480257725.465,421445095373741.0
16.221815912762718,1.2352353606311356e+16,1.4561552758344664e+16,850837940797003.2,895632468321300.1,970799526486.0262,1717559149930.3074,22011849373413.945,438028534865175.8
16.64625223101797,1.2507101736909344e+16,1.475626622608647e+16,861497090056545.9,906852795608788.1,1008742949371.2915,1784691555631.981,22872205032910.34,455148963973888.3
17.079177275638333,1.266269548892621e+16,1.495252869516256e+16,872214486255119.4,918134436393717.6,1047911169618.9851,1853991104990.3264,23760334504905.52,472822046807988.25
17.5207608211511,1.2819147094092984e+16,1.5150371134863404e+16,882990971922113.6,929478277562577.5,1088339866848.819,1925520936920.1462,24677046976079.59,491063883505884.3
17.97117603757412,1.2976468490040754e+16,1.534982465115954e+16,893827369329117.6,940885184677544.8,1130065711505.9197,1999345944108.2441,25623174109772.14,509891021346717.7
18.430599558325603,1.313467132674449e+16,1.5550920506057352e+16,904724480933788.8,952356002443704.5,1173126390029.7617,2075532817583.8271,26599570617222.566,529320466110571.7
18.899211549492115,1.3293766972286078e+16,1.5753690136446258e+16,915683089776811.5,963891555126911.9,1217560630584.156,2154150092283.5728,27607114841560.656,549369693692028.25
19.37719578048196,1.3453766517979562e+16,1.5958165172488202e+16,926703959834920.2,975492646925400.5,1263408229356.2266,2235268193625.5303,28646709354726.652,570056661970616.1
19.864739696091597,1.3614680782896876e+16,1.6164377455599166e+16,937787836332648.2,987160062297950.6,1310710077432.1357,2318959485105.516,29719281567498.37,591399822941668.9
20.36203449001343,1.377652031783004e+16,1.6372359056065484e+16,948935446015233.4,998894566251153.8,1359508188257.19,2405298316929.9517,30825784352801.574,613418135111061.8
20.869275179813698,1.3939295408722362e+16,1.6582142290336656e+16,960147497384965.4,1010696904588209.0,1409845725688.0356,2494361075698.412,31967196682476.54,636131076157255.9
21.38666068340997,1.4103016079598294e+16,1.6793759738032106e+16,971424680903000.2,1022567804121357.2,1461767032644.2058,2586226235149.362,33144524277670.695,659558655863999.9
21.91439389707817,1.426769209501926e+16,1.7007244258696074e+16,982767669158514.2,1034507972849946.2,1515317660366.4502,2680974407981.9414,34358800273024.86,683721429326981.2
22.452681775019734,1.4433332962090252e+16,1.7222629008332572e+16,994177117006922.1,1046518100105919.4,1570544398288.8215,2778688398766.456,35611085894813.21,708640510437625.8
23.00173541052013,1.4599947932038946e+16,1.7439947455748666e+16,1005653661678649.1,1058598856668317.0,1627495304531.351,2879453257955.7935,36902471153194.74,734337585647084.2
23.561770118730532,1.47675460013878e+16,1.7659233398732112e+16,1017197922859859.9,1070750894848263.8,1686219737019.8665,2983356337009.334,38234075548725.125,760834928013403.8
24.133005521105144,1.4936135912736364e+16,1.7880520980086178e+16,1028810502746343.5,1082974848545675.0,1746768385239.0515,3090487344640.647,39607048793271.016,788155411534639.6
24.715665631527248,1.5105726155168596e+16,1.8103844703541772e+16,1040491986071584.6,1095271333278814.0,1809193302624.6274,3200938404198.96,41022571545459.21,816322525770507.1
25.309978944157795,1.527632496429866e+16,1.8329239449563708e+16,1052242940109901.8,1107640946187596.8,1873547939599.7825,3314804112194.239,42481856160781.57,845360390754967.1
25.91617852304095,1.5447940321964402e+16,1.8556740491064628e+16,1064063914655338.8,1120084266011368.6,1939887177260.6296,3432181597974.031,43986147456465.625,875293772201846.0
26.53450209350177,1.562057995557673e+16,1.8786383509038108e+16,1075955441976858.6,1132601853041741.8,2008267361714.686,3553170584559.526,45536723491201.43,906148097005301.5
27.165192135371807,1.5794251337129154e+16,1.901820460811614e+16,1087918036750096.0,1145194249050749.0,2078746339075.5068,3677873450646.5444,47134896359802.555,937949469036592.4
27.808495978079243,1.596896168186868e+16,1.925224033205491e+16,1099952195965831.5,1157861977194507.0,2151383491115.8562,3806395293775.723,48782013002851.22,970724685238167.4
28.464665897640828,1.6144717946627142e+16,1.948852767914764e+16,1112058398815050.2,1170605541892218.5,2226239771580.48,3938843994674.1235,50479456031360.8,1004501252015604.4
29.133959215593645,1.6321526827807242e+16,1.9727104117557344e+16,1124237106550202.8,1183425428680125.2,2303377743158.484,4075330282768.393,52228644566453.766,1039307401927385.0
29.816638399905518,1.6499394759014288e+16,1.996800760055999e+16,1136488762322092.0,1196322104039827.0,2382861615113.7534,4215967802866.8535,54031035094024.01,1075172110671795.0
30.51297116790363,1.6678327908321208e+16,2.021127658168103e+16,1148813790991480.5,1209296015199928.2,2464757281570.1562,4360873183005.1753,55888122334313.14,1112125114369521.4
31.223230591261704,1.6858332175148928e+16,2.0456950029702876e+16,1161212598914214.5,1222347589909898.0,2549132360446.5356,4510166103446.69,57801440126288.375,1150196927139648.0
31.947695203086937,1.703941318674131e+16,2.0705067443516356e+16,1173685573698399.2,1235477236184428.8,2636056233034.052,4663969366824.794,59772562326658.44,1189418858965734.8
32.686649107148675,1.7221576294207306e+16,2.095566886678017e+16,1186233083931798.5,1248685342016503.0,2725600084206.243,4822408969410.282,61803103723312.06,1229823033847654.5
33.44038208929165,1.7404826568100082e+16,2.1208794902347348e+16,1198855478877320.8,1261972275056823.8,2817836943249.232,4985614173481.959,63894720962895.82,1271442408233478.5
34.20918973107749,1.7589168793496372e+16,2.146448672641023e+16,1211553088134061.0,1275338382257029.8,2912841725296.528,5153717580772.964,66049113492183.53,1314310789724472.5
34.993373525699035,1.7774607464534632e+16,2.1722786102307076e+16,1224326221261105.5,1288783989473700.0,3010691273349.401,5326855206959.613,68268024512809.41,1358462856044549.0
35.793240996213015,1.7961146778366228e+16,2.198373539392769e+16,1237175167360892.0,1302309401029744.5,3111464400860.001,5505166557152.587,70553241948850.0,1403934174263969.8
36.60910581613728,1.81487906284684e+16,2.224737757864548e+16,1250100194618562.5,1315914899229562.2,3215241934850.2607,5688794702343.121,72906599426650.19,1450761220265156.0
37.44128793246003,1.8337542597262508e+16,2.2513756259698692e+16,1263101549793558.8,1329600743823808.2,3322106759535.1855,5877886356748.783,75329977266181.14,1498981398436350.0
38.29011369110923,1.852740594797783e+16,2.278291567793278e+16,1276179457659156.0,1343367171419458.5,3432143860413.9487,6072591955994.67,77825303483109.75,1548633061576819.0
39.15591596493141,1.8718383615696492e+16,2.305490072281286e+16,1289334120385636.8,1357214394830488.8,3545440368787.354,6273065736056.769,80394554800640.4,1599755530994759.2
40.03903428423004,1.8910478197511324e+16,2.3329756942604224e+16,1302565716862378.2,1371142602364296.0,3662085606654.1416,6479465812884.018,83039757670058.69,1652389116776636.8
40.93981496991464,1.9103691941726644e+16,2.3607530553616464e+16,1315874401953975.0,1385151957038637.0,3782171131932.91,6691954262604.878,85762989298773.27,1706575138203866.0
41.85861126931294,1.9298026736029308e+16,2.3888268448399344e+16,1329260305685451.0,1399242595723943.5,3905790783949.996,6910697202213.681,88566378684510.75,1762355944290013.0
42.7957834946992,1.9493484094555984e+16,2.4172018202775692e+16,1342723532351469.2,1413414628205647.0,4033040729127.1206,7135864870619.518,91452107654161.48,1819774934408687.8
43.751699164593184,1.9690065143784056e+16,2.4458828081591084e+16,1356264159544470.0,1427668136161134.5,4164019506795.51,7367631709928.816,94422411905628.4,1878876578979062.0
44.72673314788505,1.988777060717314e+16,2.474874704306183e+16,1369882237096756.0,1442003172046148.0,4298828075056.521,7606176446820.11,97479582050865.88,1939706440173035.5
