t(s),Total solute volume 1,Total retention volume 1,Total 1 volume 1,Total 2 volume 1,Total 3 volume 1,Total 4 volume 1,Total 5 volume 1,Total 6 volume 1
0.1,803801399340899.0,888695292650996.4,42833262785020.44,42060630525076.21,0.0,0.0,0.0,0.0
0.202,1211218247503850.2,1339174151978143.2,64543840775755.484,63379590268140.99,98317213.28935012,156296347.38395935,1706206816.297703,30512610016.184025
0.30604000000000003,1521451189392915.8,1682222426205365.5,81075647206986.39,79613193760672.08,249462251.7208478,396573925.17345196,4329196588.281092,77420612023.48363
0.41216080000000005,1783844163355695.0,1972392130829952.5,95058139933756.4,93343468404564.06,443117194.4348972,704430187.7198384,7689909635.885064,137521678915.22168
0.5204040160000001,2016856519104048.5,2230090696908162.5,107474987534796.12,105536339238106.62,674703554.6419291,1072586658.61468,11708890289.619276,209394850705.04077
0.6308120963200001,2229683278868348.2,2465483472407462.5,118816177716974.53,116672955505309.45,941765325.6291101,1497139000.2261295,16343516788.447811,292277895716.9565
0.7434283382464002,2427668162632056.5,2684478093155179.0,129366468584600.62,127032938805914.11,1242898134.555098,1975854673.3824728,21569417594.7543,385734962201.27765
0.8582969050113283,2614234224321438.0,2890858878852715.0,139308269086822.52,136795407772070.88,1577309341.3300073,2507473620.0949583,27372837276.87821,489520052144.4626
0.9754628431115548,2791727037546432.5,3087219000724504.0,148766571007728.75,146083099569323.88,1944601316.4998162,3091363737.283016,33746875480.95706,603509760482.191
1.094972099973786,2961835503526441.0,3275425693647167.5,157831373132965.97,154984389573151.06,2344651429.207901,3727330091.941652,40689404225.24029,727666028863.7557
1.2168715419732616,3125822852942850.5,3456875631562644.0,166569990960922.6,163565379035940.84,2777539937.6623363,4415500287.628021,48201816501.81907,862013766194.4974
1.3412089728127268,3284662883107572.5,3632645538209800.0,175034316558772.2,171877023988786.8,3243503986.0337777,5156251332.72418,56288227933.18874,1006626571420.4698
1.4680331522689813,3439124940855348.0,3803586135384197.5,183265347161916.47,179959582153445.2,3742906892.5092397,5950160817.275429,64954943793.72645,1161617201982.2947
1.597393815314361,3589829380321371.0,3970383450903196.0,191296140428308.06,187845514889389.1,4276216914.567531,6797973155.907666,74210090500.2142,1327130983558.497
1.729341691620648,3737285122002603.5,4133600339503774.5,199153815899448.72,195561452552182.66,4843992162.612982,7700575604.88183,84063353801.84076,1503341127972.4646
1.863928525453061,3881915893248597.5,4293705491121364.5,206860953313253.03,203129567583388.9,5446869656.13135,8658980864.578491,94525788860.12822,1690445336744.4521
2.001207095962122,4024079052087361.5,4451094240364896.0,214436595696428.75,210568559512188.78,6085557262.682401,9674314275.49018,105609682361.72803,1888663515022.3306
2.1412312378813647,4164079402640953.5,4606103838176730.0,221896985559445.97,217894377857960.06,6760827692.323146,10747804228.73427,117328440293.6164,2098235046164.7517
2.284055862638992,4302179535173660.5,4759024883809314.0,229256115909876.6,225120763223896.97,7473514012.199321,11880775099.167856,129696522097.11731,2319418690669.672
2.4297369798917723,4438607703900141.0,4910110032646689.0,236526150041758.16,232259659500897.8,8224506280.419036,13074641851.958279,142729374263.20493,2552490681504.376
2.578331719489608,4573563919963687.0,5059580732093996.0,243717746222014.84,239321532700628.66,9014749047.44801,14330906081.184227,156443388968.9977,2797744163568.8857
2.7298983538794,4707224729972379.0,5207632504196659.0,250840312330840.56,246315621002671.03,9845239526.268675,15651153101.005388,170855872323.55276,3055488625807.416
2.884496320956988,4839747010042275.0,5354439139963780.0,257902208040059.0,253250133285960.5,10717026291.583313,17037049877.865772,185985021794.80942,3326049497508.647
3.0421862473761276,4971271011899141.0,5500156066896021.0,264910907134907.28,260132408522588.38,11631208403.453709,18490343637.43457,201849911002.32208,3609767876331.435
3.2030299723236504,5101922833308746.0,5644923080156312.0,271873129159225.9,266969045048355.53,12588934876.571083,20012861021.00609,218470480508.166,3907000363598.24
3.3670905717701234,5231816440156042.0,5788866578131094.0,278794947168757.56,273766006372407.8,13591404435.061052,21606507695.82435,235867533563.11935,4218118988205.6665
3.5344323832055258,5361055335545510.0,5932101407811395.0,285681876674773.9,280528708516479.56,14639865506.500402,23273268345.69174,254062736004.23245,4543511204775.399
3.7051210308696363,5489733948244053.0,6074732399942072.0,292538949631925.7,287262092668147.44,15735616419.098656,25015206984.55863,273078619678.2117,4883579954858.277
3.879223451487029,5617938795930681.0,6216855655251602.0,299370776425923.4,293970686050358.94,16880005773.761826,26834467548.130817,292938588899.8099,5238743782414.0625
4.0568079205167695,5745749466232138.0,6358559629273565.0,306181598151315.7,300658653256230.5,18074432968.68889,28733274727.969807,313666929557.3754,5609436996630.665
4.237944078927105,5873239449170011.0,6499926052930875.0,312975330971241.3,307329839808620.4,19320348858.739723,30713935019.845623,335288820557.3171,5996109876570.317
4.422702960505647,6000476847561456.0,6641030718223450.0,319755603973517.4,313987809333372.56,20619256535.386745,32778837963.79335,357830347361.298,6399228913240.126
4.61115701971576,6127524986498554.0,6781944152371736.0,326525791648802.4,320635875451626.5,21972712215.885883,34930457557.8039,381318517418.913,6819277085559.279
4.803380160110075,6254442938849326.0,6922732199145571.0,333289041893682.7,327277129277785.1,23382326232.538776,37171353830.64028,405781277337.4762,7256754167390.726
4.9994477633122765,6381285980467541.0,7063456522508647.0,340048300268062.75,333914463239349.25,24849764114.716698,39504174562.12747,431247531661.703,7712177063362.13
5.199436718578522,6508105986243309.0,7204175044884186.0,346806331100052.2,340550591801104.8,26376747757.767216,41931657141.570335,457747163161.27673,8186080171651.834
5.403425452950093,6634951776104820.0,7344942330113112.0,353565735923831.7,347188069570404.7,27965056674.104618,44456630556.8303,485311054544.7682,8679015772281.533
5.611493962009095,6761869418472436.0,7485809919396860.0,360328969650227.94,353829307176066.75,29616529322.759464,47082017508.13968,513971111535.2502,9191554439759.373
5.823723841249277,6888902497375667.0,7626826627090008.0,367098354800939.2,360476585245831.06,31333064514.4592,49810836642.00012,543760287256.8273,9724285479165.387
6.040198318074262,7016092348401894.0,7768038802057286.0,373876094081856.75,367132066752880.6,33116622889.98479,52646204901.58154,574712607892.94,10277817384979.092
6.261002284435747,7143478267800850.0,7909490559374619.0,380664281525905.2,373797807957691.94,34969228470.10582,55591339990.91907,606863199586.9867,10852778322122.121
6.486222330124463,7271097698378873.0,8051223986391869.0,387464912399034.1,380475768135339.8,36892970275.87004,58649562950.97157,640248316564.0413,11449816628837.086
6.715946776726952,7398986395250685.0,8193279326548846.0,394279892032870.8,387167818248823.75,38890004018.43008,61824300846.23243,674905370459.479,12069601341147.732
6.950265712261491,7527178574049915.0,8335695143820049.0,401111043722609.2,393875748704491.06,40962553857.931076,65119089561.14496,710872960846.255,12712822738753.67
7.18927102650672,7655707043812183.0,8478508470235940.0,407960115808131.94,400601276305436.7,43112914231.28577,68537576706.042694,748190906957.8544,13380192912305.576
7.433056447036854,7784603326422937.0,8621754938573071.0,414828788039195.75,407346050501863.7,45343451748.92164,72083524632.75246,786900280608.3501,14072446352087.193
7.681717575977592,7913897764252766.0,8765468902006468.0,421718677311139.56,414111659023333.2,47656607160.81663,75760813560.36,827043440315.1042,14790340558201.57
7.935351927497144,8043619617376630.0,8909683542269383.0,428631342845532.2,420899632965969.7,50054897392.334946,79573444811.95879,868664066633.0112,15534656672422.74
8.194058966047088,8173797151583169.0,9054430967653406.0,435568290880054.6,427711451397733.94,52540917650.56542,83525544163.49118,911807198712.4038,16306200131927.479
8.45794014536803,8304457718218876.0,9199742302004744.0,442530978923255.1,434548545536437.7,55117343602.01512,87621365306.04924,956519272095.5677,17105801345175.104
8.72709894827539,8435627826774778.0,9345647765720416.0,449520819622587.3,441412302548010.2,57786933622.66877,91865293423.22919,1002848157769.2633,17934316390246.74
9.0016409272409,8567333211007340.0,9492176749620100.0,456539184287870.7,448304069006400.44,60552531121.5495,96261848885.36028,1050843202493.087,18792627735998.0
9.281673745785717,8699598889284342.0,9639357882457520.0,463587406107035.06,455225154051315.7,63417066939.04796,100815691062.60898,1100555270425.6025,19681644986417.027
9.567307220701432,8832449219762303.0,9787219092742998.0,470666783086430.4,462176832275489.75,66383561821.39443,105531622259.15836,1152036786072.174,20602305648616.02
9.85865336511546,8965907950927398.0,9935787665465074.0,477778580744069.3,469160346369353.25,69455128972.76285,110414591770.81963,1205341778580.257,21555575924917.305
10.155826432417769,9099998267968776.0,1.0085090294230892e+16,484924034580789.25,476176909547613.25,72634976686.5907,115469700068.60155,1260525927409.776,22542451529526.39
10.458942961066125,9234742835398466.0,1.0235153129283184e+16,492104352351390.3,483227707779424.9,75926411057.79916,120702203110.91652,1317646609407.7166,23563958530313.707
10.768121820287448,9370163836283484.0,1.0386001821799194e+16,499320716155260.4,490313901841309.5,79332838777.68877,126117516787.24138,1376762947317.8247,24621154216257.85
11.083484256693197,9506283008415852.0,1.0537661564831884e+16,506574284363807.25,497436629209815.06,82857770013.36986,131721221496.19969,1437935859757.7144,25715127991125.773
11.405153941827061,9643121677708356.0,1.0690157131212366e+16,513866193400066.1,504597005809024.8,86504821373.68259,137519066861.1608,1501228112697.191,26847002293997.066
11.733257020663602,9780700789073390.0,1.0843512908699256e+16,521197559384189.3,511796127626366.1,90277718963.62834,143516976586.5897,1566704372473.1191,28017933547261.258
12.067922161076874,9919040935014524.0,1.099775293262839e+16,528569479657032.0,519035072208710.75,94180301529.43607,149721053458.50427,1634431260377.4695,29229113132744.46
12.409280604298411,1.0058162382135058e+16,1.1152900916291022e+16,535983034192763.06,526314900049509.3,98216523696.44371,156137584492.52612,1704477408856.5637,30481768396645.227
12.75746621638438,1.0198085095748076e+16,1.1308980279243798e+16,543439286910283.2,533636655876549.8,102390459302.0718,162773046233.13443,1776913519361.0127,31777163683984.027
13.112615540712067,1.0338828762751984e+16,1.1466014173733416e+16,550939286892232.4,541001369848979.4,106706304826.23477,169634110207.85876,1851812421886.9922,33116601403294.895
13.474867851526309,1.048041281291966e+16,1.1624025509400448e+16,558484069519452.3,548410058671299.8,111168382921.61052,176727648540.25922,1929249136251.0342,34501423122311.523
13.844365208556836,1.0622856438734768e+16,1.1783036976410454e+16,566074657528028.0,555863726631342.5,115781146046.26985,184060739725.6751,2009300935141.6309,35933010695422.766
14.221252512727972,1.07661786138943e+16,1.19430710671455e+16,573712061995261.5,563363366568466.0,120549180201.23787,191640674573.82935,2092047408992.401,37412787423696.94
14.605677562982532,1.0910398110586688e+16,1.2104150096576824e+16,581397283260392.9,570909960777651.5,125477208775.63715,199474962322.50598,2177570532722.7751,38942219248295.805
14.997791114242183,1.1055533515642078e+16,1.2266296221427842e+16,589131311785221.2,578504481854615.9,130570096502.13177,207571336926.62448,2265954734393.469,40522815978124.15
15.397746936527026,1.1201603245643588e+16,1.2429531458224934e+16,596915128959363.6,586147893486539.8,135832853525.4699,215937763527.1662,2357286965825.234,42156132552581.68
15.805701875257567,1.1348625561079192e+16,1.2593877700326378e+16,604749707854374.2,593841151192578.9,141270639586.98846,224582445104.49475,2451656775230.75,43843770340305.15
16.221815912762718,1.149661857960578e+16,1.2759356734008698e+16,612636013930581.0,601585203017954.6,146888768328.01562,233513829320.7594,2549156381910.4604,45587378474815.35
16.64625223101797,1.1645600288490594e+16,1.2925990253683934e+16,620575005700051.8,609380990184970.0,152692711715.17987,242740615556.14288,2649880753064.713,47388655227995.64
17.079177275638333,1.1795588556288138e+16,1.3093799876312896e+16,628567635348854.6,617229447704027.1,158688104590.6843,252271762143.84726,2753927682775.349,49249349422360.68
17.5207608211511,1.1946601143804786e+16,1.326280715507295e+16,636614849321330.4,625131504947374.9,164880749350.68326,262116493808.78784,2861397873211.112,51171261883079.6
17.97117603757412,1.209865571439745e+16,1.3433033592333292e+16,644717588868899.0,633088086188013.6,171276620754.94986,272284309315.06277,2972395018112.218,53156246930747.41
18.430599558325603,1.2251769843647298e+16,1.3604500651983434e+16,652876790565555.0,641100111105885.6,177881870871.05365,282784989327.35126,3087025888610.1987,55206213915904.45
18.899211549492115,1.2405961028443822e+16,1.3777229771155394e+16,661093386791938.0,649168495263223.2,184702834156.3403,293628604491.43787,3205400421439.989,57323128796323.15
19.37719578048196,1.2561246695509926e+16,1.395124237137429e+16,669368306189632.9,657294150550641.1,191746032681.01285,304825523739.1374,3327631809601.5845,59509015758084.36
19.864739696091597,1.2717644209392374e+16,1.4126559869165924e+16,677702474086951.2,665477985605252.5,199018181495.63553,316386422822.8951,3453836595529.0127,61765958881478.14
20.36203449001343,1.2875170879937798e+16,1.4303203686143804e+16,686096812897323.9,673720906201865.6,206526194146.38998,328322293085.36694,3584134766824.448,64096103852758.27
20.869275179813698,1.3033843969267332e+16,1.4481195258592492e+16,694552242490972.4,682023815617956.9,214277188341.39902,340644450469.23145,3718649854614.8564,66501659722778.68
21.38666068340997,1.3193680698258978e+16,1.4660556046556836e+16,703069680540337.1,690387614972851.5,222278491771.3673,353364544772.4528,3857509034588.0464,68984900713524.875
21.91439389707817,1.335469825253856e+16,1.4841307542440656e+16,711650042839325.9,698813203541245.2,230537648087.7765,366494569154.0745,4000843230763.775,71548168073536.33
22.452681775019734,1.3516913787975618e+16,1.5023471279110716e+16,720294243596179.8,707301479040754.2,239062423041.7074,380046869895.5111,4148787222053.756,74193871983181.7
23.00173541052013,1.3680344435672044e+16,1.520706883749392e+16,729003195699319.6,715853337892984.4,247860810786.28806,394034156422.0474,4301479751662.489,76924493510710.9
23.561770118730532,1.3845007306424948e+16,1.5392121853648384e+16,737777810955149.5,724469675457044.1,256941040345.5587,408469511589.02466,4459063639377.321,79742586619951.81
24.133005521105144,1.4010919494636686e+16,1.557865202527898e+16,746619000296422.2,733151386234142.6,266311582252.3307,423366402236.8034,4621685896792.72,82650780230453.45
24.715665631527248,1.4178098081637126e+16,1.5766681117659514e+16,755527673959287.8,741899364041449.9,275981155357.34973,438738690018.1833,4789497845508.75,85651780330788.05
25.309978944157795,1.4346560138374308e+16,1.5956230968914114e+16,764504741626649.4,750714502152877.0,285958733811.74054,454600642501.428,4962655238338.185,88748372145626.28
25.91617852304095,1.4516322727420014e+16,1.6147323494598516e+16,773551112535071.2,759597693404027.4,296253554224.3065,470966944551.4073,5141318383549.706,91943422357078.5
26.53450209350177,1.4687402904228096e+16,1.6339980691513694e+16,782667695541794.9,768549830258038.9,306875122994.8052,487852709990.63666,5325652272166.507,95239881380640.38
27.165192135371807,1.4859817717572292e+16,1.6534224640670526e+16,791855399148103.1,777571804828494.9,317833223823.76904,505273493541.14667,5515826708330.575,98640785695928.77
27.808495978079243,1.5033584209081476e+16,1.6730077509314508e+16,801115131474529.8,786664508855108.0,329137925398.82745,523245303047.0858,5712016442731.674,102149260232188.88
28.464665897640828,1.5208719411779128e+16,1.692756155190811e+16,810447800183044.0,795828833627284.1,340799589256.7803,541784611976.9129,5914401309088.296,105768520808338.45
29.133959215593645,1.5385240347523934e+16,1.7126699109955538e+16,819854312340656.6,805065669850207.1,352828877819.8624,560908372202.676,6123166363653.43,109501876627072.05
29.816638399905518,1.5563164023239146e+16,1.7327512610544812e+16,829335574218497.8,814375907447529.9,365236762603.7815,580634027052.547,6338502027703.487,113352732822265.03
30.51297116790363,1.5742507425808048e+16,1.7530024563470922e+16,838892491019797.8,823760435294262.8,378034532594.0912,600979524631.1782,6560604232950.605,117324593058618.28
31.223230591261704,1.5923287515504552e+16,1.773425755679353e+16,848525966529805.9,833220140873014.5,391233802786.41486,621963331400.7325,6789674569800.7705,121421062182149.03
31.947695203086937,1.6105521217819198e+16,1.7940234250672728e+16,858236902680235.2,842755909846285.1,404846522884.8401,643604446013.5812,7025920438359.194,125645848919766.25
32.686649107148675,1.6289225413535206e+16,1.8147977369320104e+16,868026199020405.0,852368625537149.4,418884986151.5464,665922413385.6443,7269555202062.722,130002768625774.11
33.44038208929165,1.6474416926901176e+16,1.835750969089252e+16,877894752087005.8,862059168310395.2,433361838399.3611,688937338997.1991,7520798343795.263,134495746072735.44
34.20918973107749,1.6661112511745172e+16,1.8568854035153668e+16,887843454664117.4,871828414845882.8,448290087117.4936,712669903405.6395,7779875624317.116,139128818283660.11
34.993373525699035,1.684932883536923e+16,1.878203324872252e+16,897873194924999.2,881677237295819.8,463683110719.1718,737141376952.2883,8047019242812.628,143906137402024.84
35.793240996213015,1.703908246006555e+16,1.899707018772766e+16,907984855447101.0,891606502317536.0,479554667898.2812,762373634642.7664,8322467999332.538,148831973595622.62
36.60910581613728,1.7230389822093934e+16,1.9213987697686052e+16,918179312091809.9,901617069973441.1,495918907080.471,788389171177.8204,8606467458878.853,153910717989727.2
37.44128793246003,1.7423267207964652e+16,1.943280859042863e+16,928457432740602.2,911709792489969.0,512790375952.42126,815211116108.7092,8899270116849.352,159146885624520.22
38.29011369110923,1.7617730727875962e+16,1.965355561790006e+16,938820075879576.1,921885512867647.8,530184031051.23615,842863249088.4518,9201135565529.014,164545118431179.03
39.15591596493141,1.7813796286163476e+16,1.9876251442667348e+16,949268089024739.1,932145063334794.5,548115247394.1024,871370015187.4486,9512330661283.71,170110188220463.0
40.03903428423004,1.8011479548628438e+16,2.010091860498479e+16,959802306980993.5,942489263637891.2,566599828126.5327,900756540238.9359,9833129692080.207,175846999677077.34
40.93981496991464,1.8210795906624572e+16,2.032757948627311e+16,970423549928382.1,952918919162366.2,585654014165.7041,931048646177.013,10163814544924.807,181760593352518.38
41.85861126931294,1.841176043779924e+16,2.055625626888903e+16,981132621330034.4,963434818878273.9,605294493813.5687,962272866326.9884,10504674872781.746,187856148648552.56
42.7957834946992,1.8614387863399996e+16,2.078697089207976e+16,991930305657129.8,974037733106286.9,625538412312.67,994456460604.9781,10856008260501.154,194138986782918.0
43.751699164593184,1.8818692502079856e+16,2.101974500403702e+16,1002817365927228.9,984728411100440.6,646403381315.8019,1027627430580.963,11218120389256.4,200614573728306.16
44.72673314788505,1.9024688220153996e+16,2.1254599909989492e+16,1013794541053551.8,995507578445222.0,667907488239.026,1061814534356.7839,11591325198961.89,207288523115158.3
45.721267810842754,1.923238837828584e+16,2.149155651629872e+16,1024862543003958.8,1006375934265802.1,690069305465.9233,1097047301208.0967,11975945048113.729,214166599088308.3
