t(s),Total solute volume 1,Total retention volume 1,Total 1 volume 1,Total 2 volume 1,Total 3 volume 1,Total 4 volume 1,Total 5 volume 1,Total 6 volume 1
0.1,1144268928618327.0,1596229672649425.0,193012778181123.2,258947965849975.12,0.0,0.0,0.0,0.0
0.202,1719424909036456.8,2406627780157976.5,290028832260341.25,389105730876552.5,4697151975.137775,12068613582.47538,270559278180.02664,7780982940887.621
0.30604000000000003,2155188602600829.8,3026875907277693.0,363532499105753.9,487719024466809.2,11892739301.873144,30556623112.51999,685057863928.6301,19708273877960.773
0.41216080000000005,2521621486935354.0,3553836178247346.5,425341596573427.6,570642760166946.0,21081282469.568783,54165264534.857285,1214366124063.241,34940721900550.812
0.5204040160000001,2845077065010303.0,4023875150303380.0,479901375996320.5,643840734367423.2,32032675086.8337,82303316965.74835,1845227253017.8518,53096411684262.46
0.6308120963200001,3138705538732263.0,4455116550515371.5,529429984690161.25,710288836944160.1,44618721371.68313,114641405013.26996,2570256097066.3765,73962673925337.73
0.7434283382464002,3410155816379443.0,4858096557522189.0,575217623779619.0,771718015332308.9,58761574872.324066,150979518853.01733,3384968192520.034,97410392744562.62
0.8582969050113283,3664329029662025.0,5239568343848672.0,618091005443819.9,829237395301545.8,74412503052.46738,191192452830.686,4286556318486.2446,123358752166916.89
0.9754628431115548,3904582799223920.5,5604163948260375.0,658616485789862.2,883606806169037.9,91541396035.11246,235202849712.20337,5273286085612.888,151757826746196.34
1.094972099973786,4133332902819547.5,5955223560835656.0,697201552925738.6,935372938270001.8,110130936771.35121,282966221805.40015,6344160081900.671,182578909579895.66
1.2168715419732616,4352383871472163.0,6295250645123466.0,734150591197551.8,984944156846659.6,130173082376.25146,334461910291.9352,7498715166913.133,215808675447514.47
1.3412089728127268,4563124131190309.0,6626180272788755.0,769697797267552.2,1032634662605526.1,151666805972.686,389687283250.3948,8736892383642.867,251445435252493.56
1.4680331522689813,4766647827392186.0,6949546452811153.0,804027729191640.4,1078692060576280.9,174616577188.4526,448653831540.4531,10058949423560.5,289496615818755.9
1.597393815314361,4963834385332234.0,7266591290828330.0,837288726498130.5,1123315364630803.6,199031300505.4279,511384441070.34015,11465399467905.697,329976999157670.06
1.729341691620648,5155402432487552.0,7578338894641187.0,869602005697954.2,1166667200115417.8,224923550529.26797,577911427957.8806,12956967134069.68,372907454227717.1
1.863928525453061,5341947498194990.0,7885646993049306.0,901068019377005.2,1208882335276131.2,252309007113.90808,648275087189.1079,14534555935224.658,418314000171664.4
2.001207095962122,5523969077025504.0,8189243956001786.0,931771021186924.0,1250073805698315.2,281206029268.6322,722522597858.5032,16199223734922.926,466227099728987.8
2.1412312378813647,5701890503897177.0,8489755957470564.0,961782418335687.4,1290337412043376.8,311635328030.5681,800707182686.7073,17952163902871.836,516681116780725.6
2.284055862638992,5876073842188347.0,8787727305735760.0,991163282881975.0,1329755089227691.8,343619711542.5674,882887453059.827,19794690630294.51,569713893642847.6
2.4297369798917723,6046831231953597.0,9083635928007986.0,1019966265927422.5,1368397474523074.0,377183883873.5117,969126892152.6337,21728227341266.773,625366417486604.0
2.578331719489608,6214433674285531.0,9377905348532360.0,1048237079343539.1,1406325895457213.5,412354284547.4415,1059493442647.79,23754297449197.242,683682554269678.2
2.7298983538794,6379117925230664.0,9670914083419286.0,1076015658622371.6,1443593929906340.5,449158959393.1853,1154059174929.2866,25874516917612.617,744708834607983.0
2.884496320956988,6541091973332266.0,9963003101684372.0,1103337086816442.5,1480248645662781.5,487627455829.78436,1252900018060.9429,28090588228641.277,808494280170362.1
3.0421862473761276,6700539440624967.0,1.0254481817723642e+16,1130232336888905.8,1516331596379734.8,527790737457.70807,1356095540369.2556,30404295463669.36,875090262088527.8
3.2030299723236504,6857623154671592.0,1.0545632953939326e+16,1156728874236882.8,1551879629922908.8,569681114078.0548,1463728769667.1604,32817500272781.215,944550384951428.2
3.3670905717701234,7012488074710437.0,1.0836716523786722e+16,1182851150267612.5,1586925550557482.8,613332184170.2965,1575886045489.3516,35332138561925.57,1016930391459630.9
3.5344323832055258,7165263709103523.0,1.1127973122663012e+16,1208621010168321.5,1621498666016455.2,658778787527.9338,1692656897427.9316,37950217765274.48,1092288083924495.2
3.7051210308696363,7316066128163015.0,1.1419626668726156e+16,1234058032425368.2,1655625243003098.0,706056966250.457,1814133944939.6243,40673814598992.305,1170683259624486.5
3.879223451487029,7464999652206534.0,1.171188670258442e+16,1259179813561744.0,1689328889197780.2,755203932667.086,1940412814964.4272,43505073214352.59,1252177657656363.5
4.0568079205167695,7612158276743437.0,1.200495033025418e+16,1284002208534368.8,1722630875777506.5,806258043055.884,2071592074435.9453,46446203684740.07,1336834915396639.8
4.237944078927105,7757626883241213.0,1.229900387540038e+16,1308539534963506.0,1755550411412249.8,859258776244.3275,2207773175335.363,49499480773890.89,1424720533057928.8
4.422702960505647,7901482273730177.0,1.2594224292955484e+16,1332804747647641.2,1788104876395956.2,914246716350.9147,2349060410386.6353,52667242942719.7,1515901845112234.0
4.61115701971576,8043794059707463.0,1.2890780385571454e+16,1356809588501841.5,1820310023805410.8,971263539063.9662,2495560877841.498,55951891559948.0,1610447997579877.5
4.803380160110075,8184625429780293.0,1.3188833856145526e+16,1380564716042162.2,1852180153217884.2,1030352000961.9946,2647384454080.952,59355890287986.21,1708429930362174.2
4.9994477633122765,8324033815798606.0,1.3488540223267842e+16,1404079817747422.5,1883728261456887.2,1091555931466.8027,2804643772982.8735,62881764620516.875,1809920363939953.5
5.199436718578522,8462071473545181.0,1.379004962142225e+16,1427363708008755.0,1914966174002295.0,1154920227090.209,2967454211184.371,66532101552248.07,1914993789875487.2
5.403425452950093,8598785991137530.0,1.4093507503805392e+16,1450424413885741.8,1945904660041683.5,1220490847692.0188,3135933878513.7036,70309549364568.38,2023726464649655.8
5.611493962009095,8734220735975538.0,1.4399055262470378e+16,1473269250496521.8,1976553533614511.8,1288314814513.1228,3310203612984.943,74216817513508.4,2136196406442798.5
5.823723841249277,8868415249205949.0,1.4706830777969712e+16,1495904887555239.2,2006921742879430.5,1358440209785.7588,3490386979846.824,78256676608599.69,2252483394530853.5
6.040198318074262,9001405595172879.0,1.5016968908630092e+16,1518337408316575.5,2037017449194911.2,1430916177754.2913,3676610274257.9106,82431958473038.83,2372668971020660.5
6.261002284435747,9133224672102618.0,1.5329601927934064e+16,1540572361981376.2,2066848097427181.2,1505792926966.2703,3869002527227.5186,86745556277079.05,2496836444691604.5
6.486222330124463,9263902489275048.0,1.5644859917131858e+16,1562614810449323.0,2096420478674080.0,1583121733715.297,4067695514518.378,91200424737819.83,2625070896747379.0
6.715946776726952,9393466415115146.0,1.5962871119096098e+16,1584469370166477.0,2125740786408208.0,1662954946535.668,4272823768253.9507,95799580379645.33,2757459188311818.0
6.950265712261491,9521941399964588.0,1.628376225851873e+16,1606140249701886.5,2154814666890040.8,1745345991664.4658,4484524591013.714,100546101850447.89,2894089969529083.0
7.18927102650672,9649350176731958.0,1.6607658832790966e+16,1627631283592844.8,2183647264575124.2,1830349379399.8079,4702938072233.757,105443130289530.5,3035053690149859.0
7.433056447036854,9775713442155822.0,1.6934685377275934e+16,1648945962919932.8,2212243263133867.0,1918020711295.4485,4928207106758.635,110493869743755.94,3180442611504499.0
7.681717575977592,9901050021023940.0,1.7264965708157786e+16,1670087463007158.5,2240606922614323.5,2008416688141.5225,5160477415415.822,115701587629038.92,3330350819779769.0
7.935351927497144,1.0025377015364706e+16,1.759862314560688e+16,1691058668587259.5,2268742113204240.5,2101595118689.5027,5399897567505.207,121069615234777.92,3484874240529745.5
8.194058966047088,1.014870994035108e+16,1.7935780719629796e+16,1711862196725668.5,2296652345986084.0,2197614929086.8357,5646619005114.762,126601348269237.88,3644110654363503.5
8.45794014536803,1.0271062848423248e+16,1.827656136065538e+16,1732500417757241.2,2324340801025984.0,2296536172992.7383,5900796069189.628,132300247444239.25,3808159713762460.0
8.72709894827539,1.0392448442937086e+16,1.862108807664256e+16,1752975474456243.5,2351810353092383.5,2398420042352.395,6162586027295.667,138169839097850.9,3977122960989342.0
9.0016409272409,1.0512878182477428e+16,1.8969484118265948e+16,1773289299631686.8,2379063595262123.0,2503328878811.193,6432149103031.131,144213715854030.28,4151103847058825.0
9.281673745785717,1.063236237682925e+16,1.932187313354131e+16,1793443632315540.5,2406102860638720.5,2611326185755.299,6709648507050.671,150435537318419.16,4330207751746559.5
9.567307220701432,1.0750910275476e+16,1.9678379313085936e+16,1813440032690425.8,2432930242379494.5,2722476640968.0317,6995250469675.455,156839030809703.06,4514542004619633.0
9.85865336511546,1.086853014938732e+16,2.0039127527064884e+16,1833279895885378.5,2459547612204183.0,2836846109895.247,7289124275071.489,163427992126133.8,4704215907076926.0
10.155826432417769,1.098522936676595e+16,2.040424345475101e+16,1852964464752719.2,2485956637536434.5,2954501659515.5674,7591442296985.757,170206286346983.8,4899340755392426.0
10.458942961066125,1.1101014463344344e+16,2.077385370751847e+16,1872494841725457.2,2512158797411890.0,3075511572813.7485,7902380036036.293,177177848668844.12,5100029864759085.0
10.768121820287448,1.1215891207750704e+16,2.114808594599808e+16,1891871999843175.2,2538155397270577.5,3199945363858.169,8222116158558.347,184346685276812.22,5306398594334387.0
11.083484256693197,1.13298646624057e+16,2.152706899204076e+16,1911096793023889.8,2563947582737798.5,3327873793484.9585,8550832537013.657,191716874250730.66,5518564373292183.0
11.405153941827061,1.1442939240357062e+16,2.1910932936066464e+16,1930169965650819.0,2589536352485769.5,3459368885593.4766,8888714291974.936,199292566506750.62,5736646727888463.0
11.733257020663602,1.1555118758413602e+16,2.2299809240312216e+16,1949092161534898.0,2614922570257925.5,3594503944059.3174,9235949835701.498,207077986774570.8,5960767309551436.0
12.067922161076874,1.1666406486900588e+16,2.2693830838443076e+16,1967863932307396.5,2640106976128439.5,3733353570272.3384,9592730917325.982,215077434610803.0,6191049924008294.0
12.409280604298411,1.1776805196321646e+16,2.3093132231938452e+16,1986485745290797.8,2665090197061949.5,3875993681308.8096,9959252669675.057,223295285448978.9,6427620561464086.0
12.75746621638438,1.1886317201183122e+16,2.3497849583626876e+16,2004957990890923.5,2689872756830872.5,4022501528747.6743,10335713657750.412,231735991686785.44,6670607427848660.0
13.112615540712067,1.1994944401207328e+16,2.3908120808707276e+16,2023280989548750.5,2714455085342045.0,4172955718141.935,10722315928898.594,240404083811172.44,6920140977150933.0
13.474867851526309,1.2102688320138414e+16,2.432408566355876e+16,2041454998286080.2,2738837527418471.5,4327436229157.3447,11119265064700.625,249304171562027.44,7176353944859880.0
13.844365208556836,1.2209550142323092e+16,2.4745885832616468e+16,2059480216875880.0,2763020351077514.5,4486024436391.039,11526770234615.045,258440945135162.8,7439381382533781.0
14.221252512727972,1.2315530747228054e+16,2.517366501356297e+16,2077356793664648.0,2787003755342219.5,4648803130883.7295,11945044251408.803,267819176425400.94,7709360693520361.0
14.605677562982532,1.2420630742041592e+16,2.56075690010644e+16,2095084831071525.5,2810787877619036.0,4815856542339.661,12374303628412.75,277443720310575.88,7986431669850936.0
14.997791114242183,1.2524850492489256e+16,2.604774576925861e+16,2112664390786265.0,2834372800671385.0,4987270362068.889,12814768638640.336,287319515977308.1,8270736530333699.0
15.397746936527026,1.2628190151982648e+16,2.649434555318729e+16,2130095498685957.8,2857758559216086.0,5163131766667.168,13266663375807.645,297451588289430.4,8562419959870651.0
15.805701875257567,1.2730649689206782e+16,2.694752092934596e+16,2147378149488424.5,2880945146166308.0,5343529442448.967,13730215817296.062,307845049199972.06,8861629150024716.0
16.221815912762718,1.2832228914242076e+16,2.740742689551403e+16,2164512311158394.8,2903932518543006.5,5528553610649.695,14205657889098.594,318505099207615.2,9168513840863140.0
16.64625223101797,1.2932927503307364e+16,2.7874220950012164e+16,2181497929081128.5,2926720603074280.5,5718296053412.919,14693225532791.096,329437028858587.8,9483226364104586.0
17.079177275638333,1.3032745022201814e+16,2.834806317052511e+16,2198334930016535.2,2949309301500249.5,5912850140579.646,15193158774571.885,340646220294916.1,9805921687596474.0
17.5207608211511,1.3131680948516534e+16,2.882911629261709e+16,2215023225845778.0,2971698495599538.5,6112310857295.6875,15705701796412.146,352138148850025.4,1.0136757461151504e+16
17.97117603757412,1.3229734692679866e+16,2.9317545788057252e+16,2231562717121155.8,2993888051951843.0,6316774832454.231,16231103009360.727,363918384692657.3,1.0475894063769946e+16
18.430599558325603,1.3326905617894534e+16,2.981351994306706e+16,2247953296429038.8,3015877826449713.5,6526340367990.236,16769615129046.668,375992594520073.0,1.0823494652276682e+16
18.899211549492115,1.3423193059019522e+16,3.0317209936590492e+16,2264194851574855.5,3037667668571494.5,6741107469043.782,17321495253423.908,388366543301532.94,1.1179725211400668e+16
19.37719578048196,1.3518596340445118e+16,3.0828789918685652e+16,2280287268598189.0,3059257425426441.5,6961177875008.931,17887004942800.895,401046096073034.75,1.1544754605325064e+16
19.864739696091597,1.3613114793004852e+16,3.1348437089126572e+16,2296230434625431.5,3080646945581937.5,7186655091485.389,18466410302199.918,414037219784287.6,1.1918754630736374e+16
20.36203449001343,1.370674776996494e+16,3.1876331776302376e+16,2312024240566910.5,3101836082681879.0,7417644423149.321,19059982066089.113,427345985198900.94,1.2301900071400526e+16
20.869275179813698,1.3799494662128692e+16,3.2412657516493244e+16,2327668583664595.5,3122824698864753.0,7654253007560.578,19667995685530.754,440978568848778.8,1.2694368754293322e+16
21.38666068340997,1.3891354912088948e+16,3.295760113359986e+16,2343163369896226.0,3143612667989069.5,7896589849922.538,20290731417789.184,454941255043659.4,1.3096341607314258e+16
21.91439389707817,1.3982328027661744e+16,3.3511352819400056e+16,2358508516241217.5,3164199878673313.0,8144765858811.29,20928474418441.094,469240437936787.25,1.3508002718609708e+16
22.452681775019734,1.4072413594529194e+16,3.407410621440006e+16,2373703952813282.5,3184586237157021.0,8398893882890.399,21581514836030.73,483882623647662.2,1.3929539397533992e+16
23.00173541052013,1.4161611288119334e+16,3.4646058489348416e+16,2388749624864272.0,3204771669989257.0,8659088748627.64,22250147909311.96,498874432442810.75,1.4361142237274788e+16
23.561770118730532,1.4249920884748914e+16,3.5227410427474116e+16,2403645494663741.0,3224756126550194.0,8925467299029.463,22934674067118.824,514222600975510.06,1.480300517916963e+16
24.133005521105144,1.4337342272052444e+16,3.5818366507511316e+16,2418391543258053.0,3244539581411178.5,9198148433408.93,23635399030906.117,529933984585396.5,1.5255325578739918e+16
24.715665631527248,1.4423875458720518e+16,3.641913498756806e+16,2432987772113065.5,3264122036538556.5,9477253148203.416,24352633919999.957,546015559658862.44,1.5718304273468856e+16
25.309978944157795,1.4509520583568802e+16,3.70299279898965e+16,2447434204643835.0,3283503523345944.5,9762904578855.941,25086695359599.26,562474426051141.94,1.6192145652348318e+16
25.91617852304095,1.4594277923957808e+16,3.7650961586618264e+16,2461730887634886.0,3302684104599675.0,10055228042777.285,25837905591566.133,579317809570981.4,1.6677057727220528e+16
26.53450209350177,1.4678147903583624e+16,3.828245588645927e+16,2475877892554251.5,3321663876181768.5,10354351083402.094,26606592588046.52,596553064528758.1,1.717325220593943e+16
27.165192135371807,1.4761131099657406e+16,3.892463512254511e+16,2489875316764627.0,3340442968714737.0,10660403515354.396,27393090167957.027,614187676348911.5,1.7680944567376108e+16
27.808495978079243,1.4843228249492802e+16,3.957772774130662e+16,2503723284634375.5,3359021549052249.0,10973517470737.162,28197738116377.156,632229264247543.2,1.82003541382925e+16
28.464665897640828,1.4924440256517672e+16,4.024196649254615e+16,2517421948551689.5,3377399821639589.5,11293827446559.621,29020882306884.168,650685583976017.6,1.8731704172107748e+16
29.133959215593645,1.5004768195728276e+16,4.091758852071181e+16,2530971489844518.5,3395578029748002.5,11621470353316.783,29862874826866.65,669564530631386.1,1.927522192957943e+16
29.816638399905518,1.5084213318601816e+16,4.1604835457427016e+16,2544372119609251.5,3413556456586306.0,11956585564734.516,30724074105853.266,688874141534438.5,1.9831138761424516e+16
30.51297116790363,1.5162777057483942e+16,4.230395351532132e+16,2557624079450726.5,3431335426293875.0,12299314968694.146,31604845046892.34,708622599176215.4,2.0399690192901012e+16
31.223230591261704,1.5240461029467234e+16,4.301519358320991e+16,2570727642136540.5,3448915304818279.0,12649803019349.848,32505559161017.926,728818234233718.4,2.0981116010373788e+16
31.947695203086937,1.5317267039776624e+16,4.3738811322663576e+16,2583683112168035.5,3466296500681435.0,13008196790451.527,33426594704835.492,749469528655646.9,2.1575660349886544e+16
32.686649107148675,1.5393197084677132e+16,4.4475067266017144e+16,2596490826270761.0,3483479465637632.0,13374646029887.02,34368336821263.44,770585118818901.5,2.2183571787761524e+16
33.44038208929165,1.546825335391978e+16,4.522422691585763e+16,2609151153807056.5,3500464695226992.0,13749303215455.453,35331177683462.99,792173798756624.1,2.280510343324826e+16
34.20918973107749,1.5542438232740486e+16,4.598656084603743e+16,2621664497113249.5,3517252729227872.5,14132323611885.426,36315516641989.88,814244523458521.2,2.344051302324342e+16
34.993373525699035,1.5615754303427904e+16,4.676234480425389e+16,2634031291764080.0,3533844152011682.0,14523865329109.48,37321760375201.87,836806412244228.4,2.409006301910172e+16
35.793240996213015,1.568820434647507e+16,4.755185981624027e+16,2646252006766969.5,3550239592803427.0,14924089381808.229,38350323042954.445,859868752210432.9,2.4754020705559652e+16
36.60910581613728,1.575979134132982e+16,4.835539229160891e+16,2658327144688609.5,3566439725851589.5,15333159750235.592,39401626443616.97,883441001752513.5,2.5432658291792516e+16
37.44128793246003,1.5830518466759432e+16,4.917323413138934e+16,2670257241716449.0,3582445270510637.5,15751243442337.979,40476100174442.016,907532794161396.9,2.6126253014624508e+16
38.29011369110923,1.590038910084453e+16,5.000568283730453e+16,2682042867657661.0,3598256991239603.0,16178510557179.086,41574181795321.3,932153941296398.2,2.6835087243913796e+16
39.15591596493141,1.5969406820616442e+16,5.0853041622825896e+16,2693684625878040.0,3613875697520112.5,16615134349682.588,42696316995957.58,957314437334719.8,2.7559448590130972e+16
40.03903428423004,1.6037575401354614e+16,5.171561952604992e+16,2705183153183381.5,3629302243697277.5,17061291296704.787,43842959766488.336,983024462598367.9,2.8299630014153204e+16
40.93981496991464,1.610489881555707e+16,5.2593731524438104e+16,2716539119645913.5,3644537528746784.5,17517161164449.143,45014572571590.28,1009294387459216.0,2.9055929939293108e+16
41.85861126931294,1.6171381231600176e+16,5.348769865146088e+16,2727753228378185.5,3659582495971568.5,17982927077234.62,46211626528098.85,1036134776322888.0,2.982865236558273e+16
42.7957834946992,1.6237027012101752e+16,5.439784811518952e+16,2738826215256987.5,3674438132631421.0,18458775587630.35,47434601586174.836,1063556391692274.4,3.061810698633337e+16
