t(s),Total solute volume 1,Total retention volume 1,Total 1 volume 1,Total 2 volume 1,Total 3 volume 1,Total 4 volume 1,Total 5 volume 1,Total 6 volume 1
0.1,1384269013029218.2,1.039366397781807e+16,2531887414418598.5,6477507550370256.0,0.0,0.0,0.0,0.013903653951609765
0.202,2000964910124581.5,1.5025753958139192e+16,3659854319000018.5,9363333778115574.0,1121787685.457254,7659670820.052515,266199085212.78674,1325970355299.7578
0.30604000000000003,2489114318826907.0,1.8693842885894164e+16,4552701916474087.0,1.1647595188114566e+16,2818951377.9579544,19271636466.335667,707842823129.91,3701529067626.334
0.41216080000000005,2906272635963977.0,2.1829933779642252e+16,5315703430546536.0,1.3599655934755298e+16,4986696494.878813,34107862359.627987,1287476364028.7188,6975207453562.714
0.5204040160000001,3278217673599838.0,2.4627486431438284e+16,5996007756329205.0,1.5340143586477182e+16,7575405492.784123,51827510834.20763,1988016380750.2402,11069995734984.812
0.6308120963200001,3618619595078982.5,2.7189092519416824e+16,6618618272586890.0,1.6933027253140206e+16,10558111540.019403,72245532548.81203,2800507626437.2603,15944087340213.748
0.7434283382464002,3935632507557546.5,2.9575948502325156e+16,7198449221893882.0,1.841646367712114e+16,13919305008.742706,95255531748.08192,3719877169512.255,21574043746307.875
0.8582969050113283,4234550137511583.0,3.1827786724510264e+16,7745183074602279.0,1.9815224538268772e+16,17650180352.15155,120797099513.7776,4743225034899.743,27947301812854.12
0.9754628431115548,4519029206389192.0,3.397205660436967e+16,8265508142214967.0,2.1146421226859428e+16,21746272870.552692,148839589893.42172,5869015215243.746,35058427828067.273
1.094972099973786,4791716790627997.0,3.602863264540477e+16,8764266048661674.0,2.242244055498251e+16,26206144313.76988,179373101854.6923,7096641499797.055,42907030386640.85
1.2168715419732616,5054600261060479.0,3.801244043140308e+16,9245091785890646.0,2.3652582282567076e+16,31030590712.212902,212403046251.79034,8426172348879.059,51496495899042.68
1.3412089728127268,5309215848457883.0,3.993502166037769e+16,9710795189954422.0,2.484403508895119e+16,36222135771.0579,247946672159.86606,9858190733092.896,60833173473161.586
1.4680331522689813,5556779720373629.0,4.180551767482321e+16,1.0163600686621516e+16,2.6002489939383388e+16,41784691943.12893,286030743336.8961,11393688467989.775,70925824541424.27
1.597393815314361,5798273999381516.0,4.3631314869037304e+16,1.0605304622697548e+16,2.7132542602035844e+16,47723325624.66429,326689928704.6933,13033993785598.719,81785237882469.38
1.729341691620648,6034505274041169.0,4.541848368841632e+16,1.1037382285268714e+16,2.8237967446260196e+16,54044089999.07943,369965656640.1622,14780720188762.28,93423952910809.44
1.863928525453061,6266145620444324.0,4.717208639783869e+16,1.1461062931989622e+16,2.9321909400146656e+16,60753903508.858536,415905282059.6232,16635729489686.307,105856056582837.08
2.001207095962122,6493762113987192.0,4.889639849080071e+16,1.1877383769464564e+16,3.0387022048816776e+16,67860460093.63476,464561471244.32355,18601104624502.668,119097031976330.08
2.1412312378813647,6717838539322073.0,5.059507156311349e+16,1.228722966174034e+16,3.1435569224604256e+16,75372162155.00615,515991742431.70404,20679129401911.715,133163644140333.95
2.284055862638992,6938791674570842.0,5.227125548025865e+16,1.2691362914875394e+16,3.2469501207858148e+16,83298070173.40363,570258120528.3632,22872273294494.81,148073853469057.22
2.4297369798917723,7156983716586726.0,5.392769159449541e+16,1.3090446003309572e+16,3.349051287004699e+16,91647864787.33789,627426877225.6857,25183179978970.26,163846749831118.22
2.578331719489608,7372731906684580.0,5.556678496061895e+16,1.348505917576299e+16,3.450008871665144e+16,100431818379.35226,687568336259.3622,27614658719195.113,180502502646099.06
2.7298983538794,7586316089303682.0,5.719066104591214e+16,1.3875714280374004e+16,3.5499538257362372e+16,109660774041.75449,750756729235.3698,30169677943816.906,198062323424966.8
2.884496320956988,7797984720158451.0,5.8801210809782104e+16,1.4262865753879902e+16,3.649002412076914e+16,119346130364.52066,817070091347.5319,32851360546487.617,216548438206429.44
3.0421862473761276,8007959694707089.0,6.040012693517077e+16,1.464691945310544e+16,3.747258464881242e+16,129499830886.82007,886590189047.0532,35662980559130.35,235984067966803.47
3.2030299723236504,8216440267462288.0,6.198893324123269e+16,1.5028239823560108e+16,3.844815223689917e+16,140134357338.43323,959402473676.555,38607960935734.0,256393415544355.53
3.3670905717701234,8423606262388222.0,6.356900877948373e+16,1.5407155771399802e+16,3.941756835670911e+16,151262726003.95966,1035596056497.2504,41689872246934.625,277801657957147.72
3.5344323832055258,8629620724585694.0,6.514160774017909e+16,1.5783965513479398e+16,4.03815959645504e+16,162898486694.8525,1115263701580.571,44912432131652.74,300234943243659.1
3.7051210308696363,8834632127306860.0,6.670787602439076e+16,1.615894061408262e+16,4.134092982891414e+16,175055723927.8624,1198501833813.639,48279505386256.05,323720391143169.75
3.879223451487029,9038776221856062.0,6.826886513856505e+16,1.6532329368474648e+16,4.22962051869416e+16,187749059994.2651,1285410559855.9304,51795104597456.14,348286097075408.56
4.0568079205167695,9242177598293966.0,6.9825543921004936e+16,1.6904359657500652e+16,4.324800504761714e+16,200993659669.82764,1376093700333.7888,55463391244755.88,373961138988377.9
4.237944078927105,9444951010130170.0,7.137880849921235e+16,1.7275241370508632e+16,4.419686639056384e+16,214805236366.1182,1470658831906.618,59288677213360.445,400775586728102.4
4.422702960505647,9647202505022246.0,7.292949079325046e+16,1.7645168473449182e+16,4.514328545706062e+16,229200059563.27734,1569217338109.2083,63275426670205.08,428760513650493.94
4.61115701971576,9849030394949106.0,7.447836581615216e+16,1.8014320783366466e+16,4.608772228989214e+16,244194963395.48117,1671884468087.9214,67428258264972.15,457948010247956.9
4.803380160110075,1.0050526092720924e+16,7.602615797285451e+16,1.838286549841287e+16,4.703060464773149e+16,259807356285.02908,1778779402517.6667,71751947625269.8,488371199605151.3
4.9994477633122765,1.0251774836540896e+16,7.75735465205253e+16,1.8750958523105108e+16,4.797233139566886e+16,276055231540.7661,1890025326122.0923,76251430120976.45,520064254531797.6
5.199436718578522,1.0452856320290038e+16,7.91211703228237e+16,1.911874562114377e+16,4.891327545457979e+16,292957178852.515,2005749506328.8604,80931803877448.73,553062416247528.3
5.403425452950093,1.0653845244006924e+16,8.066963200663525e+16,1.9486363422265628e+16,4.985378637705154e+16,310532396626.1609,2126083377680.6057,85798333021094.39,587402014515767.6
5.611493962009095,1.0854811796483602e+16,8.221950161069142e+16,1.9853940304933376e+16,5.079419260565196e+16,328800705114.6479,2251162631695.073,90856451143924.72,623120489141706.8
5.823723841249277,1.1055822079852834e+16,8.377131980014251e+16,2.0221597172925016e+16,5.173480345975188e+16,347782560308.9103,2381127311927.7734,96111764976252.36,660256412764276.9
6.040198318074262,1.1256938484389864e+16,8.53256007087588e+16,2.0589448140863068e+16,5.267591088938e+16,367499068560.0028,2516121914040.2993,101570058258820.69,698849514884365.6
6.261002284435747,1.1458220020410394e+16,8.688283446037654e+16,2.095760114127118e+16,5.36177910283131e+16,387972001909.7874,2656295490718.987,107237295807411.75,738940707081844.1
6.486222330124463,1.1659722613050864e+16,8.84434894129905e+16,2.1326158463740504e+16,5.4560705573476584e+16,409223814112.59174,2801801761323.478,113119627764458.86,780572109382568.2
6.715946776726952,1.1861499364817768e+16,9.000801416214597e+16,2.1695217235144176e+16,5.550490301352321e+16,431277657334.5983,2952799226174.281,119223394033439.12,823787077743901.4
6.950265712261491,1.2063600790050238e+16,9.157683933472346e+16,2.2064869848480196e+16,5.64506197259817e+16,454157399521.3658,3109451285413.519,125555128892873.97,868630232633486.6
7.18927102650672,1.2266075024825436e+16,9.31503791995894e+16,2.243520434679765e+16,5.739808095949246e+16,477887642427.0341,3271926362394.56,132121565787679.23,915147488681381.1
7.433056447036854,1.2468968015323138e+16,9.472903311775054e+16,2.2806304767724268e+16,5.83475017152446e+16,502493740301.454,3440398031574.7163,138929642296372.3,963386085390269.8
7.681717575977592,1.2672323687238084e+16,9.63131868514298e+16,2.317825145332908e+16,5.929908753972665e+16,528001819233.83685,3615045150901.227,145986505273324.56,1013394618892540.4
7.935351927497144,1.2876184098467544e+16,9.790321374878755e+16,2.3551121329395012e+16,6.025303523921681e+16,554438797153.5604,3796051998694.7925,153299516165822.8,1065223074746516.2
8.194058966047088,1.3080589576999462e+16,9.949947581873373e+16,2.3924988157622492e+16,6.1209533525018616e+16,581832404490.5328,3983608415047.029,160876256506223.16,1118922861767334.4
8.45794014536803,1.3285578845668084e+16,1.0110232470835066e+17,2.4299922763813176e+16,6.216876359724542e+16,610211205499.1364,4177909947759.229,168724533579916.1,1174546846890738.2
8.72709894827539,1.3491189135227028e+16,1.027121025938126e+17,2.4675993244685524e+16,6.313089967393611e+16,639604620251.1401,4379158002859.2607,176852386270237.6,1232149391070662.8
9.0016409272409,1.3697456287002596e+16,1.0432914299429123e+17,2.505326515563259e+16,6.40961094714135e+16,670042947304.2333,4587559999742.066,185268091081796.1,1291786386213728.5
9.281673745785717,1.3904414846232036e+16,1.0595377151714494e+17,2.5431801681441784e+16,6.506455464105303e+16,701557387053.9751,4803329530986.93,193980168344015.28,1353515293156032.5
9.567307220701432,1.4112098147054278e+16,1.0758630654167019e+17,2.581166379174678e+16,6.6036391166989944e+16,734180065777.933,5026686526911.714,202997388596972.9,1417395180689453.2
9.85865336511546,1.4320538390003272e+16,1.0922705984780704e+17,2.6192910382766444e+16,6.701176972874346e+16,767944060381.7515,5257857424930.365,212328779161874.38,1483486765646661.0
10.155826432417769,1.4529766712753306e+16,1.1087633719543968e+17,2.6575598406701028e+16,6.7990836032263256e+16,802883423857.7021,5497075343786.137,221983630898736.62,1551852454055713.0
10.458942961066125,1.4739813254776892e+16,1.1253443885926755e+17,2.6959782989994484e+16,6.897373111249115e+16,839033211467.0654,5744580262737.896,231971505154075.22,1622556383376729.2
10.768121820287448,1.49507072165006e+16,1.1420166012365978e+17,2.734551754153315e+16,6.996059161017621e+16,876429507658.3987,6000619205782.16,242302240901579.62,1695664465834738.2
11.083484256693197,1.5162476913477504e+16,1.1587829174140506e+17,2.773285385172965e+16,7.095155002536999e+16,915109453734.419,6265446430997.785,252985962078955.84,1771244432864223.2
11.405153941827061,1.5375149826037112e+16,1.1756462035983938e+17,2.8121842183334692e+16,7.194673494975963e+16,955111276280.8464,6539323625104.632,264033085124275.06,1849365880682310.2
11.733257020663602,1.5588752644823286e+16,1.1926092891745416e+17,2.8512531354728196e+16,7.294627127975878e+16,996474316371.1427,6822520103331.574,275454326715339.84,1930100317008866.0
12.067922161076874,1.5803311312586146e+16,1.2096749701375717e+17,2.8904968816358416e+16,7.395028041206952e+16,1039239059561.6206,7115313014692.792,287260711715714.75,2013521208953033.2
12.409280604298411,1.601885106255525e+16,1.2268460125486766e+17,2.9299200720928292e+16,7.495888042324638e+16,1083447166691.9264,7417987552774.998,299463581331219.75,2099704032086938.0
12.75746621638438,1.6235396453686942e+16,1.2441251557707226e+17,2.969527198786445e+16,7.597218623463389e+16,1129141505506.3818,7730837172141.581,312074601480819.9,2188726320728474.0
13.112615540712067,1.6452971403048576e+16,1.2615151155033925e+17,3.0093226362549372e+16,7.69903097639057e+16,1176366183112.1494,8054163810462.802,325105771385960.06,2280667719456084.5
13.474867851526309,1.6671599215575728e+16,1.2790185866359344e+17,3.049310647074875e+16,7.801336006431114e+16,1225166579290.6191,8388278116484.281,338569432382526.25,2375610035879585.0
13.844365208556836,1.68913026114146e+16,1.2966382459337429e+17,3.089495386862188e+16,7.904144345262155e+16,1275589380678.8486,8733499683948.931,352478276959726.7,2473637294691953.0
14.221252512727972,1.7112103751041072e+16,1.3143767545734571e+17,3.1298809088665576e+16,8.007466362667342e+16,1327682615838.307,9090157291590.275,366845358030295.56,2574835793027979.5
14.605677562982532,1.7334024258329024e+16,1.3322367605398491e+17,3.170471168190732e+16,8.111312177331475e+16,1381495691228.5483,9458589149317.783,381684098436526.1,2679294157156542.0
14.997791114242183,1.7557085241724314e+16,1.3502209008965371e+17,3.211270025663321e+16,8.215691666748651e+16,1437079428103.8057,9839143150717.486,397008300696754.5,2787103400534077.0
15.397746936527026,1.7781307313665146e+16,1.3683318039414994e+17,3.2522812513908828e+16,8.320614476309912e+16,1494486100350.9465,10232177131993.512,412832156996992.9,2898356983247527.0
15.805701875257567,1.8006710608377444e+16,1.3865720912572917e+17,3.293508528012779e+16,8.42609002763047e+16,1553769473287.4097,10638059137478.799,429170259432533.9,3013150872875947.5
16.221815912762718,1.823331479816111e+16,1.4049443796650814e+17,3.3349554536799948e+16,8.532127526170702e+16,1614984843438.3105,11057167691845.225,446037610504413.44,3131583606800415.5
16.64625223101797,1.8461139108272744e+16,1.423451283090765e+17,3.3766255447772664e+16,8.638735968200418e+16,1678189079311.972,11489892079145.863,463449633875727.06,3253756355992704.0
17.079177275638333,1.869020233050107e+16,1.4420954143507456e+17,3.418522238406083e+16,8.745924147151397e+16,1743440663193.7,11936632628824.33,481422185392879.9,3379772990313762.0
17.5207608211511,1.8920522835522376e+16,1.460879386864314e+17,3.460648894644554e+16,8.853700659399016e+16,1810799733977.7168,12397801008827.793,499971564376916.1,3509740145353587.0
17.97117603757412,1.915211858411596e+16,1.4798058162989978e+17,3.5030087985987668e+16,8.962073909510411e+16,1880328131057.5833,12873820525962.598,519114525190190.7,3643767290844675.0
18.430599558325603,1.938500713731212e+16,1.498877322154721e+17,3.5456051622589104e+16,9.071052114993243e+16,1952089439295.6672,13365126433633.3,538868289083682.1,3781966800681807.5
18.899211549492115,1.9619205665539916e+16,1.5180965292921997e+17,3.5884411261724064e+16,9.180643310576195e+16,2026149035092.49,13872166247107.53,559250556330361.06,3924454024581446.0
19.37719578048196,1.9854730956834656e+16,1.5374660694104826e+17,3.631519760945158e+16,9.29085535204977e+16,2102574133577.017,14395400066451.037,580279518650072.5,4071347361414391.0
19.864739696091597,2.0091599424162184e+16,1.556988582478301e+17,3.674844068581125e+16,9.40169591969348e+16,2181433836939.2373,14935300907278.648,601973871931482.0,4222768334246145.5
20.36203449001343,2.03298271119098e+16,1.5766667181233942e+17,3.718416983669598e+16,9.513172521313403e+16,2262799183926.579,15492355039468.916,624352829256697.5,4378841667119629.5
20.869275179813698,2.0569429701592024e+16,1.596503136983843e+17,3.762241374428788e+16,9.625292494912024e+16,2346743200525.873,16067062333990.998,647436134234231.4,4539695363615499.0
21.38666068340997,2.08104225168136e+16,1.616500512024984e+17,3.806320043613577e+16,9.738063011010728e+16,2433340951852.9116,16659936617994.32,671244074646060.0,4705460787225863.0
21.91439389707817,2.105282052752978e+16,1.6366615298253642e+17,3.850655729294747e+16,9.851491074643354e+16,2522669595271.649,17271506038312.441,695797496414570.4,4876272743577582.0
22.452681775019734,2.1296638353640356e+16,1.656988891834895e+17,3.895251105516361e+16,9.965583527038018e+16,2614808434765.4185,17902313433533.74,721117817895244.1,5052269564541789.0
23.00173541052013,2.1541890267951332e+16,1.677485315608155e+17,3.9401087828374584e+16,1.0080347047003048e+17,2709838976582.59,18552916714792.87,747227044501014.9,5233593194266807.0
23.561770118730532,2.1788590198535052e+16,1.6981535360156368e+17,3.9852313087637256e+16,1.0195788152031317e+17,2807844986179.3105,19223889255437.348,774147783664237.1,5420389277172207.0
24.133005521105144,2.2036751730517844e+16,1.71899630643552e+17,4.030621168074455e+16,1.0311913199136934e+17,2908912546481.953,19915820289725.098,801903260142276.2,5612807247941931.0
24.715665631527248,2.2286388107321456e+16,1.7400163999284445e+17,4.076280783049663e+16,1.0428728385436005e+17,3013130117492.205,20629315320708.688,830517331672803.6,5811000423555169.0
25.309978944157795,2.2537512231383256e+16,1.7612166103975248e+17,4.1222125136017384e+16,1.0546239748483794e+17,3120588597257.5815,21364996537463.508,860014504984844.1,6015126097394090.0
25.91617852304095,2.279013666437737e+16,1.7825997537358432e+17,4.168418657315965e+16,1.0664453166378173e+17,3231381384230.3643,22123503241816.22,890419952171747.8,6225345635467784.0
26.53450209350177,2.3044273626958684e+16,1.8041686689634493e+17,4.214901449403672e+16,1.0783374357639917e+17,3345604441037.945,22905492284731.695,921759527432220.0,6441824574792569.0
27.165192135371807,2.329993499804883e+16,1.8259262193557626e+17,4.261663062571603e+16,1.0903008880878454e+17,3463356359687.5796,23711638512515.332,954059784185606.5,6664732723969041.0
27.808495978079243,2.35571323136825e+16,1.847875293565303e+17,4.308705606810967e+16,1.1023362134252253e+17,3584738428228.4956,24542635222988.367,987347992567654.8,6894244265996786.0
28.464665897640828,2.381587676543131e+16,1.8700188067384627e+17,4.356031129109118e+16,1.1144439354731189e+17,3709854698894.421,25399194631793.504,1021652157312962.6,7130537863368200.0
29.133959215593645,2.4076179198421184e+16,1.8923597016289843e+17,4.403641613086932e+16,1.1266245617168765e+17,3838812057749.2915,26282048348987.215,1057001036030377.4,7373796765483077.0
29.816638399905518,2.433805010895752e+16,1.9149009497097738e+17,4.451538978564426e+16,1.1388785833190957e+17,3971720295859.027,27191947866075.68,1093424157877576.9,7624208918426474.0
30.51297116790363,2.460149964177274e+16,1.9376455522845853e+17,4.499725081057379e+16,1.1512064749908277e+17,4108692182012.1113,28129665053649.168,1130951842641105.8,7881967077152374.0
31.223230591261704,2.486653758690908e+16,1.9605965416010182e+17,4.548201711207114e+16,1.1636086948457038e+17,4249843537011.4297,29095992669769.37,1169615220228100.8,8147268920116416.0
31.947695203086937,2.513317337624852e+16,1.9837569819662912e+17,4.5969705941458456e+16,1.176085684237561e+17,4395293309559.779,30091744879263.47,1209446250575962.5,8420317166401126.0
32.686649107148675,2.5401416079701932e+16,2.007129970867133e+17,4.646033388799653e+16,1.1886378675821294e+17,4545163653761.246,31117757784076.355,1250477743986163.0,8701319695377783.0
33.44038208929165,2.567127440106789e+16,2.0307186400951334e+17,4.695391687131041e+16,1.2012656521632421e+17,4699580008260.348,32174889964831.168,1292743381888451.5,8990489668949191.0
34.20918973107749,2.594275667357182e+16,2.054526156878829e+17,4.745047013323033e+16,1.2139694279241011e+17,4858671177040.604,33264023033747.098,1336277738041573.2,9288045656418078.0
34.993373525699035,2.621587085509532e+16,2.0785557250237894e+17,4.795000822906564e+16,1.2267495672440392e+17,5022569411903.822,34386062199059.87,1381116300176677.0,9594211762026362.0
35.793240996213015,2.6490624523104188e+16,2.102810586061901e+17,4.8452545018328824e+16,1.2396064247011915e+17,5191410496651.19,35541936841089.4,1427295492089490.8,9909217755210716.0
36.60910581613728,2.6767024869285856e+16,2.127294020411064e+17,4.8958093654925544e+16,1.2525403368215443e+17,5365333832986.621,36732601100095.734,1474852696187298.5,1.023329920362026e+16
37.44128793246003,2.704507869390226e+16,2.1520093485464464e+17,4.946666657682787e+16,1.2655516218147114e+17,5544482528162.703,37959034476061.32,1523826276496739.8,1.0566697608942428e+16
38.29011369110923,2.732479239986891e+16,2.1769599321844445e+17,4.9978275495242984e+16,1.2786405792968573e+17,5729003484388.725,39222242440534.65,1574255602138308.2,1.0909660545583706e+16
39.15591596493141,2.760617198656646e+16,2.2021491754804864e+17,5.0492931383294744e+16,1.2918074900011166e+17,5919047490020.172,40523257060667.13,1626181071273388.5,1.12624418022517e+16
