t(s),Total solute volume 1,Total retention volume 1,Total 1 volume 1,Total 2 volume 1,Total 3 volume 1,Total 4 volume 1,Total 5 volume 1,Total 6 volume 1
0.1,1389665646485961.5,7115728075414663.0,1732020487244934.5,3994041941683769.0,0.0,0.0,0.0,0.004426733051481951
0.202,2047171262962410.0,1.049617388332509e+16,2551508703985982.0,5883798395432238.0,4501730646.74341,26474178502.15029,1351129164515.452,12313415870788.36
0.30604000000000003,2556594854846269.0,1.312847297597888e+16,3186433106747663.0,7347940799324186.0,11356503888.684786,66811953043.14117,3498617054440.603,33927429549392.383
0.41216080000000005,2987958859252133.0,1.5369349044439726e+16,3724067243963042.0,8587730244060909.0,20108766222.530914,118320887089.51233,6266832294646.456,63187435215680.71
0.5204040160000001,3370276601546574.5,1.7366421957602264e+16,4200572148634703.5,9686554897237014.0,30546720255.602516,179753010507.52023,9580476200313.73,99227534252900.55
0.6308120963200001,3718428978826848.0,1.9195347332719684e+16,4634494759770283.0,1.0687184302244168e+16,42553133593.83371,250417798344.8526,13399382754162.467,141546938192291.28
0.7434283382464002,4041167777299097.0,2.0900601531476264e+16,5036742942185196.0,1.1614772141679076e+16,56057921536.5645,329902479815.3924,17699835785609.24,189832874125953.5
0.8582969050113283,4344134443512808.5,2.2510854015216104e+16,5414347961127970.0,1.2485532597072624e+16,71018403831.12128,417955684181.148,22467402406404.38,243882637008281.94
0.9754628431115548,4631208874660882.0,2.404583151470654e+16,5772145559433179.0,1.3310616944908486e+16,87409517943.68552,514429786242.9244,27693529026966.727,303564767372844.8
1.094972099973786,4905190683166937.0,2.5519782911807744e+16,6113625057707495.0,1.4098071595222418e+16,105218372249.17212,619248825247.4048,33373687833518.414,368797420679857.75
1.2168715419732616,5168176007624508.0,2.6943394432270796e+16,6441398995940683.0,1.4853921091778772e+16,124440956600.22424,732389132883.7834,39506271253107.414,439535235584224.9
1.3412089728127268,5421780922198407.0,2.8324924392914268e+16,6757481581745019.0,1.5582810217294918e+16,145080031619.4182,853866903969.7814,46091888121143.38,515760836619184.7
1.4680331522689813,5667281352736614.0,2.9670913387287652e+16,7063463076001398.0,1.62884061288391e+16,167143709620.65546,983729840394.0172,53132892992190.28,597479063168337.6
1.597393815314361,5905704671113930.0,3.0986648888052936e+16,7360623952250621.0,1.697366161069078e+16,190644464676.14447,1122051322259.6382,60633059034332.94,684712899176340.5
1.729341691620648,6137891888982336.0,3.227648051040101e+16,7650012412402150.0,1.764099382641584e+16,215598421231.6128,1268926219282.2942,68597343617704.02,777500514342465.1
1.863928525453061,6364541204551738.0,3.354404061200823e+16,7932498661632782.0,1.829240947736008e+16,242024830360.99225,1424467807071.6548,77031716092183.14,875893059734020.2
2.001207095962122,6586239300817785.0,3.4792402747046052e+16,8208813917196974.0,1.8929594757370304e+16,269945676423.7797,1588805451241.8535,85943028649548.02,979952991883768.6
2.1412312378813647,6803484353185405.0,3.6024198079954308e+16,8479579084172237.0,1.9553981479354492e+16,299385376787.2464,1762082839486.2576,95338917858622.39,1089752777167264.1
2.284055862638992,7016703277914262.0,3.724170261236738e+16,8745326253204144.0,2.0166796649296596e+16,330370549506.7702,1944456613780.2993,105227728555138.38,1205373876233998.2
2.4297369798917723,7226264888059812.0,3.844690368192579e+16,9006515097523913.0,2.0769100277940624e+16,362929831633.30695,2136095300664.9163,115618454359629.52,1326905938909517.0
2.578331719489608,7432490082486740.0,3.964155144291191e+16,9263545572110806.0,2.1361814665182948e+16,397093735906.97296,2337178467535.4478,126520690787499.16,1454446160140493.8
2.7298983538794,7635659845382631.0,4.082719927071715e+16,9516767883952952.0,2.194574739159008e+16,432894537014.09796,2547896052989.179,137944598047837.67,1588098761153626.0
2.884496320956988,7836021604093195.0,4.200523586662653e+16,9766490416188638.0,2.252160959154409e+16,470366180933.385,2768447833111.8955,149900871403702.16,1727974569382856.8
3.0421862473761276,8033794338296578.0,4.317691105390013e+16,1.001298609596832e+16,2.309003063759336e+16,509544212542.8773,2999042995275.885,162400717509558.0,1874190677324472.5
3.2030299723236504,8229172727075440.0,4.434335671613672e+16,1.0256497563192686e+16,2.365157005961129e+16,550465717834.2769,3239899797939.2354,175455835528494.6,2026870165212984.2
3.3670905717701234,8422330545911673.0,4.550560395099165e+16,1.0497241404385408e+16,2.4206727308146664e+16,593169277933.4987,3491245299954.6465,189078402112115.16,2186141875857889.2
3.5344323832055258,8613423472591335.0,4.666459724350337e+16,1.0735411649856218e+16,2.4755949818914596e+16,637694932753.8584,3753315146590.7705,203281059532130.28,2352140232529769.0
3.7051210308696363,8802591422703426.0,4.782120626921403e+16,1.0971182684569238e+16,2.5299639725286268e+16,684084152576.587,4026353402226.226,218076906406341.62,2525005092693936.5
3.879223451487029,8989960507373964.0,4.897623579525024e+16,1.1204711688181324e+16,2.5838159485039772e+16,732379816207.162,4310612421759.2993,233479490577684.34,2704881631839529.5
4.0568079205167695,9175644685090504.0,5.0130434042298e+16,1.1436140693807238e+16,2.6371836627891988e+16,782626194626.1929,4606352754367.855,249502803793556.03,2891920252765692.5
4.237944078927105,9359747163884562.0,5.128449979152343e+16,1.1665598335641526e+16,2.690096778553085e+16,834868939262.3433,4913843074482.46,266161277900973.44,3086276516551734.0
4.422702960505647,9542361598326200.0,5.2439088460736264e+16,1.1893201340842538e+16,2.7425822131913692e+16,889155074177.3533,5233360135793.32,283469782326328.3,3288111092117553.0
4.61115701971576,9723573116741782.0,5.359481732837042e+16,1.2119055809814074e+16,2.7946644335608424e+16,945532991581.1661,5565188744864.831,301443622650346.2,3497589721819299.0
4.803380160110075,9903459207080984.0,5.475227004855011e+16,1.2343258320312962e+16,2.8463657105876e+16,1004052450196.5593,5909621751528.204,320098540122008.8,3714883200956402.0
4.9994477633122765,1.0082090484415236e+16,5.5912000573016264e+16,1.256589688402718e+16,2.897706339854841e+16,1064764576073.709,6266960053700.076,339450711981691.75,3940167369413927.5
5.199436718578522,1.0259531358774826e+16,5.707453657409607e+16,1.278705177894026e+16,2.948704833546841e+16,1127721865520.2998,6637512614658.574,359516752485046.94,4173623113947349.5
5.403425452950093,1.0435840618647564e+16,5.824038244582445e+16,1.3006796276579688e+16,2.9993780881531304e+16,1192978189865.6196,7021596491119.255,380313714536446.06,4415436379848457.0
5.611493962009095,1.0611071942765702e+16,5.941002194672084e+16,1.3225197279886738e+16,3.049741531561866e+16,1260588801820.1265,7419536870707.01,401859091854819.0,4665798190922423.0
5.823723841249277,1.0785274350643012e+16,6.058392053681444e+16,1.3442315884747154e+16,3.0998092525492916e+16,1330610343227.2947,7831667117627.602,424170821606278.5,4924904676864269.0
6.040198318074262,1.0958492600577282e+16,6.176252745270697e+16,1.3658207876044986e+16,3.1495941151702384e+16,1403100854033.6448,8258328825514.336,447267287447395.25,5192957107255379.0
6.261002284435747,1.113076754241466e+16,6.294627755731415e+16,1.3872924167333216e+16,3.199107860146567e+16,1478119782327.0544,8699871876567.124,471167322930879.3,5470161931510777.0
6.486222330124463,1.1302136431212648e+16,6.413559299509308e+16,1.4086511191770326e+16,3.2483611950174924e+16,1555727995313.5173,9156654506220.094,495890215231972.7,5756730824201659.0
6.715946776726952,1.1472633206987502e+16,6.5330884678773304e+16,1.4299011250785732e+16,3.2973638745421504e+16,1635987791119.4697,9629043372672.936,521455709159349.1,6052880735255420.0
6.950265712261491,1.1642288744946194e+16,6.65325536296599e+16,1.4510462825958616e+16,3.3461247726191548e+16,1718962911320.9453,10117413630705.135,547884011418944.0,6358833944602513.0
7.18927102650672,1.1811131079952392e+16,6.774099219030389e+16,1.472090085878287e+16,3.39465194680063e+16,1804718554112.879,10622149009262.734,575195795103037.9,6674818120895905.0
7.433056447036854,1.1979185608433106e+16,6.895658512561063e+16,1.4930357002315078e+16,3.4429526963224796e+16,1893321388042.1409,11143641892367.857,603412204380235.1,7001066383976970.0
7.681717575977592,1.214647527047916e+16,7.017971062617512e+16,1.5138859848137092e+16,3.4910336144421484e+16,1984839566236.5972,11682293402952.578,632554859364825.9,7337817370803344.0
7.935351927497144,1.2313020714511928e+16,7.141074122572477e+16,1.5346435131589672e+16,3.5389006357657e+16,2079342741070.0645,12238513489263.273,662645861146434.6,7685315304589424.0
8.194058966047088,1.2478840446566918e+16,7.265004464293283e+16,1.5553105917833406e+16,3.586559079153615e+16,2176902079209.55,12812721013519.725,693707796962965.0,8043810066940719.0
8.45794014536803,1.2643950965973104e+16,7.389798455650371e+16,1.5758892770953724e+16,3.634013686716576e+16,2277590276996.829,13405343842547.133,725763745501687.2,8413557272789915.0
8.72709894827539,1.2808366888975854e+16,7.515492132127224e+16,1.5963813908039342e+16,3.6812686593460776e+16,2381481576121.417,14016818940127.934,758837282314872.6,8794818347965122.0
9.0016409272409,1.297210106165407e+16,7.64212126320715e+16,1.6167885339917556e+16,3.728327689168113e+16,2488651779546.3657,14647592460846.81,792952485337814.9,9187860609240626.0
9.281673745785717,1.3135164663313988e+16,7.769721414128029e+16,1.6371121000019874e+16,3.775193989259719e+16,2599178267652.262,15298119845224.797,828133940498278.5,9592957346738084.0
9.567307220701432,1.329756730139741e+16,7.898328003523488e+16,1.6573532862671786e+16,3.821870320926669e+16,2713140014568.305,15968865915959.508,864406747407554.4,1.0010387908560918e+16
9.85865336511546,1.345931709881773e+16,8.027976357407301e+16,1.6775131051944632e+16,3.8683590188048184e+16,2830617604662.5195,16660304975106.91,901796525124254.9,1.0440437787558354e+16
10.155826432417769,1.3620420774529572e+16,8.158701759903288e+16,1.697592394207429e+16,3.914662014016759e+16,2951693249166.0503,17372920902057.52,940329417982925.5,1.0883398710127362e+16
10.458942961066125,1.3780883718045282e+16,8.290539501077355e+16,1.7175918250335428e+16,3.960780855588667e+16,3076450802909.2744,18107207252175.285,980032101480319.5,1.1339568726970676e+16
10.768121820287448,1.3940710058530386e+16,8.423524922187042e+16,1.7375119123159182e+16,4.0067167303091336e+16,3204975781149.8525,18863667355982.81,1020931788213005.8,1.1809252305739382e+16
11.083484256693197,1.409990272904003e+16,8.557693458630078e+16,1.7573530216194768e+16,4.052470481191403e+16,3337355376475.2417,19642814418789.84,1063056233860633.1,1.2292760425496044e+16
11.405153941827061,1.4258463526397084e+16,8.693080680841555e+16,1.7771153768939072e+16,4.0980426246830744e+16,3473678475764.582,20445171620675.87,1106433743209879.4,1.2790410672942436e+16
11.733257020663602,1.4416393167159068e+16,8.829722333363736e+16,1.79679906744915e+16,4.143433366751539e+16,3614035677196.7974,21271272216749.727,1151093176214764.0,1.330252734036271e+16
12.067922161076874,1.457369134007356e+16,8.967654372288237e+16,1.8164040544932108e+16,4.188642617960305e+16,3758519307294.1235,22121659637622.57,1197063954089563.8,1.3829441525239072e+16
12.409280604298411,1.4730356755380798e+16,9.106913001250437e+16,1.835930177277042e+16,4.2336700076391096e+16,3907223437992.182,22996887590041.51,1244376065431258.2,1.4371491231502802e+16
12.75746621638438,1.4886387191285336e+16,9.247534706137382e+16,1.855377158886573e+16,4.278514897240329e+16,4060243903729.853,23897520157644.76,1293060072368928.8,1.492902147238916e+16
13.112615540712067,1.5041779537886512e+16,9.389556288654619e+16,1.874744611718008e+16,4.323176392965161e+16,4217678318554.223,24824131901809.75,1343147116738197.8,1.5502384374869314e+16
13.474867851526309,1.5196529838828906e+16,9.53301489888351e+16,1.894032042668989e+16,4.3676533577343496e+16,4379626093237.975,25777307962578.98,1394668926279324.0,1.609193928563755e+16
13.844365208556836,1.5350633330908266e+16,9.677948066947803e+16,1.9132388580748828e+16,4.411944422571403e+16,4546188452408.653,26757644159659.895,1447657820858186.5,1.669805287863667e+16
14.221252512727972,1.5504084481846078e+16,9.824393733897242e+16,1.932364368416869e+16,4.4560479974594024e+16,4717468451691.32,27765747093507.945,1502146718709969.8,1.7321099264108326e+16
14.605677562982532,1.5656877026425738e+16,9.97239028190604e+16,1.951407792825788e+16,4.499962281726927e+16,4893570994868.3955,28802234246514.285,1558169142705962.5,1.7961460099160208e+16
14.997791114242183,1.580900400116482e+16,1.012197656387575e+17,1.970368263403547e+16,4.543685274013219e+16,5074602851062.484,29867734084332.83,1615759226644512.0,1.8619524699845084e+16
15.397746936527026,1.596045777768213e+16,1.0273191932523278e+17,1.9892448293818624e+16,4.587214781858282e+16,5260672671950.46,30962886157394.68,1674951721567777.8,1.9295690154752e+16
15.805701875257567,1.6111230094903508e+16,1.0426076269028792e+17,2.0080364611362244e+16,4.630548430959106e+16,5451891009019.294,32088341202671.348,1735782002106636.5,1.99903614401128e+16
16.221815912762718,1.6261312090236732e+16,1.0580670011311416e+17,2.026742054071453e+16,4.673683674129721e+16,5648370330876.443,33244761245762.6,1798286072856625.0,2.07039515364324e+16
16.64625223101797,1.6410694329834962e+16,1.0737014181994947e+17,2.0453604323935636e+16,4.716617799999185e+16,5850225040630.303,34432819703398.633,1862500574788691.0,2.143688154665425e+16
17.079177275638333,1.6559366838055704e+16,1.089515041612111e+17,2.0638903527814276e+16,4.7593479414784424e+16,6057571493358.421,35653201486462.12,1928462791699010.5,2.2189580815877844e+16
17.5207608211511,1.6707319126214332e+16,1.1055120988663072e+17,2.0823305079704816e+16,4.801871084024333e+16,6270528013684.183,36906603103650.05,1996210656703041.2,2.2962487052647864e+16
17.97117603757412,1.6854540220720348e+16,1.1216968841887752e+17,2.1006795302595228e+16,4.844184073726292e+16,6489214913484.928,38193732765911.75,2065782758779591.0,2.3756046451840104e+16
18.430599558325603,1.7001018690677722e+16,1.1380737612612048e+17,2.1189359949506964e+16,4.886283625238942e+16,6713754509757.653,39515310491814.59,2137218349371582.8,2.457071381917328e+16
18.899211549492115,1.7146742675022102e+16,1.1546471659394333e+17,2.137098423731751e+16,4.928166329581621e+16,6944271142670.946,40872068214008.49,2210557349050867.5,2.5406952697379972e+16
19.37719578048196,1.7291699909261042e+16,1.1714216089699874e+17,2.155165288008825e+16,4.969828661823772e+16,7180891193834.829,42264749886972.23,2285840354255386.5,2.62652354940754e+16
19.864739696091597,1.743587775187684e+16,1.1884016787075917e+17,2.173135012197227e+16,5.011266988673443e+16,7423743104823.353,43694111596248.13,2363108644107696.5,2.714604361136681e+16
20.36203449001343,1.7579263210445718e+16,1.2055920438369595e+17,2.19100597697676e+16,5.052477575984137e+16,7672957395987.392,45160921669384.86,2442404187324892.0,2.804986757725106e+16
20.869275179813698,1.772184296752079e+16,1.2229974561019578e+17,2.2087765225176972e+16,5.093456596193855e+16,7928666685598.755,46665960788829.18,2523769649230672.0,2.897720717885428e+16
21.38666068340997,1.7863603406321654e+16,1.2406227530450245e+17,2.2264449516826164e+16,5.13420013570858e+16,8191005709369.399,48210022107024.56,2607248398881389.5,2.992857159757107e+16
21.91439389707817,1.8004530636268054e+16,1.2584728607595522e+17,2.2440095332088228e+16,5.174704202240862e+16,8460111340393.143,49793911363994.22,2692884516318703.0,3.0904479546167108e+16
22.452681775019734,1.8144610518390696e+16,1.2765527966577069e+17,2.2614685048754196e+16,5.214964732113161e+16,8736122609560.159,51418447007706.15,2780722799962531.0,3.1905459407914412e+16
23.00173541052013,1.828382869064707e+16,1.2948676722560856e+17,2.2788200766585804e+16,5.2549775975338616e+16,9019180726498.35,53084460317534.586,2870808774158801.5,3.2932049377834216e+16
23.561770118730532,1.842217059316725e+16,1.3134226959813712e+17,2.296062433878061e+16,5.294738613853144e+16,9309429101098.395,54792795531155.41,2963188696897701.5,3.3984797606127836e+16
24.133005521105144,1.8559621493448584e+16,1.3322231759980829e+17,2.3131937403374104e+16,5.3342435468042584e+16,9607013365683.225,56544309975229.31,3057909567718888.0,3.5064262343883124e+16
24.715665631527248,1.8696166511517224e+16,1.351274523060353e+17,2.330212141459911e+16,5.37348811973508e+16,9912081397885.582,58339874200249.17,3155019135821310.5,3.617101209114855e+16
25.309978944157795,1.883179064506683e+16,1.3705822533895437e+17,2.3471157674218344e+16,5.412468020833327e+16,10224783344300.91,60180372119945.56,3254565908396131.0,3.73056257474756e+16
25.91617852304095,1.896647879458541e+16,1.3901519915794534e+17,2.3639027362841124e+16,5.451178910348225e+16,10545271644986.16,62066701155665.31,3356599159202415.5,3.8468692765033624e+16
26.53450209350177,1.910021578847457e+16,1.409989473530688e+17,2.380571157123097e+16,5.4896164278099864e+16,10873701058878.012,63999772386156.07,3461168937406116.5,3.966081330441216e+16
27.165192135371807,1.9232986408163764e+16,1.4301005494157563e+17,2.397119133160686e+16,5.527776199247959e+16,11210228690208.04,65980510703211.984,3568326076703967.5,4.088259839322809e+16
27.808495978079243,1.9364775413218172e+16,1.4504911866763258e+17,2.4135447648936944e+16,5.565653844406853e+16,11555014015994.55,68009854973648.266,3678122204754888.5,4.213467008766425e+16
28.464665897640828,1.9495567566436976e+16,1.471167473053984e+17,2.429846153221934e+16,5.603244983960196e+16,11908218914694.889,70088758208099.37,3790609752942406.0,4.3417661637074824e+16
29.133959215593645,1.9625347658933316e+16,1.4921356196558154e+17,2.446021402574146e+16,5.640545246718601e+16,12270007696104.047,72218187737144.05,3905841966492681.0,4.473221765179475e+16
29.816638399905518,1.9754100535187304e+16,1.513401964055997e+17,2.4620686240304476e+16,5.677550276830255e+16,12640547132589.424,74399125395284.52,4023872914973588.0,4.6078994274304e+16
30.51297116790363,1.988181111805839e+16,1.5349729734345914e+17,2.4779859384397956e+16,5.7142557409696696e+16,13020006491753.027,76632567713320.14,4144757503201169.0,4.74586593538997e+16
31.223230591261704,2.000846443374152e+16,1.556855247754604e+17,2.493771479530405e+16,5.75065733551041e+16,13408557570616.227,78919526119670.55,4268551482580782.0,4.8871892625039544e+16
31.947695203086937,2.0134045636649e+16,1.5790555229783958e+17,2.509423397010915e+16,5.786750793676274e+16,13806374731423.871,81261027151219.58,4395311462910955.0,5.031938588952503e+16
32.686649107148675,2.0258540034196896e+16,1.601580674324416e+17,2.524939859659677e+16,5.8225318926653e+16,14213634939166.807,83658112674265.11,4525094924678893.0,5.180184320270271e+16
33.44038208929165,2.0381933111473084e+16,1.6244377195652134e+17,2.540319058399252e+16,5.857996460739445e+16,14630517800924.531,86111840116165.66,4657960231877198.0,5.331998106386696e+16
34.20918973107749,2.0504210555760656e+16,1.647633822367631e+17,2.5555592093529264e+16,5.893140384273006e+16,15057205607130.322,88623282708295.86,4793966645372081.0,5.4874528611055656e+16
34.993373525699035,2.062535828088945e+16,1.6711762956760976e+17,2.570658556879768e+16,5.927959614751377e+16,15493883374863.992,91193529740920.2,4933174336854053.0,5.646622782043894e+16
35.793240996213015,2.0745362451385204e+16,1.695072605139782e+17,2.585615376584475e+16,5.962450175711836e+16,15940738893277.871,93823686830611.5,5075644403402472.0,5.809583371050375e+16
36.60910581613728,2.0864209506384148e+16,1.7193303725845098e+17,2.6004279782980104e+16,5.996608169616821e+16,16397962771262.508,96514876200839.03,5221438882695923.0,5.976411455125042e+16
37.44128793246003,2.0981886183279692e+16,1.743957379530124e+17,2.615094709024786e+16,6.030429784650206e+16,16865748487459.717,99268236976359.97,5370620768900785.0,6.147185207861813e+16
38.29011369110923,2.109837954106442e+16,1.7689615707541587e+17,2.6296139558519536e+16,6.0639113014260664e+16,17344292442730.77,102084925492048.19,5523254029270562.0,6.321984171436604e+16
