t(s),Total solute volume 1,Total retention volume 1,Total 1 volume 1,Total 2 volume 1,Total 3 volume 1,Total 4 volume 1,Total 5 volume 1,Total 6 volume 1
0.1,1198922522623410.5,1797285705327306.5,247551059597552.8,350812123106343.5,0.0,0.0,0.0,0.0
0.202,1603999740617529.0,2943371403029593.5,331190576680758.75,469340249126063.2,235785452854.6538,659077013233.3298,16756556487323.996,521189417651832.3
0.30604000000000003,1825562114936163.2,3976789291392555.0,376938322406750.1,534170777955929.9,542058476645.4671,1515210737883.8684,38527213262280.5,1199533593616901.0
0.41216080000000005,1966888161992995.5,4973744420608581.0,406119035437016.6,575523658307487.0,884791806444.7925,2473290719267.3223,62891279964850.33,1958964202380524.8
0.5204040160000001,2064996484098732.5,5959844822760626.0,426376241086031.9,604230763800107.8,1250990424985.0303,3496996031609.722,88924767075007.7,2770568580244158.0
0.6308120963200001,2136995171110086.0,6946688995959488.0,441242382726741.8,625298027826195.5,1634543942611.8098,4569249364893.922,116193248433384.19,3620756372555581.5
0.7434283382464002,2191986703319975.2,7940529412017466.0,452596921852446.1,641388892647333.0,2032237523934.802,5681066974632.829,144468183497094.22,4502375406202051.0
0.8582969050113283,2235283609922389.5,8945165510684521.0,461536778613718.9,654057837298340.9,2442261028079.132,6827391531710.215,173620912474478.3,5411396719815794.0
0.9754628431115548,2270200230974303.5,9963126722881324.0,468746291160138.7,664274658267826.5,2863554896070.571,8005263795465.614,203576148240195.9,6345460575547327.0
1.094972099973786,2298912210645575.0,1.0996226303737914e+16,474674682046373.06,672675962558612.1,3295490454954.88,9212929025575.646,234289245543824.7,7303165783462988.0
1.2168715419732616,2322906546713041.5,1.2045847230282782e+16,479628983529974.4,679696854962930.1,3737700765800.6387,10449364183841.36,265734173905334.6,8283693606221867.0
1.3412089728127268,2343233611330934.0,1.3113101194770548e+16,483826074303901.56,685644680904048.5,4189985444141.674,11714011898842.67,297896750010827.75,9286596080877838.0
1.4680331522689813,2360656031310664.0,1.4198922390448886e+16,487423419991793.0,690742589730314.5,4652254387914.784,13006623182448.322,330770636515190.1,1.0311670835330532e+16
1.597393815314361,2375740577945046.0,1.5304125553831152e+16,490538046370702.56,695156422248239.8,5124493124003.554,14327160573504.873,364354878011157.0,1.1358883975558506e+16
1.729341691620648,2388917001105855.0,1.6429443353664152e+16,493258687315104.4,699011925944824.4,5606740725304.136,15675736418127.473,398652330835440.3,1.2428320931319494e+16
1.863928525453061,2400516894096913.0,1.757555131056786e+16,495653809532184.8,702406127084974.6,6099075323137.199,17052572380316.264,433668632964286.25,1.352015419918603e+16
2.001207095962122,2410800068944199.0,1.874308490339348e+16,497777058477753.56,705415048285276.0,6601604362611.956,18457972210073.707,469411511181827.6,1.4634621639931756e+16
2.1412312378813647,2419972882285534.0,1.9932651621152924e+16,499671042248442.0,708099070783201.1,7114457905816.172,19892303030916.0,505890304988417.7,1.5772011559910604e+16
2.284055862638992,2428201235580034.0,2.114483965348785e+16,501370015838337.56,710506738379206.0,7637783943487.233,21355982241669.023,543115633344254.0,1.6932652264160874e+16
2.4297369798917723,2435619969137318.0,2.238022429075146e+16,502901820798911.3,712677506188085.8,8171745060159.592,22849468201723.195,581099157671914.2,1.8116904623693324e+16
2.578331719489608,2442339763416762.0,2.363937272975841e+16,504289310205172.0,714643760002054.2,8716516029819.231,24373253517494.562,619853411040567.2,1.9325156715546532e+16
2.7298983538794,2448452285107507.5,2.4922847748447716e+16,505551411207732.4,716432322065770.9,9272282062921.459,25927860149852.57,659391673681667.4,2.055781991417224e+16
2.884496320956988,2454034076514614.5,2.6231210564389424e+16,506703928105305.56,718065589134913.8,9839237516903.938,27513835817404.875,699727881476486.0,2.1815326015823784e+16
3.0421862473761276,2459149531471093.5,2.7565023095377556e+16,507760156804940.4,719562403246579.2,10417584941497.168,29131751335919.023,740876558263424.1,2.309812510931412e+16
3.2030299723236504,2463853198040656.5,2.892484977598744e+16,508731360279364.94,720938725504419.6,11007534369236.87,30782198643460.08,782852765593729.0,2.440668399355657e+16
3.3670905717701234,2468191578779215.0,3.0311259040319516e+16,509627140281305.75,722208162846375.6,11609302787881.043,32465789334329.26,825672065434375.9,2.5741485000856044e+16
3.5344323832055258,2472204551630448.5,3.172482455102613e+16,510455730727099.06,723382383807561.5,12223113749406.475,34183153575126.023,869350492594973.0,2.710302512494153e+16
3.7051210308696363,2475926501301204.5,3.316612623360144e+16,511224231300768.25,724471449567755.1,12849197082724.123,35934939311096.28,913904534541983.5,2.8491815380495908e+16
3.879223451487029,2479387227485008.5,3.4635751159898868e+16,511938794982155.7,725484079703256.0,13487788686015.74,37721811695424.18,959351116886803.5,2.9908380340460184e+16
4.0568079205167695,2482612679499342.0,3.6134294314021144e+16,512604779733326.9,726427867146320.4,14139130380832.857,39544452691564.055,1005707593277900.0,3.1353257811291856e+16
4.237944078927105,2485625554732337.0,3.766235926583483e+16,513226872064622.94,727309453294401.9,14803469814592.592,41403560811269.28,1052991738746814.1,3.282699861637082e+16
4.422702960505647,2488445789381477.0,3.922055877153807e+16,513809188361381.5,728134671603350.2,15481060401376.656,43299850960120.375,1101221745790569.0,3.4330166465039824e+16
4.61115701971576,2491090963371074.0,4.080951531636934e+16,514355358490468.06,728908666068783.1,16172161293346.469,45234054369084.48,1150416222644167.2,3.5863337890132436e+16
4.803380160110075,2493576636406932.5,4.24298616112749e+16,514868595188160.56,729635989557784.5,16877037376874.318,47206918595630.59,1200594193324028.0,3.742710224082547e+16
4.9994477633122765,2495916628410689.0,4.408224105286904e+16,515351751963658.2,730320685865735.9,17595959288829.293,49219207581670.9,1251775099118387.5,3.902206172064009e+16
5.199436718578522,2498123254750348.5,4.576730815411733e+16,515807371668997.8,730966358546237.5,18329203449468.52,51271701758425.07,1303978801272753.2,4.064883146267103e+16
5.403425452950093,2500207524517406.0,4.748572895169991e+16,516237727438908.4,731576228928227.4,19077052109153.23,53365198190457.86,1357225584673140.5,4.230803963584266e+16
5.611493962009095,2502179308427773.0,4.923818139487072e+16,516644857358659.3,732153185244845.1,19839793406701.414,55500510752792.914,1411536162372059.5,4.4000327577307896e+16
5.823723841249277,2504047481622367.0,5.1025355719724536e+16,517030593949226.44,732699824417777.5,20617721437644.43,57678470336281.51,1466931680834518.2,4.572634994712678e+16
6.040198318074262,2505820045623785.0,5.2847954812081416e+16,517396589348658.3,733218487742529.8,21411136331009.29,59899925077398.914,1523433725806733.5,4.748677490215134e+16
6.261002284435747,2507504232902191.0,5.470669456162886e+16,517744336902627.94,733711291485067.1,22220344333527.598,62165740609417.66,1581064328729880.0,4.928228428666623e+16
6.486222330124463,2509106596866578.0,5.660230420951769e+16,518075189745647.5,734180153213817.5,23045657900389.71,64476800332519.45,1639845973636945.0,5.111357383782186e+16
6.715946776726952,2510633089589464.5,5.8535526691240984e+16,518390376849496.4,734626814542396.0,23887395791835.742,66834005700892.92,1699801604482968.2,5.298135340428399e+16
6.950265712261491,2512089129165636.0,6.0507118976337944e+16,518691016931330.7,735052860839209.2,24745883175013.84,69238276525250.53,1760954632868872.8,5.488634717683267e+16
7.18927102650672,2513479658277340.5,6.251785240622442e+16,518978130546087.5,735459738363974.1,25621451730646.27,71690551289507.92,1823328946126924.2,5.682929392988994e+16
7.433056447036854,2514809195271960.0,6.4568513031259384e+16,519252650632912.75,735848769213384.8,26514439764131.84,74191787480617.73,1886948915742247.8,5.8810947273154104e+16
7.681717575977592,2516081878842073.5,6.665990194799853e+16,519515431740602.1,736221164394757.4,27425192320786.13,76742961930753.6,1951839406089921.8,6.083207591267967e+16
7.935351927497144,2517301507220361.5,6.8792835637456456e+16,519767258120486.6,736578035294725.2,28354061304978.6,79345071171200.3,2018025783471408.2,6.289346392087333e+16
8.194058966047088,2518471572656648.5,7.0968146305088424e+16,520008850845182.94,736920403767424.0,29301405602974.008,81999131797447.38,2085533925437442.0,6.499591101498133e+16
8.45794014536803,2519595291824446.5,7.318668222311874e+16,520240874086872.06,737249211031634.6,30267591209322.914,84706180845083.89,2154390230387354.8,6.714023284373398e+16
8.72709894827539,2520675632704978.5,7.544930807576174e+16,520463940668260.25,737565325537222.6,31252991356680.99,87467276176194.56,2224621627437114.2,6.932726128188127e+16
9.0016409272409,2521715338414260.5,7.775690530782706e+16,520678616982344.3,737869549937091.4,32257986648960.094,90283496876023.11,2296255586550296.0,7.155784473241812e+16
9.281673745785717,2522716948370067.5,8.011037247714253e+16,520885427362922.44,738162627280758.6,33282965197738.996,93155943659737.64,2369320128927764.5,7.383284843634352e+16
9.567307220701432,2523682817137768.0,8.251062561118824e+16,521084857975848.44,738445246528782.0,34328322761878.008,96085739289185.4,2443843837653331.5,7.615315478984133e+16
9.85865336511546,2524615131245950.0,8.495859856829998e+16,521277360291081.56,738718047473097.9,35394462890298.53,99074028999564.31,2519855868593580.0,7.851966366880632e+16
10.155826432417769,2525515924221699.5,8.745524340376426e+16,521463354187146.25,738981625136456.2,36481797067900.77,102121980935983.12,2597385961551160.5,8.093329276066394e+16
10.458942961066125,2526387090061145.0,9.00015307411078e+16,521643230732498.1,739236533713966.9,37590744864603.08,105230786599910.03,2676464451671765.0,8.339497790346394e+16
10.768121820287448,2527230395321536.5,9.259845014885749e+16,521817354682270.25,739483290111330.2,38721734087498.03,108401661305535.05,2757122281105375.0,8.590567343224403e+16
11.083484256693197,2528047489996269.0,9.524701052303094e+16,521986066723736.4,739722377126938.0,39875200936124.945,111635844646103.36,2839391010923368.0,8.846635253267848e+16
11.405153941827061,2528839917313292.0,9.794824047560219e+16,522149685499450.2,739954246318940.2,41051590160868.88,114934600970288.23,2923302833293321.0,9.107800760204594e+16
11.733257020663602,2529609122578824.0,1.0070318872917091e+17,522308509433293.3,740179320592979.8,42251355224497.086,118299219868696.86,3008890583913994.5,9.374165061755869e+16
12.067922161076874,2530356461173224.5,1.0351292451805778e+17,522462818381435.1,740397996541826.5,43474958466855.72,121731016670614.7,3096187754713202.5,9.64583135121106e+16
12.409280604298411,2531083205792117.0,1.063785379960325e+17,522612875127472.8,740610646564181.8,44722871272745.945,125231332951108.92,3185228506811882.0,9.922904855751323e+16
12.75746621638438,2531790553014672.5,1.0930114065088016e+17,522758926738630.06,740817620786598.9,45995574243009.33,128801537048626.83,3276047683757695.0,1.0205492875529107e+17
13.112615540712067,2532479629270785.0,1.122818657259977e+17,522901205797853.25,741019248809509.1,47293557368850.46,132443024593231.67,3368680825032172.5,1.049370482351253e+17
13.474867851526309,2533151496270445.0,1.1532186864921392e+17,523039931524855.94,741215841295902.4,48617320209431.9,136157219045631.39,3463164179835223.0,1.0787652266103253e+17
13.844365208556836,2533807155951078.5,1.184223274690161e+17,523175310797634.06,741407691418933.9,49967372072774.58,139945572247168.33,3559534721151523.5,1.1087448964537706e+17
14.221252512727972,2534447554992121.0,1.215844432983641e+17,523307539084620.9,741595076182924.5,51344232200002.59,143809564980936.94,3657830160103192.0,1.1393210917082021e+17
14.605677562982532,2535073588940419.5,1.2480944076627278e+17,523436801296507.4,741778257630493.6,52748429952972.836,147750707544220.3,3758088960593563.5,1.170505640203147e+17
14.997791114242183,2535686105985329.0,1.2809856847733621e+17,523563272565699.75,741957483947148.6,54180505005328.195,151770540332422.88,3860350354246965.0,1.2023106021525325e+17
15.397746936527026,2536285910417702.5,1.3145309947936738e+17,523687118960530.0,742132990473420.0,55641007537019.484,155870634434708.38,3964654355649649.5,1.2347482746189442e+17
15.805701875257567,2536873765803441.0,1.3487433173932795e+17,523808498140527.9,742305000633472.6,57130498432339.92,160052592241535.22,4071041777897203.5,1.267831196061795e+17
16.221815912762718,2537450397898952.5,1.3836358862771502e+17,523927559958397.44,742473726788168.9,58649549481515.91,164318048064307.44,4179554248453921.0,1.3015721509706997e+17
16.64625223101797,2538016497332789.5,1.4192221941157984e+17,524044447013710.94,742639371019742.4,60198743585903.07,168668668767351.8,4290234225329727.5,1.3359841745853061e+17
17.079177275638333,2538572722075264.5,1.455515997563429e+17,524159295162836.1,742802125854425.5,61778674966833.19,173106154412444.12,4403125013580569.5,1.3710805577029062e+17
17.5207608211511,2539119699715588.0,1.4925313223657923e+17,524272233989112.56,742962174928742.6,63389949378161.266,177632238916117.75,4518270782138163.0,1.4068748515751344e+17
17.97117603757412,2539658029563973.0,1.530282468559407e+17,524383387236889.9,743119693604610.2,65033184322561.59,182248690719978.25,4635716580975262.0,1.44338087289517e+17
18.430599558325603,2540188284594455.5,1.5687840157638266e+17,524492873212677.9,743274849537816.0,66709009271622.78,186957313474275.5,4755508358612703.0,1.48061270887679e+17
18.899211549492115,2540711013242548.0,1.608050828568718e+17,524600805156323.94,743427803204024.2,68418065889792.39,191759946734968.75,4877692979974657.0,1.5185847224266986e+17
19.37719578048196,2541226741070515.0,1.648098062017363e+17,524707291584848.56,743578708386032.4,70161008262221.67,196658466674543.06,5002318244598687.0,1.5573115574115917e+17
19.864739696091597,2541735972311597.0,1.6889411671883174e+17,524812436611301.94,743727712625643.6,71938503126561.98,201654786806824.44,5129432905207341.0,1.5968081440214237e+17
20.36203449001343,2542239191303752.5,1.7305958968770102e+17,524916340240800.25,743874957643173.0,73751230108766.22,206750858726068.38,5259086686648099.0,1.6370897042303043e+17
20.869275179813698,2542736863822184.0,1.773078311378883e+17,525019098645652.9,744020579727353.1,75599881962944.95,211948672860574.72,5391330305208706.0,1.678171757356607e+17
21.38666068340997,2543229438319101.5,1.816404784375884e+17,525120804421359.06,744164710098106.4,77485164815331.64,217250259241114.6,5526215488315259.0,1.7200701257237792e+17
21.91439389707817,2543717347078518.0,1.860592008928029e+17,525221546825040.7,744307475244438.0,79407798412410.11,222657688284439.44,5663794994619991.0,1.7628009404233805e+17
22.452681775019734,2544201007293030.5,1.9056570035717626e+17,525321411997769.3,744448997239504.5,81368516373254.98,228173071592159.06,5804122634486610.0,1.806380647181939e+17
23.00173541052013,2544680822068812.0,1.951617118526882e+17,525420483172088.56,744589394034695.8,83368066446141.12,233798562765280.1,5947253290880612.0,1.8508260123332042e+17
23.561770118730532,2545157181364824.5,1.9984900420137923e+17,525518840865925.8,744728779734438.0,85407210769472.62,239536358234697.72,6093242940672357.0,1.8961541288973786e+17
24.133005521105144,2545630462871250.5,2.0462938066828845e+17,525616563063980.3,744867264853238.5,87486726137086.03,245388698107940.94,6242148676360937.0,1.942382422768939e+17
24.715665631527248,2546101032832134.0,2.0950467961577456e+17,525713725387573.06,745004956556392.4,89607404267979.9,251357867032482.9,6394028728226878.0,1.989528659014712e+17
25.309978944157795,2546569246816462.0,2.144767751694123e+17,525810401253864.9,745141958885603.9,91770052080525.19,257446195075921.84,6548942486921840.0,2.0376109482837805e+17
25.91617852304095,2547035450441815.0,2.195475778956312e+17,525906662025266.06,745278372970739.4,93975491971207.77,263656058623356.28,6706950526503938.0,2.086647753330951e+17
26.53450209350177,2547499980054100.0,2.247190354912879e+17,526002577149791.6,745414297228707.4,96224562097955.11,269989881292278.8,6868114627927027.0,2.1366578956553802e+17
27.165192135371807,2547963163366805.0,2.299931334853483e+17,526098214293054.7,745549827550523.1,98518116668102.06,276450134865311.3,7032497802992878.0,2.1876605622561165e+17
27.808495978079243,2548425320062836.5,2.3537189595286688e+17,526193639462529.25,745685057477396.5,100857026231045.03,283039340241128.75,7200164318774994.0,2.2396753125061706e+17
28.464665897640828,2548886762361680.5,2.4085738624144438e+17,526288917124655.56,745820078366702.2,103242177975636.62,289760068403905.6,7371179722523275.0,2.292722085146884e+17
29.133959215593645,2549347795554559.0,2.4645170771034886e+17,526384110315342.8,745954979548555.6,105674476032372.39,296614941411637.2,7545610867058730.0,2.3468212054042784e+17
29.816638399905518,2549808718509898.5,2.521570044824883e+17,526479280744332.3,746089848473719.9,108154841780419.33,303606633403685.06,7723525936667551.0,2.4019933922290893e+17
30.51297116790363,2550269824151288.0,2.5797546220941834e+17,526574488893887.1,746224770853465.0,110684214159535.66,310737871627922.94,7904994473504343.0,2.4582597656622752e+17
31.223230591261704,2550731399909977.0,2.6390930884957155e+17,526669794112225.7,746359830791969.9,113263549986931.53,318011437487823.56,8090087404514188.0,2.5156418543276845e+17
31.947695203086937,2551193728153730.5,2.6996081545990022e+17,526765254702067.4,746495110911801.0,115893824279118.25,325430167609888.25,8278877068883377.0,2.5741616030536054e+17
32.686649107148675,2551657086593777.5,2.7613229700111434e+17,526860928004658.44,746630692472996.0,118576030578792.56,332996954931785.3,8471437246029170.0,2.633841380625033e+17
33.44038208929165,2552121748671402.5,2.8242611315670755e+17,526956870479595.2,746766655486177.5,121311181286803.95,340714749811582.94,8667843184138874.0,2.6947039876683325e+17
34.20918973107749,2552587983925633.5,2.888446691659582e+17,527053137780747.06,746903078820145.9,124100307999247.38,348586561158473.44,8868171629268470.0,2.75677266467005e+17
34.993373525699035,2553056058343440.0,2.953904166710921e+17,527149784828558.0,747040040304345.9,126944461849728.3,356615457585396.94,9072500855012000.0,2.8200711001316864e+17
35.793240996213015,2553526234693600.0,3.020658545788035e+17,527246865878990.0,747177616826558.0,129844713856839.5,364804568583957.25,9280910692752138.0,2.8846234388621146e+17
36.60910581613728,2553998772845457.5,3.088735299363086e+17,527344434589333.44,747315884426172.6,132802155276893.19,373157085722051.5,9493482562503342.0,2.950454290409453e+17
37.44128793246003,2554473930073626.0,3.1581603882213466e+17,527442544081121.8,747454918383340.0,135817897961947.52,381676263864644.3,9710299504358796.0,3.017588737634114e+17
38.29011369110923,2554951961349588.0,3.228960272518271e+17,527541247000349.9,747594793304307.0,138893074723163.03,390365422418090.94,9931446210552690.0,3.086052345424784e+17
39.15591596493141,2555433119621245.5,3.3011619209875565e+17,527640595575177.75,747735583203201.2,142028839699529.75,399227946598476.6,1.0157009058149366e+16,3.155871169559084e+17
40.03903428423004,2555917656081080.0,3.3747928203021997e+17,527740641671319.4,747877361580507.8,145226368731994.8,408267288724381.5,1.0387076142371736e+16,3.227071765710594e+17
40.93981496991464,2556405820423961.5,3.449880984590322e+17,527841436845259.75,748020201498499.6,148486859743026.16,417486969534550.7,1.0621737310580386e+16,3.2996811986040634e+17
41.85861126931294,2556897861095141.0,3.5264549651075494e+17,527943032395463.44,748164175653799.4,151811533121638.38,426890579530911.6,1.0861084196916396e+16,3.3737270513204115e+17
42.7957834946992,2557394025529234.5,3.60454386006798e+17,528045479411727.44,748309356447318.2,155201632113914.88,436481780347400.06,1.110521025762018e+16,3.449237434753285e+17
