t(s),Total solute volume 1,Total retention volume 1,Total 1 volume 1,Total 2 volume 1,Total 3 volume 1,Total 4 volume 1,Total 5 volume 1,Total 6 volume 1
0.1,1117071271046687.6,1512117690109863.2,171218609237430.47,223827809825744.56,0.0,0.0,0.0,0.0
0.202,1681939874948610.2,2277015334364757.0,257798598485049.38,337010662286801.94,177613338.12719548,438502022.2011969,9260921089.798164,256321607840.92474
0.30604000000000003,2112309682307730.2,2859992455526014.5,323763342626361.06,423243956282915.3,450575728.3697919,1112408295.0942545,23494099045.90541,650417225937.9327
0.41216080000000005,2476306751828599.0,3353239549057362.5,379554834303448.2,496178129603947.06,800267240.1204721,1975748364.1919253,41728335104.854904,1155328970656.67
0.5204040160000001,2799511797318415.5,3791371397613203.5,429093946310294.4,560938795922037.2,1218413835.1893268,3008094719.6701903,63532148237.5492,1759099405668.4253
0.6308120963200001,3094677055135196.5,4191643333141241.5,474335272114675.8,620081123744119.9,1700572321.0378985,4198477720.0127654,88673838852.43152,2455309258352.9946
0.7434283382464002,3369215916301804.0,4564086635956617.0,516415095989085.0,675090535896140.0,2244197881.8805923,5540614565.128566,117020703563.50436,3240282253578.778
0.8582969050113283,3627877972351455.5,4915128404635739.0,556061409500854.25,726918709093922.8,2847849904.2839527,7030948582.967752,148497619467.89038,4111937271560.1475
0.9754628431115548,3873918019203848.0,5249173384806452.0,593773090072149.1,776217807519606.1,3510800630.879251,8667683047.398067,183066636316.42953,5069222890859.867
1.094972099973786,4109679670174320.0,5569393648665027.0,629909354009426.8,823457421492990.9,4232818408.3863196,10450246046.596912,220715673569.14304,6111804250255.521
1.2168715419732616,4336915800886468.0,5878162168147976.0,664738872557557.1,868988775090922.4,5014037426.192199,12378968885.160212,261451727731.29825,7239874878985.174
1.3412089728127268,4556977566992663.0,6177308553094966.0,698468743508383.9,913082599670318.8,5854874594.880803,14454880868.454065,305296537895.776,8454036630247.596
1.4680331522689813,4770932324988282.0,6468278590878508.0,731262565462016.9,955952761688048.9,6755974036.788059,16679572257.351109,352283691156.94366,9755219502710.89
1.597393815314361,4979640591710495.0,6752238364635057.0,763252233760375.5,997771683092837.6,7718168690.17001,19055099474.172577,402456620434.77936,11144626182758.545
1.729341691620648,5183808169484720.0,7030144771258603.0,794545929946240.0,1038680785652455.2,8742453015.537518,21583917718.381096,455867181232.47766,12623692623230.309
1.863928525453061,5384022565390983.0,7302794790431047.0,825233703910368.0,1078797788290191.2,9829963181.681679,24268832048.61921,512574618428.5954,14194059425837.803
2.001207095962122,5580779118486500.0,7570860829685129.0,855391478530124.6,1118221942202225.1,10981962454.383068,27112961309.47084,572644804366.6705,15857550738153.459
2.1412312378813647,5774500174927648.0,7834916664372189.0,885083988727923.4,1157037872981083.5,12199830304.810724,30119711241.633736,636149670910.1342,17616158523077.207
2.284055862638992,5965549442323665.0,8095456856107750.0,914366981628503.6,1195318456800650.2,13485054242.069115,33292754317.64537,703166783549.2197,19472030762818.285
2.4297369798917723,6154242923842328.0,8352911544473542.0,943288892479201.1,1233127011285346.8,14839223683.9111,36636014609.56616,773779021788.8533,21427462606579.5
2.578331719489608,6340857376284222.0,8607657889384167.0,971892141057587.8,1270518990256335.2,16264025382.079935,40153656494.83272,848074340603.1998,23484889763546.53
2.7298983538794,6525636943298720.0,8860029045054152.0,1000214148374738.8,1307543312830474.8,17761240054.587105,43850076341.87439,926145594826.2378,25646883639003.17
2.884496320956988,6708798421967576.0,9110321285458760.0,1028288143908546.1,1344243418686840.5,19332739970.4848,47729896547.312325,1008090413210.4182,27916147846078.234
3.0421862473761276,6890535491085193.0,9358799725445892.0,1056143813691509.1,1380658115288177.8,20980487298.012203,51797961457.82707,1094011112291.6241,30295515819981.05
3.2030299723236504,7071022140251237.0,9605702960963010.0,1083807825903430.4,1416822264968929.8,22706533073.59209,56059334824.82572,1184014642628.5168,32787949328881.27
3.3670905717701234,7250415476506702.0,9851246867466876.0,1111304261057299.1,1452767347301551.0,24513016682.941284,60519298523.450745,1278212561746.1816,35396537724388.12
3.5344323832055258,7428858040900146.0,1.0095627735595514e+16,1138654967069995.2,1488521923267362.5,26402165770.427692,65183352328.87603,1376721029410.7683,38124497810504.914
3.7051210308696363,7606479735378439.0,1.0339024879901822e+16,1165879854605611.8,1524112021348111.8,28376296511.358063,70057214588.63263,1479660821829.263,40975174236726.86
3.879223451487029,7783399436996329.0,1.0581602824795692e+16,1192997144492721.5,1559561460965471.0,30437814195.897846,75146823664.31696,1587157362099.4197,43952040341193.74
4.0568079205167695,7959726359109617.0,1.0823513148398114e+16,1220023576360669.5,1594892125223624.0,32589214084.034046,80458340042.47047,1699340764793.278,47058699385278.49
4.237944078927105,8135561206232399.0,1.1064896047447958e+16,1246974585649815.5,1630124192308283.0,34833082499.26296,85998149034.84499,1816345892989.136,50298886132938.586
4.422702960505647,8310997159406564.0,1.1305881673101522e+16,1273864454643602.2,1665276332925352.2,37172098135.13941,91772864004.19757,1938312426403.2375,53676468737475.94
4.61115701971576,8486120721410982.0,1.1546591277293166e+16,1300706442017624.8,1700365879655720.5,39609033553.90283,97789330064.30318,2065384939537.445,57195450905690.45
4.803380160110075,8661012445332717.0,1.1787138201472314e+16,1327512894511082.0,1735408972939222.5,42146756860.43182,104054628212.83408,2197712988969.4856,60859974315237.34
4.9994477633122765,8835747565503132.0,1.2027628733419906e+16,1354295343633204.0,1770420687495424.5,44788233538.008766,110576079863.73549,2335451209080.9985,64674321265668.58
5.199436718578522,9010396546252972.0,1.2268162853047522e+16,1381064589773472.2,1805415142277828.2,47536528434.98962,117361251752.16498,2478759415654.4717,68642917547402.99
5.403425452950093,9185025561135792.0,1.2508834884288048e+16,1407830775654370.5,1840405596495967.5,50394807893.586426,124417961190.30307,2627802716881.0234,72770335515938.02
5.611493962009095,9359696913033582.0,1.2749734067164748e+16,1434603450722893.2,1875404533792057.0,53366342013.72029,131754281656.63669,2782751631411.3433,77061297361124.12
5.823723841249277,9534469403767018.0,1.2990945061701594e+16,1461391627802377.5,1910423736299892.0,56454507046.32512,139378548704.84695,2943782213157.1772,81520678563387.9
6.040198318074262,9709398660386824.0,1.323254839338259e+16,1488203833104702.2,1945474350023894.5,59662787911.68176,147299366181.38815,3111076182612.5684,86153511530527.28
6.261002284435747,9884537424148960.0,1.34746208482812e+16,1515048150522826.2,1980566942741196.5,62994780839.35426,155525612743.2953,3284821064516.2793,90964989410116.83
6.486222330124463,1.0059935807219664e+16,1.3717235824684662e+16,1541932260977099.0,2015711555437593.0,66454196127.14043,164066448669.82468,3465210331720.369,95960470073798.58
6.715946776726952,1.0235641521367976e+16,1.3960463646976752e+16,1568863477468061.0,2050917748130806.2,70044861017.15839,172931322963.30566,3652443555167.0474,101145480270736.06
6.950265712261491,1.0411700082258172e+16,1.4204371846663702e+16,1595848776389257.5,2086194640804528.2,73770722687.80054,182129980736.0511,3846726559907.586,106525719948404.69
7.18927102650672,1.05881549924144e+16,1.4449025414703614e+16,1622894825571047.8,2121550950069148.0,77635851360.79932,191672470881.48465,4048271587124.05,112107066739630.5
7.433056447036854,1.0765047905484908e+16,1.4694487028693576e+16,1650008009458155.5,2156995022075367.0,81644443523.11087,201569154028.737,4257297462138.333,117895580615447.27
7.681717575977592,1.0942418774057502e+16,1.494081725796395e+16,1677194451766010.2,2192534862132051.8,85800825263.70163,211830710780.94342,4474029768413.175,123897508703899.64
7.935351927497144,1.1120305982965358e+16,1.5188074749204108e+16,1704460035913129.0,2228178161416701.5,90109455725.67735,222468150238.3084,4698701027567.851,130119290275425.33
8.194058966047088,1.1298746469756278e+16,1.543631639488704e+16,1731810423486007.0,2263932321113963.5,94574930674.48619,233492818807.7579,4931550885446.908,136567561895877.14
8.45794014536803,1.1477775833776174e+16,1.5685597486456072e+16,1759251070958828.5,2299804474272640.0,99201986183.206,244916409301.6683,5172826304294.464,143249162748639.5
8.72709894827539,1.165742843512578e+16,1.5935971853981984e+16,1786787244860998.2,2335801505633718.5,103995502436.15666,256750970328.73822,5422781761099.003,150171140127636.44
9.0016409272409,1.1837737484588598e+16,1.618749199377789e+16,1814424035560848.2,2371930069649259.0,108960507652.30313,269008915980.61826,5681679452184.851,157340755103347.56
9.281673745785717,1.2018735125489742e+16,1.6440209185272964e+16,1842166369812483.2,2408196606884421.0,114102182130.10313,281703035818.3887,5949789504136.904,164765488364216.6
9.567307220701432,1.220045250832533e+16,1.6694173598285792e+16,1870019022194575.2,2444607358971036.5,119425862415.63823,294846505163.42114,6227390191154.028,172453046236120.44
9.85865336511546,1.2382919858901356e+16,1.6949434391699218e+16,1897986625554319.5,2481168382260528.5,124937045596.02756,308452895697.5575,6514768158936.036,180411366882769.66
10.155826432417769,1.2566166540631732e+16,1.720603980442006e+16,1926073680556158.5,2517885560306665.0,130641393720.2728,322536186377.92737,6812218655215.805,188648626690164.06
10.458942961066125,1.2750221111569416e+16,1.7464037239403906e+16,1954284564423166.0,2554764615292857.0,136544738349.83337,337110774672.0601,7120045767056.587,197173246838408.28
10.768121820287448,1.2935111376678072e+16,1.7723473341435696e+16,1982623538949002.2,2591811118505835.5,142653085241.3493,352191488119.27155,7438562665040.752,205993900064388.72
11.083484256693197,1.3120864435794546e+16,1.7984394069278652e+16,2011094757849312.5,2629030499945938.0,148972619164.065,367793596224.6316,7768091854482.848,215119517618996.88
11.405153941827061,1.3307506727681542e+16,1.8246844762737456e+16,2039702273513892.8,2666428057153907.0,155509708854.62085,383932822692.08563,8108965433806.13,224559296422750.44
11.733257020663602,1.3495064070526702e+16,1.8510870205120748e+16,2068450043214166.2,2704008963325735.5,162270912111.97836,400625358003.592,8461525360227.24,234322706423814.8
12.067922161076874,1.3683561699205286e+16,1.8776514681537868e+16,2097341934814621.2,2741778274779009.5,169262981035.38077,417887872351.38104,8826123722899.57,244419498162609.34
12.409280604298411,1.3873024299590556e+16,1.904382203341712e+16,2126381732031683.5,2779740937827612.0,176492867408.31854,435737528930.7359,9203123023670.982,254859710547286.66
12.75746621638438,1.4063476040164846e+16,1.9312835709595516e+16,2155573139278925.8,2817901795115762.0,183967728231.59006,454191997600.87964,9592896465616.521,265653678844562.25
13.112615540712067,1.4254940601160376e+16,1.958359881429111e+16,2184919786133594.0,2856265591456825.5,191694931408.63577,473269468921.8302,9995828249512.236,276812042890469.56
13.474867851526309,1.4447441201432926e+16,1.9856154152241064e+16,2214425231455659.5,2894836979218132.5,199682061586.41428,492988668575.29974,10412313878420.227,288345755525777.7
13.844365208556836,1.4641000623253424e+16,2.013054427125929e+16,2244092967187747.8,2933620523288372.0,207936926155.18265,513368872177.93036,10842760470560.559,300266091260909.5
14.221252512727972,1.4835641235182704e+16,2.0406811502442936e+16,2273926421861243.5,2972620705661077.5,216467561410.61908,534429920495.3681,11287587080649.367,312584655175354.06
14.605677562982532,1.5031385013179186e+16,2.0684997998235256e+16,2303928963831583.5,3011841929663926.0,225282238881.82812,556192235065.9038,11747225029887.602,325313392056667.0
14.997791114242183,1.5228253560074854e+16,2.096514576853449e+16,2334103904263373.0,3051288523861177.5,234389471828.83572,578676834242.5992,12222118244788.703,338464595784267.7
15.397746936527026,1.5426268123541256e+16,2.1247296715019052e+16,2364454499884223.0,3090964745653549.0,243798021913.26926,601905349663.0139,12712723605037.756,352050918963399.25
15.805701875257567,1.5625449612657578e+16,2.153149266384398e+16,2394983955524083.5,3130874784597884.0,253516906045.99707,625900043155.8564,13219511300579.342,366085382814666.2
16.221815912762718,1.5825818613179782e+16,2.1817775396852644e+16,2425695426455733.5,3171022765466718.5,263555403415.57547,650683824094.077,13742965198134.371,380581387324742.6
16.64625223101797,1.6027395401603748e+16,2.210618668143115e+16,2456592020550200.5,3211412751066069.5,273923062701.4327,676280267204.0658,14283583217351.2,395552721663912.56
17.079177275638333,1.6230199958104248e+16,2.239676829912568e+16,2487676800260051.0,3252048744828026.0,284629709475.79004,702713630840.884,14841877716799.492,411013574876215.6
17.5207608211511,1.6434251978426298e+16,2.26895620731294e+16,2518952784442008.5,3292934693193422.5,295685453798.3959,730008875739.5576,15418375890019.28,426978546848102.9
17.97117603757412,1.6639570884797308e+16,2.2984609894740856e+16,2550422950029489.5,3334074487798326.0,307100698008.21576,758191684252.6683,16013620171841.623,443462659561582.4
18.430599558325603,1.6846175835923194e+16,2.328195374888287e+16,2582090233564788.5,3375471967476937.5,318886144716.2956,787288480084.6816,16628168655200.84,460481368637939.2
18.899211549492115,1.7054085736125942e+16,2.3581635738768388e+16,2613957532599584.5,3417130920092480.0,331052805004.09064,817326448533.5693,17262595518661.686,478050575178241.6
19.37719578048196,1.7263319243675034e+16,2.3883698109789504e+16,2646027706971999.0,3459055084206621.5,343612006831.5958,848333557250.4738,17917491464888.254,496186637906905.8
19.864739696091597,1.7473894778361016e+16,2.41881832727015e+16,2678303579967388.5,3501248150596918.0,356575403659.71375,880338577528.3489,18593464170285.777,514906385624699.6
20.36203449001343,1.7685830528355184e+16,2.4495133826169452e+16,2710787939369755.5,3543713763631357.0,369954983291.3283,913371106130.6072,19291138746048.254,534227129977678.56
20.869275179813698,1.789914445639578e+16,2.4804592578737588e+16,2743483538409975.0,3586455522507829.5,383763076935.63416,947461587671.028,20011158210849.14,554166678548598.94
21.38666068340997,1.8113854305337708e+16,2.511660257027924e+16,2776393096616381.0,3629476982366192.0,398012368500.3245,982641337556.2639,20754183975415.74,574743348277481.4
21.91439389707817,1.8329977603100348e+16,2.5431207092979948e+16,2809519300573168.5,3672781655279578.5,412715904116.295,1018942565502.497,21520896339230.01,595975979218040.1
22.452681775019734,1.854753166704381e+16,2.574844971190426e+16,2842864804591154.5,3716373011131347.5,427887101899.59686,1056398399637.8564,22311994999601.7,617883948636810.0
23.00173541052013,1.87665336078034e+16,2.6068374285190692e+16,2876432231295489.0,3760254478383365.0,443539761955.3861,1095042911202.4172,23128199573363.58,640487185461870.1
23.561770118730532,1.898700033260862e+16,2.63910249839201e+16,2910224172134402.5,3804429444741030.5,459688076628.7244,1134911139857.678,23970250131439.51,663806185088124.9
24.133005521105144,1.9208948548110444e+16,2.6716446311696156e+16,2944243187812543.5,3848901257719782.5,476346641007.0807,1176039119617.5486,24838907746540.42,687862024546192.4
24.715665631527248,1.9432394762741016e+16,2.7044683123976884e+16,2978491808652622.0,3893673225117896.0,493530463679.4623,1218463905413.043,25734955054244.312,712676378042010.1
25.309978944157795,1.9657355288624644e+16,2.737578064719257e+16,3012972534888392.5,3938748615399418.5,511254977757.1471,1262223600302.8452,26659196827719.297,738271532874330.0
25.91617852304095,1.988384624306101e+16,2.7709784497683516e+16,3047687836891943.0,3984130657991371.5,529536052161.00964,1307357383342.2095,27612460566351.234,764670405737335.2
26.53450209350177,2.0111883549598104e+16,2.804674070049043e+16,3082640155338112.0,4029822543498642.0,548390003180.499,1353905538122.6292,28595597098538.684,791896559415679.8
27.165192135371807,2.0341482938710284e+16,2.8386695708025236e+16,3117831901308531.5,4075827423839991.0,567833606309.3259,1401909481994.7437,29609481198919.895,819974219879249.8
27.808495978079243,2.057265994809862e+16,2.872969641865401e+16,3153265456337553.0,4122148412308114.0,587884108362.9916,1451411795987.1897,30655012220299.188,848928293785092.2
28.464665897640828,2.0805429922626524e+16,2.9075790195215376e+16,3188943172402403.0,4168788583556762.5,608559239883.2914,1502456255434.0586,31733114740539.754,878784386393858.2
29.133959215593645,2.1039808013903916e+16,2.9425024883503064e+16,3224867371859505.0,4215750973517513.5,629877227834.9163,1555087861323.6646,32844739224692.582,909568819908285.4
29.816638399905518,2.1275809179533304e+16,2.9777448830735504e+16,3261040347328864.0,4263038579248600.5,651856808599.4006,1609352872381.479,33990862702631.85,941308652241141.5
30.51297116790363,2.1513448182028236e+16,3.0133110904036564e+16,3297464361528311.0,4310654358718212.0,674517241271.5491,1665298837900.0247,35172489462467.203,974031696220169.1
31.223230591261704,2.1752739587415296e+16,3.0492060508949024e+16,3334141647059206.0,4358601230524439.0,697878321263.5707,1722974631328.5784,36390651760005.27,1007766539237537.8
31.947695203086937,2.1993697763529764e+16,3.0854347608003452e+16,3371074406145256.5,4406882073553740.0,721960394222.1483,1782430484635.6,37646410544531.85,1042542563351313.2
32.686649107148675,2.223633687801469e+16,3.1220022739361868e+16,3408264810325775.0,4455499726580021.5,746784370263.6257,1843718023456.7046,38940856201186.21,1078389965846471.5
33.44038208929165,2.2480670896031748e+16,3.158913703555729e+16,3445715000104829.5,4504456987805936.0,772371738532.5315,1906890303041.0925,40275109310199.88,1115339780262972.0
34.20918973107749,2.2726713577692664e+16,3.1961742242347204e+16,3483427084557563.5,4553756614348231.0,798744582088.6544,1972001845009.242,41650321423271.4,1153423897898373.0
34.993373525699035,2.2974478475219068e+16,3.2337890737700484e+16,3521403140894828.5,4603401321668694.0,825925593127.8181,2039108674934.6675,43067675857345.266,1192675089792452.5
35.793240996213015,2.3223978929838604e+16,3.271763555093487e+16,3559645213987486.5,4653393782952184.0,853938088541.5452,2108268360762.4998,44528388506067.0,1233127029201238.2
36.60910581613728,2.3475228068423772e+16,3.310103038202311e+16,3598155315851218.5,4703736628433184.0,882806025820.7123,2179540052077.5708,46033708669179.46,1274814314567900.8
37.44128793246003,2.3728238799881656e+16,3.3488129621084564e+16,3636935425093118.5,4754432444672404.0,912554019308.3325,2252984520234.556,47584919900127.664,1317772492997691.8
38.29011369110923,2.3983023811299716e+16,3.387898836807792e+16,3675987486321023.0,4805483773784532.0,943207356806.46,2328664199362.7026,49183340872134.94,1362038084244325.8
39.15591596493141,2.423959556385509e+16,3.4273662452712664e+16,3715313409516413.5,4856893112618493.0,974792016542.2893,2406643228257.4653,50830326263011.8,1407648605214829.2
40.03903428423004,2.449796628849302e+16,3.4672208454593416e+16,3754915069372098.5,4908662911891654.0,1007334684498.3331,2486987493171.3306,52527267658954.36,1454642595000044.8
40.93981496991464,2.475814798138057e+16,3.50746837236136e+16,3794794304595373.0,4960795575278784.0,1040862772111.604,2569764671515.776,54275594477587.89,1503059640437663.5
41.85861126931294,2.502015239914129e+16,3.5481146400612196e+16,3834952917177599.0,5013293458457333.0,1075404434346.5833,2655044276486.4355,56076774910505.87,1552940402214665.5
42.7957834946992,2.5283991053876756e+16,3.5891655438309856e+16,3875392671631131.5,5066158868109732.0,1110988588146.7007,2742897702622.8667,57932316885549.13,1604326641515884.8
43.751699164593184,2.554967520797997e+16,3.6306270622536504e+16,3916115294194377.0,5119394060884354.0,1147644931268.9692,2833398272314.688,59843769049068.516,1657261247225155.8
