t(s),Total solute volume 1,Total retention volume 1,Total 1 volume 1,Total 2 volume 1,Total 3 volume 1,Total 4 volume 1,Total 5 volume 1,Total 6 volume 1
0.1,941999071437344.5,1111941895936827.4,80338108873842.89,89604715625638.98,0.0,0.0,0.0,0.0
0.202,1200370648755153.5,1888941069999004.5,102373251879998.61,114181505345815.38,729156932272.359,1410750206400.4639,20662300213855.727,449213456665508.25
0.30604000000000003,1325132548658259.2,2616511071010325.0,113013533278963.39,126049091317748.0,1625362559034.1821,3145489398325.375,46070891141745.32,1001474154656251.1
0.41216080000000005,1398482293929522.5,3332882516124958.5,119269144411318.86,133026256682215.86,2597797747193.787,5028683076584.393,73654849351947.5,1600823490926177.2
0.5204040160000001,1446583081464813.0,4050192327429854.5,123371405720422.1,137601693827489.36,3617491161146.282,7004377465192.91,102594728522291.56,2229419549268501.8
0.6308120963200001,1480451059230355.2,4773767572254610.0,126259826097210.61,140823279411669.06,4672571090677.219,9049682573957.516,132555343837716.84,2879955810013026.5
0.7434283382464002,1505532952227681.8,5506443515295049.0,128398927857283.7,143209116132436.34,5757471710497.554,11153903580119.758,163380125619688.38,3549011018167331.5
0.8582969050113283,1524826458460883.5,6249949707470929.0,130044368779924.95,145044350646187.72,6869384232168.838,13311679508839.152,194990627760464.9,4234862838082466.0
0.9754628431115548,1540114470605440.5,7005459020343576.0,131348202334686.75,146498575048167.72,8006854410244.633,15520271698649.797,227346814429568.72,4936623831816819.0
1.094972099973786,1552521941896293.2,7773837997903457.0,132406369822381.0,147678797000110.22,9169153813741.32,17778348291056.957,260429257691635.47,5653854129388232.0
1.2168715419732616,1562792631739024.2,8555773278313917.0,133282302541897.95,148655764291779.78,10355970453642.03,20085386185499.32,294230378587732.5,6386370844514341.0
1.3412089728127268,1571437287387926.2,9351840607295140.0,134019559420370.39,149478060160084.34,11567245162024.367,22441354808455.06,328749815706523.1,7134147284649775.0
1.4680331522689813,1578817856206381.2,1.0162544912843756e+16,134649009030657.77,150180113717215.47,12803079913242.02,24846538989799.098,363991831147734.9,7897256483838738.0
1.597393815314361,1585197738141342.0,1.0988344778851908e+16,135193115358627.12,150786980060268.9,14063683968088.408,27301434978194.09,399963787700397.4,8675838038644991.0
1.729341691620648,1590773022651981.2,1.182966803415889e+16,135668601835286.64,151317311586481.84,15349340965816.568,29806686967568.875,436675219362739.0,9470077850789004.0
1.863928525453061,1595692590955676.8,1.2686922045683538e+16,136088165750834.27,151785270156578.25,16660388137103.504,32363047067732.516,474137245238557.0,1.0280195338377064e+16
2.001207095962122,1600071444910423.5,1.35605007303974e+16,136461615004414.5,152201794963060.75,17997202797600.223,34971349360168.895,512362189737208.6,1.1106435133624544e+16
2.1412312378813647,1603999777676780.5,1.4450789465897794e+16,136796641692814.36,152575465348591.88,19360193358279.23,37632492695166.04,551363330810287.2,1.1949061564315858e+16
2.284055862638992,1607549289311631.2,1.5358168615897616e+16,137099360733994.45,152913101557118.0,20749793218201.973,40347429070223.98,591154729942255.5,1.2808354912064174e+16
2.4297369798917723,1610777674124006.5,1.6283016119508794e+16,137374692569887.05,153220191579572.12,22166456543085.902,43117155662850.98,631751115673514.9,1.3684608833355854e+16
2.578331719489608,1613731867237428.8,1.7225709433520962e+16,137626640048500.39,153501199972977.9,23610655305234.125,45942709310531.125,673167802974961.9,1.4578128558671322e+16
2.7298983538794,1616450431937935.5,1.818662701864491e+16,137858492028179.89,153759794949467.25,25082877184019.812,48825162663079.32,715420637126562.6,1.5489229622755682e+16
2.884496320956988,1618965341172048.8,1.916614949862445e+16,138072975312132.8,153999017835713.06,26583624064025.574,51765621499279.48,758525954658449.5,1.6418236964082808e+16
3.0421862473761276,1621303324791629.2,2.016466058096111e+16,138272369547801.36,154221411225386.88,28113410954991.605,54765222868055.87,802500556378736.2,1.7365484285194544e+16
3.2030299723236504,1623486900868679.2,2.118254780144775e+16,138458595182239.95,154429117079756.22,29672765213852.22,57825133822967.02,847361689102100.6,1.8331313600178188e+16
3.3670905717701234,1625535174013830.8,2.2220203136812384e+16,138633281546467.95,154623952665238.1,31262225986021.902,60946550590151.734,893127033737946.2,1.931607491827274e+16
3.5344323832055258,1627464459703264.2,2.3278023517497336e+16,138797820101004.98,154807469940546.25,32882343807756.203,64130698057561.59,939814698095755.0,2.032012602779149e+16
3.7051210308696363,1629288777174623.5,2.4356411264039364e+16,138953406472352.42,154981002441876.66,34533680328171.96,67378829505738.94,987443213240181.5,2.1343832354876372e+16
3.879223451487029,1631020241982350.0,2.5455774464459436e+16,139101073931957.39,155145702623506.4,36216808121066.45,70692226522758.16,1036031532555860.0,2.238756687872191e+16
4.0568079205167695,1632669381191086.0,2.6576527305726492e+16,139241720277388.14,155302571839581.34,37932310564750.31,74072199061580.84,1085599032910982.8,2.3451710089881056e+16
4.237944078927105,1634245388376125.2,2.771909036920263e+16,139376129579972.14,155452484600238.56,39680781773825.76,77520085609142.02,1136165517470711.8,2.4536649981792668e+16
4.422702960505647,1635756331389066.5,2.888389089765862e+16,139504989904027.0,155596208334665.16,41462826570931.16,81037253444409.3,1187751219827697.8,2.5642782068187796e+16
4.61115701971576,1637209322761310.2,3.0071363039721788e+16,139628907839671.48,155734419600196.53,43279060489434.734,84625098968404.42,1240376809201003.2,2.677050942086174e+16
4.803380160110075,1638610660333765.0,3.128194807632863e+16,139748420496389.75,155867717459280.7,45130109800222.016,88285048093362.55,1294063396516319.0,2.7920242723629308e+16
4.9994477633122765,1639965943993710.8,3.251609463276957e+16,139864005458898.77,155996634583706.28,47016611557320.14,92018556681319.92,1348832541225751.2,2.9092400339268868e+16
5.199436718578522,1641280173111826.8,3.377425887916557e+16,139976089097035.48,156121646522995.72,48939213658284.38,95827111024724.33,1404706258759408.8,3.0287408386991252e+16
5.403425452950093,1642557828292863.8,3.5056904721637696e+16,140085053537840.7,156243179480683.88,50898574916168.04,99712228363401.34,1461707028526403.8,3.1505700828520324e+16
5.611493962009095,1643802940302373.2,3.636450398598013e+16,140191242543951.84,156361616870753.66,52895365140564.64,103675457433528.47,1519857802402305.2,3.274771956128664e+16
5.823723841249277,1645019148451608.8,3.769753659529529e+16,140294966492943.58,156477304871322.72,54930265225722.664,107718379045272.78,1579182013654728.0,3.401391451755369e+16
6.040198318074262,1646209750271350.5,3.905649074277282e+16,140396506613745.77,156590557149708.75,57003967244128.4,111842606686521.81,1639703586270217.8,3.5304743768537144e+16
6.261002284435747,1647377743951861.8,4.044186306057028e+16,140496118606120.84,156701658899397.03,59117174544245.67,116049787150737.11,1701446944654251.5,3.66206736327637e+16
6.486222330124463,1648525864747367.0,4.1854158785580584e+16,140594035745409.69,156810870302902.75,61270601851341.55,120341601187428.98,1764437023683235.8,3.796217878806287e+16
6.715946776726952,1649656616322526.8,4.3293891922724664e+16,140690471555905.72,156918429513507.88,63464975370501.02,124719764174114.36,1828699279092674.8,3.932974238669542e+16
6.950265712261491,1650772297842016.2,4.476158540629623e+16,140785622121183.72,157024555232071.47,65701032891077.94,129186026808919.5,1894259698189977.2,4.072385617321107e+16
7.18927102650672,1651875027463063.0,4.6257771259788056e+16,140879668087649.28,157129448941684.06,67979523891935.07,133742175823206.48,1961144810883915.2,4.214502060469652e+16
7.433056447036854,1652966762776618.2,4.778299075455356e+16,140972776407864.6,157233296852071.97,70301209646918.125,138390034713805.22,2029381701025324.2,4.359374497313099e+16
7.681717575977592,1654049318650797.0,4.933779456759393e+16,141065101862315.0,157336271596895.7,72666863330066.03,143131464494567.16,2098998018056067.8,4.507054752960325e+16
7.935351927497144,1655124382854780.0,5.0922742938706264e+16,141156788391891.4,157438533719927.28,75077270120120.39,147968364467092.5,2170021988964890.0,4.657595561018759e+16
8.194058966047088,1656193529780126.8,5.253840582718364e+16,141247970268108.6,157540232980246.6,77533227303932.02,152902673010566.53,2242482430550563.0,4.811050576329016e+16
8.45794014536803,1657258232525858.2,5.418536306822383e+16,141338773123777.25,157641509501796.97,80035544378395.05,157936368390745.53,2316408761993701.0,4.967474387830964e+16
8.72709894827539,1658319873572141.8,5.5864204529165624e+16,141429314863306.1,157742494788686.66,82585043150563.94,163071469588176.3,2391831017739847.5,5.126922531546283e+16
9.0016409272409,1659379754232871.0,5.757553026564929e+16,141519706468861.94,157843312624334.88,85182557835623.6,168310037145811.28,2468779860697314.0,5.2894515036644456e+16
9.281673745785717,1660439103048832.8,5.9319950677772856e+16,141610052716179.62,157944079869847.2,87828935152398.23,173654174036219.25,2547286595753886.5,5.455118773719541e+16
9.567307220701432,1661499083259306.0,6.109808666629276e+16,141700452811774.34,158044907174725.7,90525034416092.38,179106026548638.47,2627383183617448.5,5.623982797846478e+16
9.85865336511546,1662560799469868.2,6.29105697889035e+16,141791000961602.66,158145899611126.1,93271727627962.64,184667785196150.6,2709102254985750.0,5.796103032105106e+16
10.155826432417769,1663625303617419.0,6.4758042416611544e+16,141881786879789.47,158247157241260.1,96069899561623.81,190341685643292.7,2792477125051458.5,5.971539945861673e+16
10.458942961066125,1664693600319343.2,6.6641157890206904e+16,141972896244828.47,158348775626217.94,98920447845690.22,196130009654441.44,2877541808348956.0,6.1503550352167416e+16
10.768121820287448,1665766651681629.2,6.8560580676820344e+16,142064411109642.1,158450846283326.38,101824283042458.22,202035086063346.2,2964331033949529.0,6.332610836469039e+16
11.083484256693197,1666845381630783.2,7.051698652654611e+16,142156410271026.16,158553457098208.28,104782328722325.11,208059291764184.4,3052880261012478.5,6.518370939604713e+16
11.405153941827061,1667930679825599.5,7.251106262909402e+16,142248969603266.38,158656692696877.22,107795521533643.16,214205052724564.44,3143225694699562.5,6.707700001801058e+16
11.733257020663602,1669023405197646.5,7.454350777043107e+16,142342162360084.4,158760634782515.2,110864811267701.81,220474845020890.1,3235404302460801.5,6.900663760934137e+16
12.067922161076874,1670124389162857.0,7.661503248935664e+16,142436059448540.2,158865362440964.47,113991160918519.38,226871195896540.12,3329453830699972.0,7.09732904907892e+16
12.409280604298411,1671234438541404.8,7.872635923395211e+16,142530729678051.38,158970952418474.4,117175546737125.69,233396684843321.9,3425412821828245.5,7.297763805990558e+16
12.75746621638438,1672354338218300.2,8.087822251783419e+16,142626239987301.53,159077479374779.47,120418958280007.47,240053944706680.16,3523320631715050.0,7.502037092555211e+16
13.112615540712067,1673484853573151.2,8.30713690761316e+16,142722655651462.38,159185016114222.88,123722398451381.67,246845662815143.75,3623217447545149.0,7.71021910419812e+16
13.474867851526309,1674626732704173.0,8.530655802110171e+16,142820040471866.53,159293633797309.84,127086883538949.83,253774582134534.88,3725144306091613.5,7.92238118423633e+16
13.844365208556836,1675780708468397.2,8.758456099729013e+16,142918456950007.72,159403402134776.47,130513443242782.48,260843502447440.56,3829143112414266.5,8.138595837163269e+16
14.221252512727972,1676947500357614.0,8.990616233613419e+16,143017966447527.75,159514389566029.72,134003120696973.3,268055281558500.22,3935256658993754.5,8.358936741851368e+16
14.605677562982532,1678127816227190.0,9.227215920989621e+16,143118629333660.16,159626663423601.03,137556972483687.25,275412836526044.2,4043528645311586.5,8.583478764659034e+16
14.997791114242183,1679322353893011.8,9.46833617848156e+16,143220505121424.9,159740290085045.12,141176068639227.9,282919144920647.1,4154003697886592.5,8.812297972426973e+16
15.397746936527026,1680531802610089.5,9.714059337334821e+16,143323652593729.84,159855335113591.2,144861492651728.56,290577246111174.7,4266727390778903.0,9.045471645348883e+16
15.805701875257567,1681756844444821.0,9.964469058536606e+16,143428129920403.0,159971863388673.53,148614341450066.5,298390242578899.2,4381746266572443.5,9.283078289701062e+16
16.221815912762718,1682998155551641.0,1.0219650347817445e+17,143533994767073.38,160089939227369.88,152435725383597.94,306361301260293.7,4499107857847433.5,9.525197650413715e+16
16.64625223101797,1684256407363622.5,1.0479689570520035e+17,143641304396711.62,160209626497653.28,156326768192274.66,314493654919104.6,4618860709154683.0,9.771910723467642e+16
17.079177275638333,1685532267705564.0,1.0744674466319419e+17,143750115764554.75,160330988724270.5,160288606966734.34,322790603548331.0,4741054399503599.0,1.0023299768098107e+17
17.5207608211511,1686826401837231.8,1.1014694163778469e+17,143860485607083.7,160454089187977.53,164322392097900.9,331255515802743.2,4865739565376242.0,1.0279448318787554e+17
17.97117603757412,1688139473433566.2,1.1289839194721381e+17,143972470525617.25,160578991018778.97,168429287215656.5,339891830462585.0,4992967924280085.0,1.054044119702774e+17
18.430599558325603,1689472145508115.8,1.1570201508407197e+17,144086127065067.72,160705757283765.7,172610469116117.88,348703057929120.5,5122792298852171.0,1.0806364522831774e+17
18.899211549492115,1690825081285150.2,1.1855874485484662e+17,144201511788318.88,160834451070074.22,176867127677042.4,357692781752685.3,5255266641528109.0,1.1077305725974538e+17
19.37719578048196,1692198945025510.0,1.214695295170871e+17,144318681346658.03,160965135563440.6,181200465760887.06,366864660193937.5,5390446059789083.0,1.1353353556940778e+17
19.864739696091597,1693594402810708.5,1.24435331913983e+17,144437692546648.44,161097874122786.9,185611699105014.66,376222427818979.6,5528386842000795.0,1.1634598097557805e+17
20.36203449001343,1695012123289341.2,1.2745712960613893e+17,144558602413784.62,161232730351220.6,190102056198563.38,385769897129066.6,5669146483858415.0,1.1921130771289846e+17
20.869275179813698,1696452778389524.8,1.30535915000329e+17,144681468253256.0,161369768163803.6,194672778145446.06,395510960225612.75,5812783715451820.0,1.2213044353169946e+17
21.38666068340997,1697917044000706.2,1.336726954749934e+17,144806347708091.66,161509051852406.8,199325118512975.88,405449590511205.94,5959358528965721.0,1.251043297934423e+17
21.91439389707817,1699405600627898.8,1.3686849350224242e+17,144933298814959.12,161650646147942.5,204060343165573.03,415589844427374.7,6108932207029834.0,1.2813392156202896e+17
22.452681775019734,1700919134021137.0,1.4012434676611259e+17,145062380057843.78,161794616280238.56,208879730083021.94,425935863229847.2,6261567351734095.0,1.3122018769070624e+17
23.00173541052013,1702458335782609.0,1.43441308276821e+17,145193650419832.44,161941028035792.2,213784569162731.6,436491874802039.4,6417327914324663.0,1.3436411090429344e+17
23.561770118730532,1704023903953879.8,1.4682044648074576e+17,145327169433191.0,162089947813624.78,218776162005435.6,447262195507552.7,6576279225596444.0,1.3756668787643547e+17
24.133005521105144,1705616543585213.8,1.5026284536585197e+17,145462997227920.16,162241442679437.7,223855821683777.0,458251232082432.56,6738488026998366.0,1.4082892930159493e+17
24.715665631527248,1707236967288984.2,1.5376960456227978e+17,145601194578953.94,162395580418257.06,229024872493210.78,469463483567960.6,6904022502467735.0,1.441518599614647e+17
25.309978944157795,1708885895778950.2,1.573418394377897e+17,145741822952148.94,162552429585724.62,234284649684641.3,480903543284780.44,7072952311010576.0,1.47536518785493e+17
25.91617852304095,1710564058396953.0,1.6098068118776067e+17,145884944549206.84,162712059558204.25,239636499178218.12,492576100849117.7,7245348620044721.0,1.5098395890518445e+17
26.53450209350177,1712272193628652.0,1.6468727691941574e+17,146030622351655.62,162874540581834.44,245081777257715.72,504485944231906.56,7421284139523298.0,1.5449524770184083e+17
27.165192135371807,1714011049609535.8,1.684627897299521e+17,146178920164007.2,163039943820665.2,250621850244893.34,516637961861618.5,7600833156855755.0,1.580714668473955e+17
27.808495978079243,1715781384622613.8,1.723083987782271e+17,146329902656200.53,163208341403996.9,256258094153258.2,529037144771577.8,7784071572644733.0,1.617137123379746e+17
28.464665897640828,1717583967588871.0,1.7622529934965344e+17,146483635405432.94,163379806473035.25,261991894320638.28,541688588792587.56,7971076937256532.0,1.654230945198165e+17
29.133959215593645,1719419578551627.0,1.802147029139382e+17,146640184937464.94,163554413226961.06,267824645019969.34,554597496791657.7,8161928488243676.0,1.6920073810716624e+17
29.816638399905518,1721289009155777.0,1.842778371752928e+17,146799618767495.47,163732236968521.3,273757749047715.38,567769180957639.9,8356707188638301.0,1.7304778219175734e+17
30.51297116790363,1723193063122900.0,1.884159461147302e+17,146962005440678.1,163913354149217.22,279792617289325.75,581209065134578.2,8555495766134895.0,1.7696538024345837e+17
31.223230591261704,1725132556723023.8,1.9263029002404845e+17,147127414572358.5,164097842414183.97,285930668261152.94,594922687203567.0,8758378753181750.0,1.8095470010169254e+17
31.947695203086937,1727108319243967.8,1.9692214553110128e+17,147295916888100.47,164285780646832.03,292173327628253.7,608915701513927.5,8965442528000140.0,1.8501692395717978e+17
32.686649107148675,1729121193458929.5,2.012928056159285e+17,147467584263564.38,164477249013327.97,298522027697496.8,623193881364460.0,9176775356550790.0,1.8915324832357994e+17
33.44038208929165,1731172036093079.8,2.0574357961732413e+17,147642489764298.97,164672329006973.5,304978206885424.25,637763121535605.4,9392467435467190.0,1.9336488399857136e+17
34.20918973107749,1733261718289781.8,2.102757932293957e+17,147820707685507.0,164871103492558.62,311543309160315.25,652629440873224.1,9612610935975438.0,1.976530560139193e+17
34.993373525699035,1735391126077129.2,2.1489078848766675e+17,148002313591828.38,165073656750735.2,318218783457906.94,667798984924797.6,9837300048820386.0,2.020190035740441e+17
35.793240996213015,1737561160835290.2,2.1958992374425715e+17,148187384357201.7,165280074522473.16,325006083070266.6,683278028628790.9,1.0066631030218302e+16,2.06463979982625e+17
36.60910581613728,1739772739765299.2,2.2437457363166742e+17,148375998204842.56,165490444053653.66,331906665007294.4,699072979057865.8,1.0300702248855716e+16,2.1098925255672278e+17
37.44128793246003,1742026796359722.0,2.2924612901468413e+17,148568234747385.25,165704854139838.12,338921989330387.3,715190378216696.5,1.0539614233954534e+16,2.155961025279353e+17
38.29011369110923,1744324280875758.5,2.34205996929907e+17,148764175027231.2,165923395171271.47,346053518457797.0,731636905895046.8,1.0783469724423498e+16,2.202858249300567e+17
39.15591596493141,1746666160811184.2,2.3925560051239904e+17,148963901557138.38,166146159178155.1,353302716441242.2,748419382576751.8,1.1032373719115942e+16,2.2505972847271853e+17
40.03903428423004,1749053421383569.8,2.4439637890893277e+17,149167498361093.1,166373239876229.22,360671048213377.94,765544772405261.2,1.1286433528213612e+16,2.2991913540047968e+17
40.93981496991464,1751487066013210.5,2.4962978717731888e+17,149375051015494.78,166604732712712.53,368159978805741.0,783020186206303.4,1.1545758825756182e+16,2.3486538133680902e+17
41.85861126931294,1753968116810112.0,2.5495729617127027e+17,149586646690689.06,166840734912623.38,375770972536830.6,800852884568241.1,1.1810461703336134e+16,2.3989981511241555e+17
42.7957834946992,1756497615065399.0,2.6038039241026714e+17,149802374192878.97,167081345525523.34,383505492170023.8,819050280980615.4,1.2080656724978274e+16,2.4502379857735437e+17
