t(s),Total solute volume 1,Total retention volume 1,Total 1 volume 1,Total 2 volume 1,Total 3 volume 1,Total 4 volume 1,Total 5 volume 1,Total 6 volume 1
0.1,964857416365797.9,1154672529873703.2,88762465329957.31,101052648177948.16,0.0,0.0,0.0,0.0
0.202,1453534662189762.5,1739491772776559.5,133718535194847.34,152233403330432.53,7169086.142632571,14308288.750436435,219711764.77123037,4930872375.856331
0.30604000000000003,1825757215639553.5,2184949124855692.8,167961306261241.03,191217479759731.0,18189649.0241295,36303484.18657516,557462895.5557446,12511239137.610804
0.41216080000000005,2140609553525277.2,2561752131677909.0,196926280092079.1,224192987194650.25,32309996.920116764,64485332.401998974,990214830.7535408,22223855742.81647
0.5204040160000001,2420224630491006.5,2896387693972187.5,222649587214179.66,253477981884873.62,49196565.9227716,98188095.29683891,1507744534.0512068,33839252934.045357
0.6308120963200001,2675630388530274.5,3202053137038509.5,246145747813144.34,280227456008423.78,68670494.26331049,137054794.61680183,2104570296.5455008,47234391082.5207
0.7434283382464002,2913236512850900.0,3486419041186290.0,268004423588392.6,305112716708751.7,90629581.91391212,180881456.18231535,2777559923.6776295,62338967290.74328
0.8582969050113283,3137149175458864.5,3754399338614674.5,288603363568602.56,328563816711228.8,115016228.49374665,229553119.27197835,3524948097.1505795,79113358534.10841
0.9754628431115548,3350182185219322.5,4009361374283222.0,308201425289141.1,350875455353222.2,141801637.19784153,283012310.2944951,4345852260.062833,97537755327.71994
1.094972099973786,3554361678525493.0,4253729877393542.0,326985004023482.0,372259836476761.56,170977067.71707913,341241585.0754627,5240004538.879346,117606144617.06764
1.2168715419732616,3751203187936263.0,4489318533579394.5,345093521829625.1,392875686726608.2,202548580.78887627,404253039.857618,6207590676.178358,139322694603.7623
1.3412089728127268,3941875055772695.0,4717525544223633.0,362634460852954.06,412845370386776.8,236533685.7009286,472081620.2781705,7249147284.578799,162699448613.55112
1.4680331522689813,4127300372774775.5,4939455617756565.0,379692741216040.94,432265565747020.75,272959102.4252218,544780654.9622248,8365493261.498683,187754785710.4522
1.597393815314361,4308223502500964.5,5155999580195919.0,396336840958888.4,451214232419166.06,311859214.6015343,622418767.9364437,9557682376.824326,214512356537.53467
1.729341691620648,4485255136212081.0,5367888292825170.0,412622940882007.25,469755330081368.7,353274970.7269106,705077685.5870337,10826969597.028152,243000327471.15216
1.863928525453061,4658903770794934.0,5575730322152389.0,428597820371300.2,487942115263247.7,397253087.34453386,792850646.3580474,12174786664.843914,273250832514.59842
2.001207095962122,4829598290235514.0,5780038963383129.0,444300934790227.06,505819506376875.7,443845462.3363124,885841229.7816415,13602724118.115416,305299569717.47845
2.1412312378813647,4997704537998237.0,5981252072747024.0,459765940062834.94,523425819395864.7,493108738.47339,984162485.3980306,15112517913.686623,339185500953.857
2.284055862638992,5163537722734901.0,6179746913529729.0,475021833942196.56,540794067145525.56,545103977.0539161,1087936281.3912134,16706039425.198465,374950627426.60376
2.4297369798917723,5327371867942099.0,6375851464572968.0,490093825335631.9,557952948996170.8,599896413.9520074,1197292817.7036908,18385287966.58824,412639821860.13605
2.578331719489608,5489447121720313.0,6569853167942066.0,505004006769087.3,574927616437916.4,657555278.5728594,1312370264.701357,20152385243.508423,452300703964.5243
2.7298983538794,5649975489468290.0,6762005789310429.0,519771881768774.9,591740273484369.1,718153661.6919516,1433314499.4028175,22009571302.923138,493983549525.4995
2.884496320956988,5809145385561428.0,6952534865015930.0,534414783594745.94,608410653384676.6,781768421.9200611,1560278918.7994676,23959201666.49054,537741226063.9716
3.0421862473761276,5967125287782774.0,7141642075378225.0,548948211431819.56,624956401363957.2,848480123.1724712,1693424315.054692,26003745414.14837,583629149822.3656
3.2030299723236504,6124066701164065.0,7329508791585414.0,563386103049389.1,641393385035990.8,918372997.4016541,1832918801.1248035,28145784041.96211,631705260128.8729
3.3670905717701234,6280106583973779.0,7516298978931606.0,577741057981213.5,657735948484808.6,991534928.2167445,1978937778.066467,30388010960.10127,682030008129.0115
3.5344323832055258,6435369350262400.0,7702161593321070.0,592024521750420.8,673997121997783.2,1068057452.0170898,2131663937.2993882,32733231527.58018,734666357564.5671
3.7051210308696363,6589968535724869.0,7887232574865303.0,606246939121227.2,690188796536800.9,1148035774.0165272,2291287292.588354,35184363543.36196,789679795795.2965
3.879223451487029,6744008193417160.0,8071636518197605.0,620417882498473.4,706321869916171.9,1231568797.1010778,2458005237.638663,37744438130.77495,847138353648.3132
4.0568079205167695,6897584070886198.0,8255488081207412.0,634546160218178.9,722406370087300.5,1318759161.895545,2632022626.062685,40416600965.45501,907112632977.6683
4.237944078927105,7050784609052472.0,8438893180467564.0,648639908440181.2,738451559754873.2,1409713296.7489893,2813551871.142813,43204113807.27601,969675841046.7466
4.422702960505647,7203691794686360.0,8621950011459786.0,662706669572057.2,754466025659490.4,1504541476.6100383,3002813063.337129,46110356304.73271,1034903831025.6562
4.61115701971576,7356381891820921.0,8804749923925628.0,676753459555739.5,770457755180893.4,1603357889.9686828,3200034103.884318,49138828046.540535,1102875148037.2358
4.803380160110075,7508926072116891.0,8987378176681218.0,690786825862411.5,786434202375794.8,1706280713.5924075,3405450859.894062,52293152989.664825,1173671441565.324
4.9994477633122765,7661390962466535.0,9169914591474750.0,704812897852707.6,802402345259229.0,1813432192.2095382,3619307299.7820797,55577073393.18892,1247376083368.8835
5.199436718578522,7813839118511073.0,9352434122013280.0,718837430363544.5,818368735504611.5,1924938728.4957478,3841855708.098614,58994465277.24644,1324076374331.051
5.403425452950093,7966329441260367.0,9535007351089854.0,732865842018206.0,834339542005899.6,2040930975.3466444,4073356846.3129926,62549332823.32772,1403862184735.0513
5.611493962009095,8118917541103743.0,9717700926656214.0,746903248717949.4,850320589019683.8,2161543935.9144135,4314080158.287888,66245813537.373116,1486826377193.337
5.823723841249277,8271656058553643.0,9900577945741932.0,760954493148952.8,866317389757708.2,2286917068.912061,4564303980.449489,70088181477.10425,1573064879101.81
6.040198318074262,8424594947606919.0,1.0083698293641044e+16,775024170850252.2,882335176064213.4,2417194399.408578,4824315762.916628,74080850647.62213,1662676758850.7642
6.261002284435747,8577781726911136.0,1.02671189445737e+16,789116653319908.8,898378924721410.6,2552524634.9989266,5094412301.357162,78228378561.72932,1755764305732.9849
6.486222330124463,8731261703095826.0,1.0450894229040644e+16,803236108560439.6,914453380839678.9,2693061287.2677803,5374899979.409981,82535469962.49625,1852433113493.1772
6.715946776726952,8885078169949105.0,1.0635076072275276e+16,817386519402171.4,930563078717983.2,2838962798.4956746,5666095021.569749,87006980706.49016,1952792167483.436
6.950265712261491,9039272586560608.0,1.0819714207527198e+16,831571699891566.5,946712360501357.4,2990392673.581881,5968323756.483719,91647921806.88817,2056953935407.096
7.18927102650672,9193884737086522.0,1.1004856367356818e+16,845795309988880.5,962905392913623.9,3147519617.180555,6281922890.6530905,96463463636.36089,2165034461648.549
7.433056447036854,9348952874407496.0,1.1190548455657632e+16,860060868784023.2,979146182303146.1,3310517676.066078,6607239792.571216,101458940290.22133,2277153465200.05
7.681717575977592,9504513849625758.0,1.1376834702735428e+16,874371766409712.9,995438588205479.9,3479566386.760867,6944632787.36466,106639854110.85336,2393434441208.2695
7.935351927497144,9660603229077520.0,1.1563757805451006e+16,888731274806072.5,1011786335598470.4,3654850928.473764,7294471462.033717,112011880374.89876,2514004766173.914
8.194058966047088,9817255400307714.0,1.175135905415709e+16,903142557469823.1,1028193026001318.2,3836562281.4113264,7657136981.415785,117580872145.10849,2638995806846.947
8.45794014536803,9974503668260500.0,1.1939678447930778e+16,917608678303372.6,1044662147548942.8,4024897390.5362024,8033022415.020778,123352865289.1364,2768543032868.788
8.72709894827539,1.013238034277546e+16,1.2128754799404566e+16,932132609664059.1,1061197084155721.0,4220059334.858435,8422533074.909065,129334083667.90103,2902786133220.2734
9.0016409272409,1.0290916818338478e+16,1.231862583033282e+16,946717239700871.4,1077801123868065.0,4422257502.355657,8826086864.804026,135530944496.46298,3041869136541.593
9.281673745785717,1.0450143646917246e+16,1.2509328258886646e+16,961365379054985.6,1094477466492734.8,4631707770.628061,9244114640.650139,141950063880.65756,3185940535396.806
9.567307220701432,1.061009060460905e+16,1.2700897879547522e+16,976079766991046.8,1111229230577046.8,4848632693.402978,9677060582.845898,148598262533.00223,3335153414562.163
9.85865336511546,1.0770786752739018e+16,1.2893369636364238e+16,990863077017936.2,1128059459807918.0,5073261693.012111,10125382580.397516,155482571671.65488,3489665583422.6978
10.155826432417769,1.0932260493972328e+16,1.3086777690247422e+16,1005717922050839.6,1144971128888680.5,5305831258.973287,10589552627.255978,162610239106.46057,3649639712567.8984
10.458942961066125,1.1094539623937044e+16,1.3281155480895606e+16,1020646859160292.5,1161967148945672.0,5546585152.815639,11070057231.115187,169988735516.34344,3815243474681.937
10.768121820287448,1.1257651378796902e+16,1.3476535783879556e+16,1035652393948691.9,1179050372510750.0,5795774619.295234,11567397834.964079,177625760922.54825,3986649689829.5557
11.083484256693197,1.1421622479165024e+16,1.3672950763352048e+16,1050736984590119.9,1196223598120447.5,6053658604.154711,12082091251.700413,185529251362.4478,4164036475243.5015
11.405153941827061,1.1586479170703996e+16,1.3870432020797178e+16,1065903045565398.9,1213489574568213.8,6320503978.588928,12614670112.12743,193707385768.86392,4347587399724.432
11.733257020663602,1.1752247261722242e+16,1.4069010640189866e+16,1081152951120761.1,1230851004841966.8,6596585770.583616,13165683326.669302,202168593060.04153,4537491642768.786
12.067922161076874,1.1918952158041494e+16,1.4268717229894836e+16,1096489038475510.2,1248310549775880.0,6882187403.303275,13735696561.154696,210921559445.65082,4733944158545.2705
12.409280604298411,1.208661889538185e+16,1.4469581961599794e+16,1111913610801295.6,1265870831442198.0,7177600940.70918,14325292727.031261,219975235954.39288,4937145844844.766
12.75746621638438,1.2255272169485602e+16,1.467163460654825e+16,1127428939993350.2,1283534436306162.5,7483127340.596887,14935072486.387665,229338846188.97668,5147303717133.7705
13.112615540712067,1.242493636417708e+16,1.4874904569307488e+16,1143037269251903.2,1301303918164857.0,7799076715.248286,15565654772.173616,239021894314.48093,5364631087845.502
13.474867851526309,1.2595635577537618e+16,1.5079420919286542e+16,1158740815490122.8,1319181800888562.8,8125768599.900512,16217677324.020947,249034173286.275,5589347751048.031
13.844365208556836,1.2767393646355158e+16,1.5285212420195424e+16,1174541771583383.5,1337170580981457.8,8463532229.241133,16891797240.083624,259385773323.9256,5821680172633.089
14.221252512727972,1.2940234168993596e+16,1.549230755761873e+16,1190442308473143.5,1355272729976800.0,8812706822.14495,17588691545.327297,270087090637.6996,6061861686174.25
14.605677562982532,1.311418052681237e+16,1.5700734564860708e+16,1206444577137436.5,1373490696680250.2,9173641874.876026,18309057776.713463,281148836414.4905,6310132694607.629
14.997791114242183,1.3289255904254662e+16,1.5910521447203412e+16,1222550710438908.5,1391826909273817.5,9546697462.984001,19053614585.73696,292582046070.224,6566740877893.333
15.397746936527026,1.34654833077114e+16,1.61216960047056e+16,1238762824860207.0,1410283777291490.2,9932244552.132498,19823102358.78953,304398088775.9941,6831941406820.665
15.805701875257567,1.3642885583257978e+16,1.6334285853660178e+16,1255083022135701.5,1428863693476915.5,10330665318.103085,20618283855.837345,316608677265.4172,7105997163124.898
16.221815912762718,1.382148543335256e+16,1.6548318446814776e+16,1271513390787605.8,1447569035532230.8,10742353476.226685,21439944867.913517,329225877930.91833,7389178966088.683
16.64625223101797,1.4001305432575898e+16,1.676382109245302e+16,1288056007574017.5,1466402167766549.5,11167714620.500732,22288894893.942566,342262121216.85645,7681765805805.994
17.079177275638333,1.4182368042486328e+16,1.6980820972423614e+16,1304712938855481.2,1485365442651797.8,11607166572.659286,23165967837.428722,355730212317.6866,7984045083291.995
17.5207608211511,1.4364695625656456e+16,1.719934515919785e+16,1321486241886314.8,1504461202292791.8,12061139741.469042,24072022723.554203,369643342189.5228,8296312857626.988
17.97117603757412,1.4548310458953088e+16,1.741942063202863e+16,1338377966036287.5,1523691779818105.2,12530077492.53376,25007944437.250595,384015098883.7668,8618874100328.633
18.430599558325603,1.473323474611555e+16,1.7641074292278146e+16,1355390153947781.5,1543059500697441.5,13014436528.896774,25974644482.821335,398859479211.6565,8952042957151.225
18.899211549492115,1.4919490629684258e+16,1.7864332977975664e+16,1372524842633149.5,1562566683990926.0,13514687282.738981,26973061765.70898,414190900748.879,9296143017517.25
19.37719578048196,1.5107100202325968e+16,1.8089223477661576e+16,1389784064516607.8,1582215643535269.2,14031314318.478573,28004163397.019466,430024214189.6205,9651507591791.61
19.864739696091597,1.5296085517599024e+16,1.831577254356975e+16,1407169848424560.0,1602008689071215.0,14564816747.58728,29068945521.429577,446374716059.67914,10018479996614.27
20.36203449001343,1.5486468600197724e+16,1.854400690419546e+16,1424684220528079.8,1621948127316502.0,15115708655.445467,30168434169.12312,463258161798.57074,10397413848514.234
20.869275179813698,1.5678271455712886e+16,1.87739532762927e+16,1442329205240776.2,1642036262988083.8,15684519540.568104,31303686132.41724,480690779220.7471,10788673366032.059
21.38666068340997,1.587151607994116e+16,1.9005638376341144e+16,1460106826075253.5,1662275399777142.2,16271794766.54273,32475789867.759407,498689282366.4108,11192633680585.955
21.91439389707817,1.6066224467774622e+16,1.9239088931520188e+16,1478019106460904.8,1682667841280131.2,16878096027.02778,33685866423.792435,517270885752.6097,11609681156320.855
22.452681775019734,1.6262418621698876e+16,1.94743316902238e+16,1496068070525686.0,1703215891888778.2,17504001824.17213,34935070396.203835,536453319035.63116,12040213719188.355
23.00173541052013,1.6460120559925554e+16,1.971139343214814e+16,1514255743844274.5,1723921857641861.0,18150107960.82204,36224590910.09571,556254842095.9714,12484641195509.383
23.561770118730532,1.6659352324183764e+16,1.9950300977981404e+16,1532584154154850.5,1744788047041227.5,18817028046.895508,37555652630.627945,576694260557.4758,12943385660280.715
24.133005521105144,1.6860135987192668e+16,2.0191081198721644e+16,1551055332046532.5,1765816771834386.8,19505394020.309654,38929516802.70962,597790941752.5016,13416881795490.336
24.715665631527248,1.7062493659835442e+16,2.0433761024649576e+16,1569671311619364.8,1787010347765913.0,20215856682.86123,40347482320.531944,619564831145.3303,13905577258715.904
25.309978944157795,1.7266447498054022e+16,2.0678367453976736e+16,1588434131118580.5,1808371095299521.0,20949086251.464973,41810886827.75561,642036469226.2822,14409933062285.58
25.91617852304095,1.747201970948147e+16,2.0924927561191892e+16,1607345833544756.8,1829901340312703.5,21705772925.16993,43321107849.18747,665227008889.341,14930423963288.38
26.53450209350177,1.7679232559828002e+16,2.1173468505124348e+16,1626408467241318.2,1851603414765560.0,22486627468.380756,44879563954.799866,689158233306.4213,15467538864728.344
27.165192135371807,1.7888108379035346e+16,2.1424017536741556e+16,1645624086460675.0,1873479657345361.5,23292381810.722343,46487715956.96792,713852574311.7004,16021781228122.549
27.808495978079243,1.809866956721164e+16,2.167660200669701e+16,1664994751910243.2,1895532414088143.2,24123789663.996555,48147068141.820465,739333131309.7482,16593669497851.783
28.464665897640828,1.831093860035941e+16,2.1931249372642412e+16,1684522531279359.8,1917764038978586.0,24981627156.689877,49859169535.61915,765623690721.5352,17183737537578.266
29.133959215593645,1.8524938035905636e+16,2.218798720631667e+16,1704209499748043.5,1940176894529226.2,25866693486.50146,51625615207.104294,792748745982.6666,17792535079052.465
29.816638399905518,1.874069051804287e+16,2.244684320042199e+16,1724057740478351.5,1962773352339831.8,26779811591.369728,53448047606.76082,820733518108.5479,18420628183637.496
30.51297116790363,1.8958218782888028e+16,2.2707845175295204e+16,1744069345088963.8,1985555793637717.2,27721828839.486675,55328157943.98093,849603976841.4146,19068599716886.004
31.223230591261704,1.9177545663463776e+16,2.297102108538088e+16,1764246414113423.8,2008526609799423.5,28693617738.797348,57267687603.116486,879386862394.492,19737049836510.695
31.947695203086937,1.9398694094504812e+16,2.3236399025509444e+16,1784591057442337.0,2031688202854132.2,29696076666.490646,59268429599.43013,910109707808.7762,20426596494095.902
32.686649107148675,1.962168711709015e+16,2.3504007236981988e+16,1805105394749489.2,2055042985968803.0,30730130618.994347,61332230075.972145,941800861938.1898,21137875950901.703
33.44038208929165,1.9846547883099e+16,2.377387411345862e+16,1825791555901778.0,2078593383914840.0,31796731982.996452,63460989842.41919,974489513079.0198,21871543308116.895
34.20918973107749,2.0073299659484444e+16,2.4046028206645004e+16,1846651681352369.8,2102341833515719.5,32896861328.01563,65656665956.9256,1008205713259.7646,22628273051921.332
34.993373525699035,2.030196583235763e+16,2.4320498231767296e+16,1867687922516414.0,2126290784074706.5,34031528221.05185,67921273352.04045,1042980403207.5397,23408759613719.273
35.793240996213015,2.0532569910868456e+16,2.4597313072820296e+16,1888902442128074.0,2150442697781303.0,35201772063.84561,70256886505.74948,1078845438007.331,24213717945906.71
36.60910581613728,2.0765135530867176e+16,2.4876501787570344e+16,1910297414577348.0,2174800050094732.5,36408662953.27605,72665641158.69891,1115833613470.264,25043884113535.15
37.44128793246003,2.0999686458323948e+16,2.515809361228493e+16,1931875026224691.2,2199365330102110.0,37653302565.42202,75149736078.64595,1153978693226.9868,25900015902230.39
38.29011369110923,2.1236246592479892e+16,2.5442117966158372e+16,1953637475690839.8,2224141040848408.5,38936825063.80428,77711434873.1728,1193315436561.9963,26782893442721.746
39.15591596493141,2.1474839968694484e+16,2.5728604455393196e+16,1975586974118813.8,2249129699634706.5,40260398032.31446,80353067851.6693,1233879627004.4268,27693319852325.98
40.03903428423004,2.1715490760949396e+16,2.601758287688685e+16,1997725745404243.0,2274333838280439.5,41625223433.32063,83077033937.56723,1275708101690.299,28632121893722.117
40.93981496991464,2.195822328396001e+16,2.6309083221468076e+16,2020056026389582.0,2299756003344483.5,43032538591.41713,85885802631.75473,1318838781510.5078,29600150651336.195
41.85861126931294,2.2203061994836484e+16,2.660313567661355e+16,2042580067016976.8,2325398756299198.0,44483617203.26051,88781916028.05481,1363310702058.1587,30598282225637.984
42.7957834946992,2.245003149422895e+16,2.689977062856503e+16,2065300130433575.8,2351264673650307.5,45979770373.89658,91767990881.57744,1409164045387.5657,31627418445625.633
43.751699164593184,2.2699156526879624e+16,2.7199018663757424e+16,2088218493042332.2,2377356346994742.5,47522347679.9438,94846720730.67177,1456440172596.1414,32688487599748.06
44.72673314788505,2.2950461981494556e+16,2.7500910569450988e+16,2111337444490202.5,2403676383007192.5,49112738259.947334,98020878073.10683,1505181657238.8062,33782445185477.77
