t(s),Total solute volume 1,Total retention volume 1,Total 1 volume 1,Total 2 volume 1,Total 3 volume 1,Total 4 volume 1,Total 5 volume 1,Total 6 volume 1
0.1,1393105271922661.8,5193352995607505.0,1226369007487646.5,2573878716197194.5,0.0,0.0,0.0,3.3616881476863753e-156
0.202,1880736817823466.2,8125446341134403.0,1655637866748199.5,3474823951602310.0,217121927765.48843,1108340055608.7998,59809135677134.28,1053113107299919.6
0.30604000000000003,2135475535862018.0,1.070701015310216e+16,1879887836432066.8,3945476579618580.5,497992164847.78204,2542513095565.7715,138856962985737.23,2604272732943350.5
0.41216080000000005,2287173054301997.0,1.3158329449016788e+16,2013429223493033.0,4225751228301769.5,808076143845.0938,4125938591580.689,226503013641326.44,4400538914543227.5
0.5204040160000001,2386444684700653.0,1.5559892840130234e+16,2100819386986675.8,4409164362509582.5,1135509714965.5369,5797994631789.023,319199106594219.0,6337331794992346.0
0.6308120963200001,2455804466370983.5,1.794938857820239e+16,2161877744515789.0,4537312711485411.0,1475382317309.2024,7533595286996.309,415505151015203.06,8369879527210700.0
0.7434283382464002,2506549358383681.5,2.0347274465151984e+16,2206549162924295.5,4631068414767903.0,1825339063094.7046,9320711366216.828,514735531200210.4,1.0477225947446584e+16
0.8582969050113283,2544950509998301.5,2.2765856141916344e+16,2240354219788232.0,4702017973111868.0,2184151147772.5042,11153065423113.236,616530279700900.4,1.2648665942746154e+16
0.9754628431115548,2574787176916038.0,2.5213148198959384e+16,2266619844906060.0,4757143892246827.0,2551173245931.9165,13027360163867.018,720697161521981.4,1.4878321589958668e+16
1.094972099973786,2598475190916507.0,2.7694728370089052e+16,2287472727568998.5,4800909632452210.0,2926086042814.8735,14941963553388.771,827138166362345.9,1.7162864603192768e+16
1.2168715419732616,2617626788873696.0,3.0214709658724636e+16,2304332141643180.0,4836293942299706.0,3308759365574.054,16896209816660.984,935810470657073.9,1.9500441346068736e+16
1.3412089728127268,2633354384495539.5,3.277628528351028e+16,2318177359933113.5,4865352103552770.0,3699175769246.7183,18890009151309.793,1046704495864312.8,2.1890107754744012e+16
1.4680331522689813,2646446710270889.5,3.5382050789084916e+16,2329702714308833.0,4889541368747645.0,4097386737472.875,20923623996921.203,1159831223200666.0,2.4331507761822508e+16
1.597393815314361,2657476055357434.5,3.803420286125972e+16,2339411998660663.0,4909919092502884.0,4503487038044.625,22997538026004.39,1275214698559216.2,2.6824679991115468e+16
1.729341691620648,2666866056564830.5,4.07346665682663e+16,2347678146213023.5,4927267981244117.0,4917599411950.622,25112377915938.453,1392887514018430.8,2.936993689289803e+16
1.863928525453061,2674935887041880.0,4.348517935954804e+16,2354782129419971.0,4942177735641186.0,5339865272105.584,27268865819867.43,1512888033546488.8,3.1967786842806532e+16
2.001207095962122,2681929818414530.5,4.62873480388493e+16,2360938983913114.0,4955099669229069.0,5770438970852.643,29467790069595.64,1635258662601633.0,3.4618882675650524e+16
2.1412312378813647,2688037449586696.0,4.9142688346604664e+16,2366315616187340.5,4966384082879670.0,6209484228120.713,31709986917948.633,1760044755049086.2,3.7323986971755784e+16
2.284055862638992,2693407828050684.5,5.205265306290777e+16,2371043234780795.0,4976306355155647.0,6657171890699.828,33996329083047.08,1887293916291712.8,4.00839482276552e+16
2.4297369798917723,2698159485307632.0,5.5018652360790664e+16,2375226184590833.0,4985085483627696.0,7113678524355.566,36327718548890.13,2017055556775925.5,4.2899684253415304e+16
2.578331719489608,2702387684502053.5,5.804206882200219e+16,2378948327064662.5,4992897475514919.0,7579185534155.29,38705082065822.63,2149380606042504.2,4.57721704612781e+16
2.7298983538794,2706169731958966.0,6.112426871013488e+16,2382277716017244.0,4999885161216505.0,8053878623792.248,41129368384036.625,2284321331072710.5,4.870243152286163e+16
2.884496320956988,2709568922319049.0,6.4266610576656376e+16,2385270070587204.0,5006165483296508.0,8537947474701.378,43601546610918.09,2421931223179920.5,5.169153538318809e+16
3.0421862473761276,2712637505065118.5,6.747045193833476e+16,2387971386710278.5,5011834977403461.0,9031585568913.744,46122605303528.87,2562264930419529.5,5.47405889478639e+16
3.2030299723236504,2715418940655508.5,7.073715454147131e+16,2390419923224104.5,5016973940676450.0,9534990106587.188,48693552045430.234,2705378220505616.0,5.7850734974257624e+16
3.3670905717701234,2717949634509070.0,7.406808857810245e+16,2392647728318803.0,5021649635436238.0,10048361986257.545,51315413344475.36,2851327964343071.0,6.102314984016451e+16
3.5344323832055258,2720260282754436.5,7.746463611647483e+16,2394681824218292.5,5025918775576583.0,10571905826827.688,53989234744278.86,3000172133596165.0,6.425904195975828e+16
3.7051210308696363,2722376926203183.5,8.092819393664064e+16,2396545135007248.5,5029829473873634.0,11105830017427.043,56716081078440.01,3151969807881828.0,6.755965068257888e+16
3.879223451487029,2724321782840397.5,8.446017591168462e+16,2398257219483852.5,5033422780086457.0,11650346785932.082,59497036820410.5,3306781188609117.5,7.092624555705842e+16
4.0568079205167695,2726113910615222.0,8.806201503919006e+16,2399834854623360.0,5036733905521949.0,12205672280014.59,62333206497624.49,3464667617442993.0,7.436012587220893e+16
4.237944078927105,2727769739066065.5,9.17351652016336e+16,2401292503575021.0,5039793205259990.0,12772026656630.648,65225715148972.84,3625691598014665.0,7.786262041391229e+16
4.422702960505647,2729303498729741.0,9.548110271547947e+16,2402642693676802.0,5042626971525394.0,13349634177233.398,68175708811710.88,3789916819937710.0,8.143508738862086e+16
4.61115701971576,2730727570277542.5,9.930132771479998e+16,2403896323804650.0,5045258078748207.0,13938723306913.979,71184355028603.23,3957408184487635.5,8.507891447914638e+16
4.803380160110075,2732052770150781.0,1.0319736540485994e+17,2405062915821355.0,5047706511301091.0,14539526816298.465,74252843369297.44,4128231831507539.5,8.879551900589365e+16
4.9994477633122765,2733288585617884.5,1.0717076721330234e+17,2406150821500544.5,5049989797788570.0,15152281885449.35,77382385962075.4,4302455167244071.0,9.258634817330373e+16
5.199436718578522,2734443369283522.5,1.1122311186065765e+17,2407167393755719.0,5052123370420187.0,15777230209306.707,80574218033592.61,4480146892915925.0,9.645287938603936e+16
5.403425452950093,2735524500890779.5,1.1535600636738656e+17,2408119129076916.5,5054120863954655.0,16414618104396.887,83829598455210.86,4661377033885257.0,1.0039662062301933e+17
5.611493962009095,2736538522587075.5,1.1957108701118554e+17,2409011786607177.5,5055994365615939.0,17064696616667.494,87149810295192.73,4846216969349757.0,1.044191108601137e+17
5.823723841249277,2737491252541162.0,1.2387002024559246e+17,2409850488161133.0,5057754625011001.0,17727721630394.844,90536161376480.11,5034739462506209.0,1.0852192053436602e+17
6.040198318074262,2738387880805292.5,1.2825450358882658e+17,2410639802613788.0,5059411231243805.0,18403953978167.645,93989984840073.08,5227018691159221.0,1.1270665204418622e+17
6.261002284435747,2739233050543298.5,1.3272626649014474e+17,2411383817406726.0,5060972762991658.0,19093659551989.18,97512639714221.05,5423130278764703.0,1.1697494028117208e+17
6.486222330124463,2740030927139324.5,1.3728707117968893e+17,2412086199385464.5,5062446916189861.0,19797109415563.543,101105511489763.05,5623151325908681.0,1.2132845319016024e+17
6.715946776726952,2740785257224018.5,1.419387135067679e+17,2412750246761025.5,5063840613088009.0,20514579917846.94,104770012702027.17,5827160442229402.0,1.257688923548456e+17
6.950265712261491,2741499419276366.0,1.4668302377068086e+17,2413378933655435.0,5065160095741475.0,21246352807952.516,108507583519745.58,6035237778795755.0,1.3029799360688413e+17
7.18927102650672,2742176467157400.0,1.5152186754753018e+17,2413974948425043.0,5066411006443969.0,21992715351502.2,112319692341459.97,6247465060958489.0,1.3491752765685238e+17
7.433056447036854,2742819167690148.5,1.564571465159325e+17,2414540726742662.0,5067598457159897.0,22753960448519.69,116207836399903.02,6463925621692529.0,1.3962930074579894e+17
7.681717575977592,2743430033205460.0,1.6149079928409942e+17,2415078480248119.0,5068727089655783.0,23530386752958.656,120173542374836.2,6684704435450343.0,1.44435155316412e+17
7.935351927497144,2744011349815805.0,1.6662480222041117e+17,2415590221438063.0,5069801127738697.0,24322298793958.508,124218367014820.2,6909888152546911.0,1.4933697070306288e+17
8.194058966047088,2744565202051113.0,1.7186117028930867e+17,2416077785353245.5,5070824422773276.0,25130007098918.05,128343897768380.81,7139565134097063.0,1.5433666384016672e+17
8.45794014536803,2745093494386293.5,1.772019578941037e+17,2416542848529472.5,5071800493455731.0,25953828318475.176,132551753425023.77,7373825487526438.0,1.5943618998846237e+17
8.72709894827539,2745597970104350.5,1.826492597280997e+17,2416986945603084.5,5072732560665232.0,26794085353477.48,136843584766537.6,7612761102676819.0,1.6463754347893027e+17
9.0016409272409,2746080227868595.5,1.8820521163526352e+17,2417411483899701.0,5073623578082615.0,27651107484027.277,141221075229012.44,7856465688526884.0,1.6994275847417274e+17
9.281673745785717,2746541736319296.0,1.938719914815539e+17,2417817756283845.5,5074476259159014.0,28525230500681.43,145685941575990.75,8105034810548861.0,1.7535390974716624e+17
9.567307220701432,2746983846961736.5,1.996518200378996e+17,2418206952504483.0,5075293100927725.0,29416796837884.508,150239934583156.4,8358565928721666.0,1.808731134773628e+17
9.85865336511546,2747407805572559.5,2.0554696187573024e+17,2418580169236191.5,5076076405078525.0,30326155709711.98,154884839734956.5,8617158436220656.0,1.865025280641777e+17
10.155826432417769,2747814762317741.0,2.1155972627589037e+17,2418938418986152.5,5076828296651538.0,31253663247998.605,159622477933547.28,8880913698804120.0,1.9224435495794925e+17
10.458942961066125,2748205780747452.0,2.1769246815169642e+17,2419282638012438.5,5077550740656090.0,32199682642925.418,164454706220442.38,9149935094916332.0,1.9810083950850074e+17
10.768121820287448,2748581845809390.5,2.2394758898685363e+17,2419613693378277.5,5078245556876058.0,33164584286137.72,169383418511240.6,9424328056526938.0,2.040742718314656e+17
11.083484256693197,2748943871002368.0,2.3032753778889754e+17,2419932389249444.5,5078914433086826.0,34148745916465.832,174410546343803.34,9704200110726358.0,2.1016698769257222e+17
11.405153941827061,2749292704775002.0,2.3683481205879584e+17,2420239472527127.5,5079558936877434.0,35152552768318.832,179538059640248.47,9989660922096658.0,2.1638136941011107e+17
11.733257020663602,2749629136260178.0,2.434719587773107e+17,2420535637896040.0,5080180526245533.0,36176397722821.61,184767967483126.2,1.0280822335877626e+16,2.227198467758253e+17
12.067922161076874,2749953900423760.0,2.5024157540870214e+17,2420821532356917.5,5080780559110114.0,37220681461765.055,190102318906138.1,1.0577798421947386e+16,2.2918489799449597e+17
12.409280604298411,2750267682695653.0,2.571463109223305e+17,2421097759303300.5,5081360301867837.0,38285812624438.43,195543203699762.22,1.0880705519637318e+16,2.357790506425021e+17
12.75746621638438,2750571123142587.5,2.6418886683270013e+17,2421364882194890.0,5081920937102608.0,39372207967413.875,201092753232145.84,1.1189662283400752e+16,2.4250488264565955e+17
13.112615540712067,2750864820234260.5,2.7137199825847334e+17,2421623427872942.0,5082463570543908.0,40480292527351.766,206753141285626.28,1.1504789729355336e+16,2.4936502327665405e+17
13.474867851526309,2751149334248075.0,2.786985150009771e+17,2421873889557492.0,5082989237357354.0,41610499786897.15,212526584909246.6,1.1826211282718782e+16,2.5636215417239936e+17
13.844365208556836,2751425190352040.0,2.8617128264270973e+17,2422116729561302.5,5083498907840648.0,42763271843736.766,218415345287626.9,1.215405282615816e+16,2.634990103716663e+17
14.221252512727972,2751692881400590.0,2.937932236663583e+17,2422352381751032.0,5083993492589105.0,43939059582887.016,224421728626563.3,1.2488442749072706e+16,2.707783813733356e+17
14.605677562982532,2751952870473858.0,3.015673185948283e+17,2422581253782611.0,5084473847187220.0,45138322852283.85,230548087055722.25,1.2829511997830774e+16,2.7820311221564566e+17
14.997791114242183,2752205593187324.0,3.0949660715278234e+17,2422803729134444.0,5084940776475925.0,46361530641745.055,236796819548803.2,1.3177394126981228e+16,2.8577610457681315e+17
15.397746936527026,2752451459795607.0,3.175841894501956e+17,2423020168959428.0,5085395038439576.0,47609161265378.87,243170372861551.5,1.3532225351460376e+16,2.9350031789741357e+17
15.805701875257567,2752690857111386.0,3.258332271884165e+17,2423230913774185.5,5085837347751322.0,48881702547509.16,249671242487998.1,1.3894144599815384e+16,3.0137877052492864e+17
16.221815912762718,2752924150258123.5,3.3424694488924614e+17,2423436285002004.5,5086268379011432.0,50179652012192.78,256301973635315.3,1.4263293568465512e+16,3.094145408808618e+17
16.64625223101797,2753151684273013.0,3.428286311475317e+17,2423636586383980.5,5086688769708887.0,51503517076402.85,263065162217680.8,1.463981677702283e+16,3.17610768650849e+17
17.079177275638333,2753373785574941.0,3.51581639907783e+17,2423832105271222.5,5087099122933576.0,52853815246952.85,269963455869542.16,1.5023861624694544e+16,3.2597065599819226e+17
17.5207608211511,2753590763310448.5,3.6050939176532435e+17,2424023113809767.5,5087500009863096.0,54231074321238.64,276999554978689.97,1.5415578447788888e+16,3.3449746880125216e+17
17.97117603757412,2753802910589406.5,3.69615375292497e+17,2424209870028333.5,5087891972045752.0,55635832591875.914,284176213739541.7,1.5815120578347516e+16,3.4319453791515475e+17
18.430599558325603,2754010505620758.0,3.7890314839043085e+17,2424392618838165.5,5088275523499000.0,57068639055310.57,291496241227054.6,1.6222644403927168e+16,3.520652604582634e+17
18.899211549492115,2754213812757738.0,3.8837633966691354e+17,2424571592953114.0,5088651152640535.0,58530053624483.28,298962502491686.2,1.6638309428554056e+16,3.611131011238918e+17
19.37719578048196,2754413083460773.5,3.9803864984088915e+17,2424747013737315.0,5089019324067364.0,60020647345627.69,306577919675829.8,1.7062278334874574e+16,3.7034159351772755e+17
19.864739696091597,2754608557185685.0,4.078938531741256e+17,2424919091987083.5,5089380480196835.0,61541002619285.68,314345473152158.9,1.7494717047526618e+16,3.797543415214579e+17
20.36203449001343,2754800462203803.5,4.179457989305994e+17,2425088028652873.5,5089735042781895.0,63091713425621.76,322268202684323.1,1.7935794797755854e+16,3.893550206830946e+17
20.869275179813698,2754989016360125.5,4.281984128641447e+17,2425254015506678.0,5090083414311833.0,64673385554122.81,330349208610444.1,1.838568418930202e+16,3.9914737963449965e+17
21.38666068340997,2755174427774888.0,4.386556987349412e+17,2425417235759669.5,5090425979308533.0,66286636837768.14,338591653049863.4,1.884456126558038e+16,4.091352415366303e+17
21.91439389707817,2755356895493552.0,4.493217398553977e+17,2425577864634340.0,5090763105527322.0,67932097391757.96,346998761133613.7,1.9312605578184668e+16,4.193225055530323e+17
22.452681775019734,2755536610089518.5,4.6020070066601754e+17,2425736069895130.0,5091095145070635.0,69610409856889.36,355573822259081.56,1.979000025673694e+16,4.2971314835210944e+17
23.00173541052013,2755713754223719.0,4.712968283418327e+17,2425892012341013.5,5091422435421822.0,71322229647669.69,364320191369340.0,2.02769320801119e+16,4.403112256387175e+17
23.561770118730532,2755888503164597.0,4.8261445443000365e+17,2426045846263249.5,5091745300405917.0,73068225205260.08,373241290257644.3,2.0773591549062428e+16,4.511208737156443e+17
24.133005521105144,2756061025271831.0,4.941579965191849e+17,2426197719871224.5,5092064051083363.0,74849078255341.73,382340608897586.3,2.1280172960274084e+16,4.6214631107553126e+17
24.715665631527248,2756231482446782.0,5.059319599412836e+17,2426347775688962.0,5092378986582193.0,76665484071001.28,391621706799413.8,2.179687448187672e+16,4.733918400238184e+17
25.309978944157795,2756400030552331.5,5.179409395062273e+17,2426496150924744.0,5092690394873824.0,78518151740730.11,401088214393030.2,2.232389823044209e+16,4.848618483333007e+17
25.91617852304095,2756566819804646.0,5.301896212703795e+17,2426642977815951.0,5092998553496783.0,80407804441638.72,410743834438203.4,2.2861450349496464e+16,4.965608109308863e+17
26.53450209350177,2756731995139036.0,5.4268278433925216e+17,2426788383951168.5,5093303730232717.0,82335179717983.12,420592343462507.0,2.340974108957805e+16,5.0849329161717056e+17
27.165192135371807,2756895696552018.5,5.5542530270516794e+17,2426932492571284.0,5093606183738391.0,84301029765107.28,430637593227557.1,2.3968984889869492e+16,5.206639448194438e+17
27.808495978079243,2757058059421423.0,5.684221471205455e+17,2427075422851284.0,5093906164137063.0,86306121718904.88,440883512224076.6,2.4539400461436476e+16,5.330775173787559e+17
28.464665897640828,2757219214806222.5,5.81678387007482e+17,2427217290164217.0,5094203913572511.0,88351237950903.83,451334107196368.6,2.51212108721033e+16,5.4573885037168845e+17
29.133959215593645,2757379289727695.5,5.95199192404326e+17,2427358206328680.0,5094499666728473.0,90437176369083.27,461993464696763.94,2.571464363299825e+16,5.586528809674771e+17
29.816638399905518,2757538407433301.0,6.089898359499427e+17,2427498279841130.5,5094793651316191.0,92564750724530.62,472865752670631.4,2.631993078680046e+16,5.7182464432115674e+17
30.51297116790363,2757696687644605.5,6.23055694906383e+17,2427637616094135.0,5095086088532477.0,94734790924048.89,483955222072543.25,2.6937308997721972e+16,5.852592755033938e+17
31.223230591261704,2757854246790429.5,6.374022532206872e+17,2427776317581598.0,5095377193490459.0,96948143348828.75,495266208514208.06,2.7567019643258588e+16,5.989620114677033e+17
31.947695203086937,2758011198226336.0,6.520351036265556e+17,2427914484092000.5,5095667175625136.0,99205671179298.53,506803133944779.6,2.8209308907743856e+16,6.12938193055744e+17
32.686649107148675,2758167652441450.0,6.669599497866383e+17,2428052212890450.5,5095956239075475.0,101508254726269.53,518570508364183.5,2.886442787774141e+16,6.271932670413993e+17
33.44038208929165,2758323717253554.5,6.821826084762145e+17,2428189598890449.5,5096244583044878.0,103856791768494.52,530572931570086.75,2.953263263931102e+16,6.417327882143758e+17
34.20918973107749,2758479497993306.5,6.977090118090173e+17,2428326734816031.0,5096532402141538.0,106252197896762.1,542815094939177.8,3.021418437718504e+16,6.56562421504046e+17
34.993373525699035,2758635097678367.0,7.13545209506024e+17,2428463711355070.0,5096819886700141.0,108695406864646.34,555301783243406.4,3.0909349475891772e+16,6.7168794414429e+17
35.793240996213015,2758790617178133.5,7.296973712079734e+17,2428600617304298.5,5097107223086276.0,111187370946039.84,568037876501875.5,3.161839962286397e+16,6.871152478800923e+17
36.60910581613728,2758946155369830.5,7.4617178883247e+17,2428737539706704.5,5097394593984761.0,113729061299594.9,581028351869057.6,3.2341611913570356e+16,7.0285034121667e+17
37.44128793246003,2759101809286456.5,7.629748789764657e+17,2428874563981778.0,5097682178673033.0,116321468340203.34,594278285560052.5,3.30792689587096e+16,7.188993517119154e+17
38.29011369110923,2759257674257258.0,7.801131853649839e+17,2429011774049183.0,5097970153280689.0,118965602117644.97,607792854813585.5,3.383165899350608e+16,7.352685283129594e+17
39.15591596493141,2759413844041224.5,7.975933813469331e+17,2429149252446240.5,5098258691036089.0,121662492702539.7,621577339893489.0,3.4599075989148388e+16,7.519642437376646e+17
40.03903428423004,2759570410954054.5,8.154222724388851e+17,2429287080439739.0,5098547962500986.0,124413190579736.83,635637126129393.4,3.5381819766411668e+16,7.689929969018694e+17
40.93981496991464,2759727465989105.5,8.336067989177025e+17,2429425338132393.0,5098838135793981.0,127218767049282.67,649977705997390.9,3.618019611150541e+16,7.863614153932352e+17
