t(s),Total solute volume 1,Total retention volume 1,Total 1 volume 1,Total 2 volume 1,Total 3 volume 1,Total 4 volume 1,Total 5 volume 1,Total 6 volume 1
0.1,1386011386779396.2,8520484941412214.0,2082602288778356.8,5051871265854462.0,0.0,0.0,0.0,0.00819856729667888
0.202,2009178828813928.2,1.2511825123534234e+16,3018967286396289.5,7323289520519648.0,75125076167.6132,475820196977.61914,21095758984758.5,138742783546467.11
0.30604000000000003,2479597241646282.0,1.5681210491438712e+16,3725812422294773.5,9037930060014850.0,187288014470.92065,1187028990433.0596,54719142407990.33,381777308069913.4
0.41216080000000005,2864637696321719.5,1.8418455594740604e+16,4304369576882338.5,1.0441372830130138e+16,327814845123.50195,2078238033188.6787,97528370170204.33,708141068357890.9
0.5204040160000001,3193716989570531.5,2.0890207068190292e+16,4798840131984191.0,1.1640840876784494e+16,492203406997.04913,3120838317213.477,147892124487138.44,1105303903639733.5
0.6308120963200001,3482480781840963.0,2.3182936144114616e+16,5232733085328733.0,1.2693361743078842e+16,677657958152.6882,4297073176545.944,204830466708435.9,1564555336022939.8
0.7434283382464002,3740409840899074.0,2.534775101402863e+16,5620294131365792.0,1.3633492227966514e+16,882265810293.0579,5594797386830.302,267686050868059.2,2079391699732058.0
0.8582969050113283,3973786639505421.0,2.7417716571323708e+16,5970963241785295.0,1.4484131531172978e+16,1104644684212.148,7005235483441.406,335991039211177.9,2644734239481169.5
0.9754628431115548,4187039558760872.5,2.9415668697895732e+16,6291394451122807.0,1.5261420805765724e+16,1343760964566.349,8521826985894.537,409401708063392.44,3256546586232473.0
1.094972099973786,4383429661611159.0,3.1358176506812656e+16,6586487794984558.0,1.5977246406484254e+16,1598823309394.597,10139550475203.912,487660610938560.94,3911613659009519.5
1.2168715419732616,4565436299025460.0,3.3257736893695724e+16,6859968717503130.0,1.6640645399333242e+16,1869214741776.6362,11854492119492.756,570572217834118.1,4607390553138494.0
1.3412089728127268,4734990725891246.0,3.512407592016607e+16,7114739099895857.0,1.7258657075907802e+16,2154446831166.326,13663554511848.588,657986213498055.6,5341884803630100.0
1.4680331522689813,4893626645662720.0,3.696496348334077e+16,7353103467120990.0,1.7836871678536368e+16,2454127764845.9673,15564253754093.592,749785691666042.9,6113557618835708.0
1.597393815314361,5042582100301169.0,3.8786746209348376e+16,7576922086535098.0,1.837980178238165e+16,2767939726261.089,17554575686797.059,845878733767941.0,6921238990949468.0
1.729341691620648,5182871056917998.0,4.059470893924301e+16,7787718533168952.0,1.8891143224143236e+16,3095622737964.864,19632873215089.11,946192417737382.9,7764055211322390.0
1.863928525453061,5315335090877648.0,4.239332755933782e+16,7986757348175204.0,1.9373963483727636e+16,3436963057187.2256,21797792581649.973,1050668582628540.0,8641368298289942.0
2.001207095962122,5440681423933599.0,4.41864505126763e+16,8175101194505040.0,1.9830840330918828e+16,3791784776109.7896,24048220017391.535,1159260844800334.0,9552726713725010.0
2.1412312378813647,5559511309024159.0,4.597743208038523e+16,8353653507585184.0,2.026396528623496e+16,4159943663515.4214,26383242642519.61,1271932486426894.5,1.0497826304808024e+16
2.284055862638992,5672341441648403.0,4.77692321926108e+16,8523190667812001.0,2.067522166409187e+16,4541322566589.08,28802119283845.285,1388654938803281.2,1.1476480038404852e+16
2.4297369798917723,5779620268340303.0,4.9564492480578376e+16,8684386505481726.0,2.1066244016187084e+16,4935827901632.518,31304258210076.957,1509406665613302.8,1.2488594938844242e+16
2.578331719489608,5881740529809364.0,5.1365595123687224e+16,8837831147972095.0,2.1438463850459908e+16,5343386914652.026,33889199755575.18,1634172315072974.8,1.3534154693702658e+16
2.7298983538794,5979049007588767.0,5.31747090148893e+16,8984045664945032.0,2.179314515699604e+16,5763945499001.432,36556602479355.336,1762942056041564.0,1.4613206581339518e+16
2.884496320956988,6071854180211165.0,5.4993826429139e+16,9123493572428690.0,2.213141231428217e+16,6197466428727.975,39306231961125.836,1895711044636295.8,1.5725851619190798e+16
3.0421862473761276,6160432304543602.0,5.682479247786513e+16,9256589970561044.0,2.2454272255259496e+16,6643927912431.03,42137951629950.88,2032478987852977.5,1.687223708010564e+16
3.2030299723236504,6245032299313529.0,5.86693290126284e+16,9383708881519386.0,2.276263226743729e+16,7103322401174.39,45051715203858.39,2173249782536138.8,1.8052550744217012e+16
3.3670905717701234,6325879707529210.0,6.05290542074985e+16,9505189203406794.0,2.3057314435634788e+16,7575655601866.191,48047560432281.625,2318031214878506.0,1.9267016430015036e+16
3.5344323832055258,6403179942483614.0,6.240549874133136e+16,9621339587659438.0,2.3339067473432e+16,8060945659254.1455,51125603907714.89,2466834709744645.5,2.0515890478444684e+16
3.7051210308696363,6477120970357295.0,6.4300119278577064e+16,9732442469893972.0,2.360857650106142e+16,8559222477866.377,54286036764871.97,2619675121732128.0,2.179945895628952e+16
3.879223451487029,6547875544986943.0,6.6214309784434504e+16,9838757427844236.0,2.3866471190974508e+16,9070527161020.977,57529121122356.39,2776570561547901.0,2.3118035410797556e+16
4.0568079205167695,6615603082924377.0,6.814941108955905e+16,9940523998802584.0,2.411333260229205e+16,9594911548134.773,60855187147865.84,2937542252336298.5,2.4471959054507736e+16
4.237944078927105,6680451246715540.0,7.0106719029157864e+16,1.0037964058636122e+16,2.4349698951737364e+16,10132437834649.994,64264630647508.875,3102614411372328.5,2.5861593292214348e+16
4.422702960505647,6742557289445125.0,7.20874914128684e+16,1.013128384208326e+16,2.4576070514399652e+16,10683178261475.787,67757911096145.24,3271814153243814.0,2.7287324524338936e+16
4.61115701971576,6802049202518320.0,7.40929540294726e+16,1.0220675667396888e+16,2.4792913807311468e+16,11247214863103.637,71335550040007.69,3445171411325653.0,2.8749561176017132e+16
4.803380160110075,6859046700235287.0,7.61243058500961e+16,1.030631941575421e+16,2.500066517814737e+16,11824639265460.127,74998129814942.69,3622718874927850.5,3.0248732911950988e+16
4.9994477633122765,6913662068164119.0,7.818272356208728e+16,1.0388383806011666e+16,2.519973389747824e+16,12415552526040.844,78746292532991.62,3804491939921129.5,3.17852900054531e+16
5.199436718578522,6966000897153907.0,8.026936554108563e+16,1.0467027497624242e+16,2.5390504834192596e+16,13020065009969.234,82580739297003.42,3990528670930158.0,3.3359702836877736e+16
5.403425452950093,7016162720761287.0,8.238537534927987e+16,1.0542400048434852e+16,2.557334077886693e+16,13638296296478.88,86502229608382.75,4180869773403964.5,3.497246150190794e+16
5.611493962009095,7064241570675584.0,8.453188483232136e+16,1.0614642749249508e+16,2.5748584468247624e+16,14270375111059.602,90511580937777.12,4375558574085664.5,3.662407551401417e+16
5.823723841249277,7110326462227003.0,8.671001687491048e+16,1.0683889353356078e+16,2.59165603548902e+16,14916439279200.715,94609668432902.05,4574641008625381.0,3.831507358809968e+16
6.040198318074262,7154501820072682.0,8.892088786503131e+16,1.0750266716154944e+16,2.607757615875207e+16,15576635698300.318,98797424741740.23,4778165615292068.0,4.0046003494319496e+16
6.261002284435747,7196847852539099.0,9.116560990866349e+16,1.0813895357641452e+16,2.6231924231641176e+16,16251120324856.512,103075839932817.5,4986183533915333.0,4.181743197266878e+16
6.486222330124463,7237440881762221.0,9.344529283014747e+16,1.0874889958470454e+16,2.637988276055084e+16,16940058174492.113,107445961497026.33,5198748509315823.0,4.362994470037656e+16
6.715946776726952,7276353635652461.0,9.57610459879264e+16,1.0933359798659346e+16,2.6521716831849156e+16,17643623332702.67,111908894417606.42,5415916898569478.0,4.548414630544566e+16
6.950265712261491,7313655506786574.0,9.811397993089354e+16,1.0989409146595848e+16,2.6657679374919236e+16,18361998974486.69,116465801296598.86,5637747681516709.0,4.738066042080415e+16
7.18927102650672,7349412782565560.0,1.0050520791684779e+17,1.1043137604870496e+16,2.6788012001066576e+16,19095377391251.496,121117902527572.72,5864302473988174.0,4.932012977443817e+16
7.433056447036854,7383688850350787.0,1.0293584731146472e+17,1.1094640418511636e+16,2.6912945751223644e+16,19843960023609.023,125866476505826.1,6095645543283917.0,5.1303216311565304e+16
7.681717575977592,7416544380773205.0,1.0540702088359854e+17,1.1144008750423716e+16,2.7032701764097224e+16,20607957498889.098,130712859868611.64,6331843825510761.0,5.333060134542613e+16
7.935351927497144,7448037491979057.0,1.0791985801055264e+17,1.1191329928180754e+16,2.714749187483066e+16,21387589672399.246,135658447759219.67,6572966944449669.0,5.540298573368091e+16
8.194058966047088,7478223897209645.0,1.1047549580512062e+17,1.1236687665777952e+16,2.725751915291986e+16,22183085671642.605,140704694109909.17,6819087231683695.0,5.752109007774792e+16
8.45794014536803,7507157037799284.0,1.130750801746425e+17,1.1280162263472694e+16,2.7362978386979764e+16,22994683942864.625,145853111939686.03,7070279747765889.0,5.968565494274234e+16
8.72709894827539,7534888203404464.0,1.157197668209998e+17,1.1321830788439532e+16,2.7464056522969788e+16,23822632299433.758,151105273663781.1,7326622304244940.0,6.189744109597793e+16
9.0016409272409,7561466641043068.0,1.1841072218934293e+17,1.1361767238611066e+16,2.756093306163209e+16,24667187971675.137,156462811412402.62,7588195486397262.0,6.415722976227541e+16
9.281673745785717,7586939654319398.0,1.211491243723806e+17,1.1400042691772194e+16,2.7653780420158548e+16,25528617657874.46,161927417356962.03,7855082676540430.0,6.646582289457523e+16
9.567307220701432,7611352694036320.0,1.2393616397623282e+17,1.1436725441712882e+16,2.7742764262463892e+16,26407197576256.867,167500844042522.03,8127370077827158.0,6.882404345857382e+16
9.85865336511546,7634749441245086.0,1.2677304495313376e+17,1.1471881123017678e+16,2.7828043801894976e+16,27303213517824.92,173184904725725.62,8405146738442799.0,7.12327357302897e+16
10.155826432417769,7657171883653099.0,1.2966098540565307e+17,1.1505572825875132e+16,2.790977207973023e+16,28216960900013.098,178981473717923.34,8688504576152374.0,7.369276560562429e+16
10.458942961066125,7678660386197049.0,1.3260121836656874e+17,1.1537861202119996e+16,2.7988096222412068e+16,29148744821183.277,184892486733648.06,8977538403165699.0,7.620502092111904e+16
10.768121820287448,7699253756489887.0,1.3559499255805656e+17,1.15688045635731e+16,2.806315768009512e+16,30098880116046.168,190919941244967.72,9272345951309888.0,7.87704117852276e+16
11.083484256693197,7718989305763622.0,1.3864357313345478e+17,1.1598458973613122e+16,2.813509244877697e+16,31067691412147.17,197065896842582.9,9573027897517256.0,8.138987091952915e+16
11.405153941827061,7737902905852922.0,1.4174824240450157e+17,1.1626878332799464e+16,2.82040312779977e+16,32055513187599.78,203332475604830.84,9879687889652592.0,8.406435400940646e+16
11.733257020663602,7756029042696974.0,1.4491030055663568e+17,1.1654114459263402e+16,2.8270099865849e+16,33062689830288.934,209721862475994.53,1.0192432572717492e+16,8.679484006380254e+16
12.067922161076874,7773400866776355.0,1.4813106635467165e+17,1.1680217164493866e+16,2.833341904281143e+16,34089575698796.56,216236305655514.47,1.0511371615480546e+16,8.958233178375506e+16
12.409280604298411,7790050240848588.0,1.5141187784091923e+17,1.1705234325064284e+16,2.8394104945745836e+16,35136535185326.27,222878116999857.53,1.083661773759146e+16,9.242785593948392e+16
12.75746621638438,7806007785298260.0,1.5475409302760826e+17,1.1729211950775018e+16,2.845226918318965e+16,36203942780923.27,229649672438909.8,1.1168286737244478e+16,9.533246375588096e+16
13.112615540712067,7821302921375789.0,1.5815909058528506e+17,1.1752194249623408e+16,2.8508018992957824e+16,37292183143297.98,236553412408856.0,1.1506497519462698e+16,9.829723130631317e+16
13.474867851526309,7835963912561548.0,1.6162827052868893e+17,1.177422368995687e+16,2.8561457392910576e+16,38401651167571.41,243591842303551.72,1.1851372125079764e+16,1.0132325991470898e+17
13.844365208556836,7850017904259246.0,1.651630549014646e+17,1.1795341060115702e+16,2.8612683325631628e+16,39532752060264.44,250767532946438.94,1.2203035760498702e+16,1.0441167656595267e+17
14.221252512727972,7863490961993427.0,1.687648884609394e+17,1.181558552582809e+16,2.866179179765387e+16,40685901416855.14,258083121085048.22,1.2561616828311292e+16,1.0756363432465078e+17
14.605677562982532,7876408108260387.0,1.7243523936407763e+17,1.1834994685581792e+16,2.870887401377703e+16,41861525303224.375,265541309910129.62,1.292724695886213e+16,1.1078031276238294e+17
14.997791114242183,7888793358159182.0,1.7617559985562576e+17,1.185360462416279e+16,2.875401750693874e+16,43060060341305.914,273144869601412.28,1.3300061042843458e+16,1.1406291839357886e+17
15.397746936527026,7900669753909766.0,1.7998748695936832e+17,1.1871449964521814e+16,2.8797306264029444e+16,44281953799249.055,280896637901945.2,1.3680197265006154e+16,1.1741268512019997e+17
15.805701875257567,7912059398347971.0,1.8387244317333766e+17,1.1888563918103396e+16,2.883882084797771e+16,45527663686390.484,288799520722910.0,1.4067797139072098e+16,1.2083087468542718e+17
16.221815912762718,7922983487471854.0,1.8783203716975056e+17,1.1904978333749592e+16,2.8878638516378244e+16,46797658853321.4,296856492780715.1,1.446300554393107e+16,1.2431877713658581e+17
16.64625223101797,7933462342101132.0,1.918678645003827e+17,1.1920723745270944e+16,2.891683333688694e+16,48092419097320.61,305070598268092.7,1.4865970761204108e+16,1.2787771129755408e+17
17.079177275638333,7943515438699834.0,1.9598154830803693e+17,1.1935829417760294e+16,2.8953476299566036e+16,49412435273410.13,313444951560834.0,1.5276844514251612e+16,1.31509025250925e+17
17.5207608211511,7953161439402997.0,2.0017474004471987e+17,1.1950323392710368e+16,2.898863542632804e+16,50758209411272.86,321982737961677.8,1.5695782008702222e+16,1.3521409683020328e+17
17.97117603757412,7962418221279774.0,2.0444912019709043e+17,1.1964232531984136e+16,2.9022375877596484e+16,52130254838256.38,330687214482785.25,1.6122941974574678e+16,1.3899433412233419e+17
18.430599558325603,7971302904858587.0,2.0880639901972016e+17,1.1977582560676438e+16,2.9054760056277204e+16,53529096308668.24,339561710668099.94,1.6558486710061102e+16,1.428511759808701e+17
18.899211549492115,7979831881934314.0,2.1324831727666685e+17,1.1990398108896444e+16,2.9085847709112012e+16,54955270139552.3,348609629456811.06,1.7002582127036594e+16,1.467860925500912e+17
19.37719578048196,7988020842672570.0,2.1777664699183786e+17,1.200270275249441e+16,2.911569602547124e+16,56409324353117.445,357834448089002.25,1.7455397798355518e+16,1.5080058580040224e+17
19.864739696091597,7995884802022709.0,2.223931922086025e+17,1.201451905274936e+16,2.9144359733625896e+16,57891818825974.875,367239719054487.3,1.7917107006991448e+16,1.5489619007533274e+17
20.36203449001343,8003438125447955.0,2.270997897590862e+17,1.2025868595030864e+16,2.917189119453149e+16,59403325445321.75,376829071085709.25,1.8387886797073172e+16,1.5907447265047178e+17
20.869275179813698,8010694553979034.0,2.3189831004357315e+17,1.2036772026444276e+16,2.9198340493145452e+16,60944428272195.88,386606210195505.9,1.8867918026865532e+16,1.63337034304671e+17
21.38666068340997,8017667228595806.0,2.3679065782042128e+17,1.2047249092466204e+16,2.922375552729584e+16,62515723711909.445,396574920760424.1,1.93573854237399e+16,1.6768550990385114e+17
21.91439389707817,8024368713940582.0,2.4177877300689328e+17,1.2057318672575914e+16,2.9248182094113656e+16,64117820691757.88,406739066650207.94,1.985647764117568e+16,1.7212156899774554e+17
22.452681775019734,8030811021365905.0,2.4686463149129146e+17,1.2066998814886558e+16,2.927166397403956e+16,65751340846086.0,417102592403979.25,2.036538731783014e+16,1.7664691642991914e+17
23.00173541052013,8037005631319460.0,2.5205024595678176e+17,1.2076306769780368e+16,2.9294243012414496e+16,67416918708782.32,427669524453577.94,2.0884311138711588e+16,1.812632929613934e+17
23.561770118730532,8042963515068684.0,2.573376667172915e+17,1.208525902255187e+16,2.931595919866359e+16,69115201913263.055,438443972394445.7,2.141344989848691e+16,1.8597247590821277e+17
24.133005521105144,8048695155768081.0,2.6272898256585286e+17,1.2093871325063274e+16,2.933685074308428e+16,70846851399996.55,449430130304392.7,2.195300856695227e+16,1.9077627979328058e+17
24.715665631527248,8054210568872606.0,2.6822632163577574e+17,1.2102158726417406e+16,2.9356954151251052e+16,72612541631611.64,460632278110527.9,2.2503196356693304e+16,1.9567655701279923e+17
25.309978944157795,8059519321901257.0,2.7383185227502096e+17,1.2110135602654184e+16,2.9376304296051492e+16,74412960815627.84,472054783004591.75,2.3064226792958464e+16,2.0067519851763523e+17
25.91617852304095,8064630553555671.0,2.7954778393415597e+17,1.2117815685477924e+16,2.939493448737179e+16,76248811134836.33,483702100906898.3,2.3636317785767884e+16,2.0577413450994106e+17
26.53450209350177,8069552992199454.0,2.8537636806826982e+17,1.212521209002423e+16,2.941287653945189e+16,78120808985360.94,495578777979060.8,2.421969170427793e+16,2.1097533515535187e+17
27.165192135371807,8074294973704851.0,2.9131989905323046e+17,1.2132337341676058e+16,2.9430160835934824e+16,80029685222419.77,507689452185652.9,2.4814575453420316e+16,2.162808113110865e+17
27.808495978079243,8078864458674205.0,2.9738071511667046e+17,1.2139203401940586e+16,2.9446816392637188e+16,81976185413810.36,520038854904949.7,2.54212005528339e+16,2.216926152702658e+17
28.464665897640828,8083269049044762.0,3.035611992840861e+17,1.2145821693399176e+16,2.9462870918071936e+16,83961070101136.22,532631812588873.94,2.6039803218106116e+16,2.2721284152277382e+17
29.133959215593645,8087516004085968.0,3.098637803404489e+17,1.215220312374491e+16,2.947835087175705e+16,85985115068795.28,545473248472278.9,2.6670624444340116e+16,2.328436275329798e+17
29.816638399905518,8091612255799634.0,3.162909338077252e+17,1.2158358108922552e+16,2.9493281520347516e+16,88049111620748.39,558568184331696.75,2.7313910092064236e+16,2.3858715453463894e+17
30.51297116790363,8095564423733825.0,3.228451829387009e+17,1.2164296595387702e+16,2.950768699163056e+16,90153866865089.45,571921742293692.2,2.7969910975499296e+16,2.4444564834329078e+17
31.223230591261704,8099378829222289.0,3.295290997275292e+17,1.217002808150285e+16,2.952159032642688e+16,92300204006439.27,585539146692970.1,2.8638882953199876e+16,2.5042138018647814e+17
31.947695203086937,8103061509061814.0,3.363453059374075e+17,1.217556163808874e+16,2.9535013528443468e+16,94488962646189.1,599425725980407.4,2.9321087021085796e+16,2.5651666755210115e+17
32.686649107148675,8106618228640604.0,3.432964741458041e+17,1.2180905928150898e+16,2.954797761212509e+16,96720999090622.1,613586914681198.1,3.0016789407880736e+16,2.627338750552349e+17
33.44038208929165,8110054494531220.0,3.5038532880766246e+17,1.218606922580162e+16,2.9560502648554508e+16,98997186666943.9,628028255403320.0,3.072626167297509e+16,2.6907541532372992e+17
34.20918973107749,8113375566562134.0,3.576146473370109e+17,1.2191059434398562e+16,2.9572607809452028e+16,101318416047260.98,642755400896558.4,3.1449780806731384e+16,2.755437499029229e+17
34.993373525699035,8116586469382324.0,3.6498726120741434e+17,1.2195884103921524e+16,2.9584311409327452e+16,103685595580545.84,657774116162378.0,3.2187629333251468e+16,2.821413901797886e+17
35.793240996213015,8119692003533649.0,3.725060570717148e+17,1.2200550447609672e+16,2.9595630945837844e+16,106099651632636.44,673090280614903.6,3.294009541562508e+16,2.888708983268611e+17
36.60910581613728,8122696756045972.0,3.801739779015081e+17,1.2205065357881652e+16,2.9606583138405844e+16,108561528934320.39,688709890293381.5,3.3707472963681976e+16,2.9573488826626477e+17
37.44128793246003,8125605110570197.0,3.879940241468098e+17,1.2209435421561274e+16,2.9617183965153384e+16,111072190937561.3,704639060126469.0,3.449006174426891e+16,3.02736026654192e+17
