t(s),Total solute volume 1,Total retention volume 1,Total 1 volume 1,Total 2 volume 1,Total 3 volume 1,Total 4 volume 1,Total 5 volume 1,Total 6 volume 1
0.1,1144268928618327.0,1596229672649425.0,193012778181123.2,258947965849975.12,0.0,0.0,0.0,0.0
0.202,1712459655441902.8,2413663935552983.5,288853948552504.56,387529494682218.75,14449961553.53416,37127024167.97598,832329724390.0219,23936930166244.316
0.30604000000000003,2137701010623947.2,3044656518962939.5,360582730410242.2,483761584055641.75,36436615047.93193,93618680864.30249,2098867031951.3525,60382271545242.18
0.41216080000000005,2490905177188803.0,3585305176237394.0,420160436740639.5,563691662111270.2,64323291548.98308,165269798044.07834,3705297056164.6895,106613010050923.8
0.5204040160000001,2798843592628555.0,4071622815730430.0,472102815157067.44,633378103788534.6,97335489247.24998,250090450423.00735,5607000887916.086,161343877328682.53
0.6308120963200001,3074924786426307.0,4521532370979623.0,518671587105148.4,695855258471491.4,135018700979.43787,346912894038.18896,7777796235638.075,223821011146018.16
0.7434283382464002,3326977096930512.0,4945444822962988.0,561187219580769.7,752894678604043.5,177076673063.5627,454975994528.38885,10200617947878.256,293553157232191.44
0.8582969050113283,3560035604015370.5,5350031838487154.0,600499018845909.0,805635802413042.4,223304552709.94916,573753459361.1871,12863666423151.875,370200688777609.8
0.9754628431115548,3777563017620744.5,5739871852431693.0,637191067239844.1,854862240913455.0,273555741477.38956,702868672952.3782,15758498019529.479,453520604223687.1
1.094972099973786,3982060651796231.0,6118270565082510.0,671685280945394.8,901140041295937.8,327723410008.0094,842047201767.3989,18878960134814.84,543335860298353.9
1.2168715419732616,4175404680907777.0,6487710752691184.0,704298128950695.9,944893781684223.2,385729300386.01825,991088023864.4314,22220546130697.195,639516797693542.9
1.3412089728127268,4359044942728724.5,6850117188443342.0,735274166719875.1,986451560261163.5,447516513125.7805,1149844996326.3838,25779979809212.668,741969177414915.5
1.4680331522689813,4534129246887642.0,7207021671254623.0,764807004270206.5,1026073126261917.6,513044634938.87036,1318214336958.2842,29554934738494.58,850626100124466.6
1.597393815314361,4701584685691791.0,7559670575422819.0,793053021503976.5,1063968280607615.6,582286321009.2709,1496125843114.1565,33543837370134.055,965442338085174.0
1.729341691620648,4862172828627906.0,7909097594789682.0,820140678296151.2,1100309366417000.2,655224822854.4316,1683536540057.469,37745724629695.27,1086390235456026.6
1.863928525453061,5016528370473226.0,8256174502295161.0,846177033573237.4,1135240015071221.0,731852154227.53,1880425968667.9932,42160138263229.625,1213456666791355.8
2.001207095962122,5165186917198794.0,8601647520806843.0,871252432178657.6,1168881434161757.0,812167701192.3702,2086792614380.9753,46787044771407.2,1346640732180651.5
2.1412312378813647,5308605421620393.0,8946163986546107.0,895443951913656.6,1201337032076763.8,896177149738.2123,2302651151996.693,51626773636254.4,1485951978997293.2
2.284055862638992,5447177513214398.0,9290292289394186.0,918817989337106.2,1232695887137298.8,983891645670.4036,2528030287288.084,56679968928647.484,1631409008843781.5
2.4297369798917723,5581245199096870.0,9634537049109452.0,941432233461072.8,1263035395528047.0,1075327127840.8564,2762971043980.64,61947550901439.21,1783038371950210.5
2.578331719489608,5711107933398451.0,9979350846898340.0,963337195553124.0,1292423323696211.2,1170503793037.3428,3007525389012.089,67430685167095.336,1940873679901408.0
2.7298983538794,5837029743768883.0,1.0325143421386462e+16,984577411219523.5,1320919421078948.5,1269445662452.7693,3261755118789.6895,73130757727106.2,2104954886810771.2
2.884496320956988,5959244900368458.0,1.067228896805431e+16,1005192396638322.6,1348576702995743.8,1372180227636.1484,3525730949667.359,79049354580166.38,2275327702294314.0
3.0421862473761276,6077962475615422.0,1.102113199959789e+16,1025217417687559.0,1375442482518906.0,1478738159427.9954,3799531770256.219,85188244958778.02,2452043108887535.5
3.2030299723236504,6193370048689484.0,1.137199210005597e+16,1044684114812814.9,1401559208802438.8,1589153067385.7817,4083244023466.315,91549367474528.33,2635156963185851.0
3.3670905717701234,6305636742791010.0,1.1725167818475256e+16,1063621015345453.5,1426965154413598.0,1703461300112.707,4376961193648.4487,98134818619790.78,2824729664811649.0
3.5344323832055258,6414915736184039.0,1.2080939886046596e+16,1082053957059858.8,1451694983581707.2,1821701779046.4832,4680783379712.209,104946843197074.92,3020825880865161.0
3.7051210308696363,6521346354121101.0,1.2439573896067656e+16,1100006441034748.5,1475780225600622.5,1943915859866.4138,4994816939210.952,111987826339513.98,3223514316172598.5
3.879223451487029,6625055823902302.0,1.2801322553511184e+16,1117499927692677.5,1499249671998456.5,2070147216888.421,5319174191497.276,119260286855761.9,3432867521653584.5
4.0568079205167695,6726160756897372.0,1.3166427576870556e+16,1134554086784302.2,1522129711919066.8,2200441746744.333,5653973170433.476,126766871685949.9,3648961734666688.0
4.237944078927105,6824768407539892.0,1.3535121316908698e+16,1151187009752750.5,1544444617032362.2,2334847488358.1313,5999337418981.425,134510351296628.45,3871876746379720.5
4.422702960505647,6920977748824997.0,1.3907628143280048e+16,1167415391146243.2,1566216784919338.8,2473414556790.77,6355395819433.658,142493615874809.06,4101695792138448.0
4.61115701971576,7014880395818204.0,1.4284165639560704e+16,1183254684393523.5,1587466948062077.0,2616195088965.524,6722282454177.249,150719672206593.28,4338505461537149.5
4.803380160110075,7106561402482679.0,1.4664945639172068e+16,1198719236210940.0,1608214354165688.8,2763243199635.1533,7100136492781.16,159191641145998.84,4582395625474329.0
4.9994477633122765,7196099952298022.0,1.5050175128421958e+16,1213822403094530.2,1628476922445280.2,2914614946232.077,7489102101915.608,167912755595716.28,4833459377940265.0
5.199436718578522,7283569959345987.0,1.544005703797583e+16,1228576652709822.2,1648271379651650.2,3070368301467.902,7889328375191.659,176886358934497.78,5091792990657195.0
5.403425452950093,7369040593530385.0,1.5834790940189286e+16,1242993652484793.8,1667613378928452.5,3230563132731.7793,8300969280478.7,186115903836436.88,5357495878995998.0
5.611493962009095,7452576741200425.0,1.6234573666645654e+16,1257084347306801.0,1686517604051291.0,3395261187486.3467,8724183622641.991,195604951435990.78,5630670577841011.0
5.823723841249277,7534239410522065.0,1.6639599857766838e+16,1270859027899733.2,1704997861163172.5,3564526083982.8296,9159135019957.29,205357170799670.38,5911422726278269.0
6.040198318074262,7614086089386024.0,1.7050062454371458e+16,1284327391195162.0,1723067159769101.0,3738423306718.2476,9605991892720.572,215376338671173.3,6199861060150537.0
6.261002284435747,7692171062378181.0,1.7466153139435644e+16,1297498593798203.5,1740737784466431.2,3917020206142.002,10064927462787.27,225666339461587.34,6496097411662295.0
6.486222330124463,7768545692304758.0,1.788806273699345e+16,1310381299474581.5,1758021358654006.8,4100386002189.6177,10536119762956.412,236231165460341.44,6800246715334622.0
6.715946776726952,7843258670916647.0,1.8315981574030172e+16,1322983721442239.0,1774928901271067.2,4288591791280.1685,11019751655266.947,247074917245999.22,7112427019707682.0
6.950265712261491,7916356242776652.0,1.875009981033201e+16,1335313660132796.0,1791470877458363.2,4481710556464.23,11516010857401.287,258201804278847.5,7432759504271530.0
7.18927102650672,7987882405631731.0,1.9190607740516204e+16,1347378536989892.0,1807657243902400.5,4679817180450.918,12025089976499.912,269616145659668.03,7761368501175544.0
7.433056447036854,8057879090168792.0,1.9637696071851576e+16,1359185424790002.5,1823497489514160.8,4882988461278.9375,12547186549783.02,281322371041154.62,8098381521326378.0
7.681717575977592,8126386321625848.0,2.0091556180967884e+16,1370741074902652.8,1839000672001694.2,5091303130426.628,13082503091453.877,293325021680199.94,8443929284535631.0
7.935351927497144,8193442365390594.0,2.055238035212001e+16,1382051941849654.2,1854175450819043.0,5304841873183.287,13631247145426.566,305628751620793.5,8798145753421320.0
8.194058966047088,8259083858429616.0,2.1020361999311456e+16,1393124205474334.8,1869030116908715.8,5523687351125.474,14193631343478.512,318238328998581.0,9161168170805598.0
8.45794014536803,8323345928148987.0,2.149569587427682e+16,1403963790990643.0,1883572619599774.5,5747924226562.71,14769873468479.266,331158637459264.7,9533137100383100.0
8.72709894827539,8386262300078309.0,2.197857826206008e+16,1414576387147073.2,1897810590976751.5,5977639188833.346,15360196522390.016,344394677683993.3,9914196470462742.0
9.0016409272409,8447865395594674.0,2.2469207165706884e+16,1424967462710536.8,1911751367994577.8,6212920982346.307,15964828798766.512,357951569015768.2,1.0304493620610208e+16
9.281673745785717,8508186420750981.0,2.2967782481398584e+16,1435142281449713.5,1925402012580414.2,6453860436277.48,16584003959532.37,371834551181608.56,1.0704179351040046e+16
9.567307220701432,8567255447143012.0,2.347450616519472e+16,1445105915775545.2,1938769329933880.5,6700550495840.701,17217961115816.63,386048986105898.6,1.1113407974624784e+16
9.85865336511546,8625101485638169.0,2.398958239241154e+16,1454863259177618.8,1951859885211828.0,6953086255063.513,17866944912678.098,400600359810890.06,1.153233737140531e+16
10.155826432417769,8681752553691190.0,2.4513217710542864e+16,1464419037578879.2,1964680018761938.2,7211564991006.326,18531205617558.82,415494284400871.8,1.1961129045501386e+16
10.458942961066125,8737235736889292.0,2.5045621186529004e+16,1473777819716862.2,1977235860050324.2,7476086199371.752,19210999212331.35,430736500126944.44,1.2399948184333872e+16
10.768121820287448,8791577245295245.0,2.558700454908643e+16,1482944026647576.5,1989533340412002.0,7746751631457.625,19906587488820.812,446332877529743.8,1.2848963720081586e+16
11.083484256693197,8844802465094213.0,2.6137582326735244e+16,1491921940457162.5,2001578204738561.2,8023665332413.655,20618238147699.67,462289419657827.9,1.330834839330733e+16
11.405153941827061,8896936005994416.0,2.6697571982092276e+16,1500715712257320.0,2013376022204910.5,8306933680766.655,21346224900667.047,478612264359741.06,1.3778278818694468e+16
11.733257020663602,8948001744782952.0,2.726719404294015e+16,1509329369532222.2,2024932196125977.5,8596665429185.117,22090827575836.938,495307686648076.2,1.425893555284595e+16
12.067922161076874,8998022865395645.0,2.7846672230528012e+16,1517766822897406.0,2036251973024523.5,8892971746457.34,22852332226271.418,512382101134091.5,1.4750503164103636e+16
12.409280604298411,9047021895822544.0,2.8436233585517504e+16,1526031872324917.8,2047340450982812.5,9195966260662.371,23631031241605.812,529842064531703.7,1.5253170304353276e+16
12.75746621638438,9095020742136802.0,2.9036108591945584e+16,1534128212883218.8,2058202587343393.2,9505765103515.865,24427223462721.715,547694278229852.7,1.5767129782786166e+16
13.112615540712067,9142040719906560.0,2.9646531299541204e+16,1542059440035681.5,2068843205817569.2,9822486955876.793,25241214299431.348,565945590932457.4,1.629257864159362e+16
13.474867851526309,9188102583222330.0,3.0267739444701604e+16,1549829054536848.5,2079267003054303.8,10146253094403.63,26073315851147.645,584603001365340.9,1.6829718233577218e+16
13.844365208556836,9233226551550612.0,3.0899974570408744e+16,1557440466962078.0,2089478554717209.5,10477187439351.82,26923847030517.71,603673661049670.5,1.7378754301659296e+16
14.221252512727972,9277432334603036.0,3.15434821453389e+16,1564897001902379.2,2099482321112403.8,10815416603506.143,27793133690006.67,623164877141587.5,1.7939897060285984e+16
14.605677562982532,9320739155392674.0,3.219851168239941e+16,1572201901853515.8,2109282652406184.2,11161069942245.086,28681508751423.633,643084115337877.0,1.851336127871545e+16
14.997791114242183,9363165771633002.0,3.2865316856907596e+16,1579358330825526.8,2118883793467556.2,11514279604734.809,29589312338387.957,663439002847611.1,1.909936636619077e+16
15.397746936527026,9404730495619648.0,3.354415562460856e+16,1586369377696371.0,2128289888367554.2,11875180586254.31,30516891911737.465,684237331429828.4,1.9698136458997136e+16
15.805701875257567,9445451212723570.0,3.423529033971508e+16,1593238059331249.5,2137504984564152.8,12243910781653.13,31464602407888.074,705487060497422.6,2.030990050940912e+16
16.221815912762718,9485345398610612.0,3.493898787313848e+16,1599967323487251.0,2146533036799145.2,12620611039946.416,32432806380154.492,727196320287524.9,2.093489237653384e+16
16.64625223101797,9524430135294246.0,3.565551973106858e+16,1606560051521002.2,2155377910730781.2,13005425220052.57,33421874143050.234,749373415098739.5,2.157335091906069e+16
17.079177275638333,9562722126116234.0,3.6385162174048e+16,1613019060915633.0,2164043386323984.5,13398500247680.88,34432183919586.027,772026826595660.6,2.222552008992926e+16
17.5207608211511,9600237709744134.0,3.712819633668023e+16,1619347107641830.0,2172533161017903.2,13799986173377.484,35464121991589.664,795165217181250.0,2.28916490329301e+16
17.97117603757412,9636992873264614.0,3.788490834809806e+16,1625546888366374.8,2180850852688973.0,14210036231739.371,36518082853076.16,818797433437622.6,2.3571992181255772e+16
18.430599558325603,9673003264445928.0,3.865558945331601e+16,1631621042520577.2,2189000002425929.8,14628806901807.79,37594469366696.17,842932509636010.1,2.4266809358019064e+16
18.899211549492115,9708284203236494.0,3.944053613557846e+16,1637572154239814.5,2196984077131882.0,15056457968653.244,38693692923298.74,867579671316540.6,2.497636587876178e+16
19.37719578048196,9742850692560026.0,4.024005023981538e+16,1643402754184405.0,2204806471967285.0,15493152586164.828,39816173604641.34,892748338938758.1,2.5700932655974216e+16
19.864739696091597,9776717428463234.0,4.105443909730537e+16,1649115321251366.5,2212470512646372.8,15939057341059.03,40962340349289.234,918448131603687.2,2.6440786305650292e+16
20.36203449001343,9809898809667540.0,4.1884015651645384e+16,1654712284185511.0,2219979457598673.5,16394342318122.494,42132631121744.05,944688870848396.5,2.719620925590539e+16
20.869275179813698,9842408946571306.0,4.2729098586123736e+16,1660196023097954.2,2227336500006241.5,16859181166705.72,43327493084845.05,971480584514063.8,2.7967489857682576e+16
21.38666068340997,9874261669745342.0,4.35900124525802e+16,1665568870899130.0,2234544769726205.8,17333751168484.22,44547382775491.59,998833510688574.5,2.875492249757706e+16
21.91439389707817,9905470537961870.0,4.446708780184704e+16,1670833114653042.2,2241607335107656.2,17818233306505.434,45792766283732.56,1026758101724756.9,2.955880771280938e+16
22.452681775019734,9936048845791982.0,4.536066131584686e+16,1675990996858872.2,2248527204711030.5,18312812335539.848,47064119435277.28,1055265028335369.4,3.0379452308378788e+16
23.00173541052013,9966009630805930.0,4.627107594143573e+16,1681044716665442.0,2255307328937485.0,18817676853756.406,48361927977475.91,1084365183766073.6,3.1217169476429496e+16
23.561770118730532,9995365680406016.0,4.719868102606242e+16,1685996431023788.2,2261950601575202.5,19333019375741.79,49686687768829.29,1114069688047595.6,3.207227891786516e+16
24.133005521105144,1.0024129538320282e+16,4.8143832455324424e+16,1690848255782511.8,2268459861268880.0,19859036406885.098,51038904972081.625,1144389892328373.5,3.29451069662455e+16
24.715665631527248,1.0052313510782848e+16,4.91068927924938e+16,1695602266730268.8,2274837892918398.5,20395928519149.184,52419096250956.04,1175337383288974.8,3.3835986714003256e+16
25.309978944157795,1.0079929672424674e+16,5.008823142008282e+16,1700260500589387.5,2281087429011841.0,20943900428251.867,53827788970593.55,1206923987639735.0,3.4745258141018404e+16
25.91617852304095,1.0106989871896286e+16,5.108822468352404e+16,1704824955964316.2,2287211150897952.0,21503161072278.047,55265521401756.88,1239161776702891.5,3.5673268245588564e+16
26.53450209350177,1.0133505737242606e+16,5.2107256037030376e+16,1709297594248235.8,2293211690002428.0,22073923691748.727,56732842928864.914,1272063071080750.0,3.662037117783578e+16
27.165192135371807,1.01594886810484e+16,5.314571619170627e+16,1713680340490976.0,2299091628992382.0,22656405911169.383,58230314261921.02,1305640445411353.0,3.7586928375590264e+16
27.808495978079243,1.0184949905371306e+16,5.420400326597584e+16,1717975084231124.8,2304853502892642.0,23250829822083.406,59758507652404.85,1339906733213093.8,3.8573308702793096e+16
28.464665897640828,1.0209900406477912e+16,5.528252293839291e+16,1722183680294872.5,2310499800157543.0,23857422067654.62,61318007113193.79,1374875031819911.2,3.957988859046182e+16
29.133959215593645,1.0234350979397466e+16,5.638168860290267e+16,1726307949564128.8,2316032963701420.5,24476413928806.64,62909408642588.67,1410558707408590.0,4.060705218025965e+16
29.816638399905518,1.0258312222306042e+16,5.750192152661467e+16,1730349679716076.2,2321455391890773.5,25108041411943.633,64533320452509.03,1446971400119828.5,4.165519147071754e+16
30.51297116790363,1.0281794540754074e+16,5.864365101015517e+16,1734310625936180.0,2326769439500920.0,25752545338280.785,66190363200939.664,1484127029274657.0,4.272470646615011e+16
31.223230591261704,1.0304808151747522e+16,5.980731455066135e+16,1738192511606670.8,2331977418639596.5,26410171434810.008,67881170228694.62,1522039798688003.0,4.381600532831604e+16
31.947695203086937,1.0327363087693732e+16,6.0993358007480056e+16,1741997028972080.5,2337081599639876.0,27081170426931.414,69606387800581.84,1560724202080980.8,4.492950453086596e+16
32.686649107148675,1.0349469200221152e+16,6.220223577063689e+16,1745725839783547.2,2342084211924587.5,27765798132776.066,71366675351041.14,1600195028593764.2,4.606562901663006e+16
33.44038208929165,1.0371136163881618e+16,6.34344109321351e+16,1749380575923314.0,2346987444844141.5,28464315559250.387,73162705734338.11,1640467368400772.0,4.722481235779158e+16
34.20918973107749,1.0392373479743328e+16,6.469035546014949e+16,1752962840010786.5,2351793448489609.0,29176988999831.72,74995165479390.8,1681556618429953.2,4.840749691899661e+16
34.993373525699035,1.0413190478881842e+16,6.597055037617866e+16,1756474205991397.8,2356504334482775.0,29904090134143.086,76864755049313.98,1723478488188083.5,4.961413402345123e+16
35.793240996213015,1.0433596325776112e+16,6.727548593521494e+16,1759916219709397.0,2361122176744565.0,30645896129338.824,78772189105760.72,1766249005693833.8,5.0845184122055896e+16
36.60910581613728,1.0453600021615172e+16,6.860566180899786e+16,1763290399465689.0,2365649012243478.0,31402689743330.66,80718196778149.45,1809884523520624.5,5.210111696563139e+16
37.44128793246003,1.0473210407522328e+16,6.9961587272413e+16,1766598236561605.8,2370086841725098.5,32174759429885.51,82703521937855.27,1854401724951062.8,5.338241178028517e+16
38.29011369110923,1.0492436167700808e+16,7.134378139309841e+16,1769841195829567.5,2374437630424059.0,32962399445625.973,84728923477461.55,1899817630245043.0,5.4689557445975864e+16
39.15591596493141,1.0511285832506974e+16,7.27527732243213e+16,1773020716151429.0,2378703308759419.5,33765909958965.3,86795175595150.64,1946149603023384.2,5.602305267832608e+16
40.03903428423004,1.0529767781454574e+16,7.418910200119018e+16,1776138210965259.0,2382885773014595.5,34585597161008.992,88903068084326.58,1993415356769080.0,5.738340621374122e+16
40.93981496991464,1.0547890246154936e+16,7.565331734026178e+16,1779195068761243.5,2386986886002682.5,35421773378455.1,91053406628562.58,2041632961448134.0,5.8771136997887624e+16
41.85861126931294,1.0565661313196122e+16,7.7145979442611e+16,1782192653567389.2,2391008477718034.0,36274757188525.69,93247013101957.98,2090820850252141.2,6.018677437758668e+16
42.7957834946992,1.0583088926965268e+16,7.866765930042317e+16,1785132305425547.0,2394952345974944.5,37144873535964.16,95484725875006.05,2140997826464553.2,6.16308582961819e+16
