t(s),Total solute volume 1,Total retention volume 1,Total 1 volume 1,Total 2 volume 1,Total 3 volume 1,Total 4 volume 1,Total 5 volume 1,Total 6 volume 1
0.1,858476762157242.6,970941579421749.6,55300119698977.766,57164697565528.79,0.0,0.0,0.0,0.0
0.202,1293523449878272.0,1462988029047267.8,83324330791957.61,86133813281145.33,14859475.870570425,25564735.614375703,314194145.9003628,6080477535.288395
0.30604000000000003,1624831894091720.0,1837709455766368.2,104666081047800.5,108195152591263.48,37703228.44249622,64865891.27141142,797211885.4867625,15428254578.530405
0.41216080000000005,1905064628477163.8,2154666777825181.0,122717709774666.02,126855435904239.22,66972417.94802012,115221585.11056854,1416091970.0245574,27405383139.151016
0.5204040160000001,2153929863193142.2,2436149781531505.0,138748752077919.86,143427003802076.62,101975404.55879022,175441896.78045952,2156210007.4335623,41728831056.225334
0.6308120963200001,2381245441376192.0,2693262336733026.5,153391639639333.25,158563611942117.53,142341291.21280104,244888722.69696552,3009723571.4071035,58246821801.269936
0.7434283382464002,2592717229648895.0,2932457715773768.5,167013924758437.72,172645205544804.22,187858110.3619325,323197386.9831015,3972150721.3538923,76872615413.98355
0.8582969050113283,2792000347321386.5,3157869825407423.5,179851057647420.03,185915173599419.22,238406350.3110427,410162277.9320591,5040964447.717049,97557306115.33885
0.9754628431115548,2981599437093419.0,3372331403353332.0,192064378772878.38,198540296559082.16,293926206.5538492,505680506.1020346,6214900217.799543,120276421021.10994
1.094972099973786,3163317975322523.0,3577882182639310.0,203770061877686.2,210640665247128.94,354399447.3534892,609720705.2518793,7493572532.827776,145022499281.75452
1.2168715419732616,3338504924412375.5,3776047851987431.5,215055002479358.66,222306105074895.75,419838518.11372215,722304287.136268,8877244545.623777,171800633451.60092
1.3412089728127268,3508200201723296.5,3968004578880918.5,225986188476852.22,233605862601351.44,490279590.85038954,843493483.5841737,10366681095.395235,200625625249.45987
1.4680331522689813,3673225421756991.0,4154681637426705.5,236616545449947.8,244594647920971.94,565777924.4222242,973383364.0853895,11963050602.322844,231520086912.3134
1.597393815314361,3834243112608019.0,4336828381073883.5,246988751179346.0,255316577799672.9,646404656.9548159,1112096317.3703163,13667857245.114077,264513128620.10986
1.729341691620648,3991796820755678.5,4515059600350248.0,257137819059396.7,265807846193581.16,732244527.4225432,1259778131.544334,15482892785.10575,299639426142.8922
1.863928525453061,4146339130202953.5,4689887211935332.0,267092902994645.6,276098590002064.12,823394223.2823083,1416595151.3027275,17410201627.895916,336938544675.3737
2.001207095962122,4298251762486732.0,4861742991347103.0,276878592173345.72,286214227497678.3,919961163.6473231,1582732184.463406,19452055094.234985,376454440899.26746
2.1412312378813647,4447860327794845.5,5030995256138063.0,286515861283668.7,296176440581237.7,1022062593.9325798,1758390944.3659585,21610932276.81687,418235092503.10846
2.284055862638992,4595445367232650.0,5197961354461800.0,296022781818536.0,306003910070013.3,1129824908.6925764,1943788884.8604152,23889505722.07181,462332221080.7243
2.4297369798917723,4741250763863975.0,5362917177783564.0,305415063885939.5,315712875776506.9,1243383145.2744694,2139158329.1726305,26290630723.759132,508801084929.11743
2.578331719489608,4885490248925518.0,5526104519381554.0,314706475319009.75,325317569754998.94,1362880608.1558442,2344745826.7051487,28817338111.96742,557700417469.3474
2.7298983538794,5028352504726893.0,5687736845224509.0,323909170378717.1,334830556066373.25,1488468593.0595438,2560811666.0254407,31472825498.995354,609091946766.5284
2.884496320956988,5170005215458053.0,5848003875984533.0,333033950705958.0,344263000560555.6,1620306194.161875,2787629561.6924424,34260457572.93606,663040866626.0175
3.0421862473761276,5310598320246914.0,6007075265796705.0,342090474863543.6,353624887462298.94,1758560172.488911,3025486415.5312424,37183760408.38083,719615416932.5161
3.2030299723236504,5450266651085705.0,6165103585835525.0,351087428264579.5,362925195034535.8,1903404878.1683402,3274682185.9458885,40246420547.64315,778886943092.4086
3.3670905717701234,5589132092112910.0,6322226766458767.0,360032662265975.4,372172039361773.7,2055022215.6358774,3535529828.061383,43452284265.092064,840929881797.3206
3.5344323832055258,5727305361997507.0,6478570113093589.0,368933308983502.06,381372793036413.75,2213601645.106109,3808355296.256155,46805357598.2771,905821761625.7885
3.7051210308696363,5864887496648832.0,6634247983203013.0,377795876802866.5,390534183890219.25,2379340214.8669057,4093497599.724691,50309807030.80086,973643216258.2764
3.879223451487029,6001971091476392.0,6789365191313579.0,386626330401811.25,399662377714552.44,2552442620.130071,4391308903.728397,53969960736.71075,1044478008559.2012
4.0568079205167695,6138641349091755.0,6944018194006941.0,395430158239468.25,408763048025295.1,2733121285.067921,4702154670.736493,57790310315.14645,1118413064146.9424
4.237944078927105,6274976968357267.0,7098296095483004.0,404212429825818.7,417841435263289.8,2921596465.358833,5026413836.851364,61775512958.63847,1195538513356.2737
4.422702960505647,6411050903123283.0,7252281505747857.0,412977844596933.5,426902397317525.1,3118096369.105561,5364479019.843117,65930394009.89148,1275947740719.12
4.61115701971576,6546931013210346.0,7406051276937623.0,421730773849010.7,435950452873084.8,3322857294.4166636,5716756755.852004,70259949870.90141,1359737441264.0505
4.803380160110075,6682680625728384.0,7559677138239420.0,430475296896617.8,444989818788550.56,3536123782.2800937,6083667762.40044,74769351235.4192,1447007683073.4421
4.9994477633122765,6818359021347584.0,7713226245938533.0,439215232396597.3,454024442476068.6,3758148783.630021,6465647225.823151,79463946621.52286,1537861975648.6401
5.199436718578522,6954021857407391.0,7866761662035088.0,447954165603291.5,463058030075552.94,3989193839.7273154,6863145111.60327,84349266185.7038,1632407343723.2202
5.403425452950093,7089721537592137.0,8020342772432547.0,456695472181768.1,472094071070832.94,4229529275.1535525,7276626496.409155,89431025803.66035,1730754406237.8398
5.611493962009095,7225507536182645.0,8174025653756714.0,465442339095005.3,481135859881093.06,4479434402.86522,7706571920.879931,94715131406.0987,1833017460250.1938
5.823723841249277,7361426683515362.0,8327863396305396.0,474197782992176.2,490186514869173.3,4739197740.876474,8153477762.417735,100207683560.41722,1939314569603.5083
6.040198318074262,7497523418168874.0,8481906389371180.0,482964666453638.06,499248995134291.0,5009117240.240469,8617856627.41835,105914982291.29454,2049767658218.5398
6.261002284435747,7633840010494313.0,8636202574159238.0,491745712389998.06,508326115396608.1,5289500524.0841875,9100237762.518988,111843532135.00143,2164502607908.7402
6.486222330124463,7770416761370742.0,8790797668688729.0,500543516845246.9,517420559232054.6,5580665137.524307,9601167484.566298,118000047423.78519,2283649360648.0527
6.715946776726952,7907292179461120.0,8945735368383112.0,509360560414978.9,526534890875539.1,5882938808.35251,10121209629.11283,124391457797.97775,2407342025245.712
6.950265712261491,8044503139746432.0,9101057525490624.0,518199218458615.1,535671565777503.9,6196659718.432445,10660946017.34232,131024913944.5915,2535718988404.2896
7.18927102650672,8182085025702267.0,9256804310008896.0,527061770257932.4,544832940071254.9,6522176785.795383,11220976941.401705,137907793562.14157,2668923030155.8154
7.433056447036854,8320071857138370.0,9413014354398890.0,535950407252041.94,554021279085606.44,6859849957.462556,11801921668.187805,145047707552.27832,2807101443687.322
7.681717575977592,8458496405433972.0,9569724884048160.0,544867240460456.9,563238765018228.2,7210050513.056691,12404418961.696644,152452506439.55615,2950406159581.446
7.935351927497144,8597390297660370.0,9726971835170234.0,553814307190311.4,572487503869020.1,7573161379.297048,13029127624.097218,160130287021.33316,3098993874510.708
8.194058966047088,8736784110878748.0,9884789961596924.0,562793577110697.1,581769531719260.2,7949577455.500156,13676727055.740025,168089399250.37912,3253026184435.353
8.45794014536803,8876707457729160.0,1.0043212931725518e+16,571806957766018.0,591086820430852.8,8339705950.233554,14347917834.354282,176338453353.3203,3412669722365.201
8.72709894827539,9017189064280020.0,1.0202273416717996e+16,580856299590778.9,600441282830203.0,8743966729.293243,15043422313.726982,184886327188.51273,3578096300755.2495
9.0016409272409,9158256840983616.0,1.0362003170907326e+16,589943400480305.6,609834777433048.0,9162792675.196697,15763985242.19393,193742173847.41644,3749483058613.5273
9.281673745785717,9299937947475642.0,1.0522433105247276e+16,599070009964897.2,619269112759362.0,9596630058.402645,16510374401.306522,202915429503.92963,3927012613407.6865
9.567307220701432,9442258851866726.0,1.0683593354536962e+16,608237833029184.1,628746051281477.6,10045938920.48749,17283381265.06941,212415821516.5425,4110873217864.4355
9.85865336511546,9585245385093684.0,1.0845513339063944e+16,617448533613256.9,638267313043275.9,10511193469.52541,18083821680.17432,222253376788.54004,4301258921762.7646
10.155826432417769,9728922790832482.0,1.1008221821232416e+16,626703737827880.0,647834578983797.4,10992882487.935673,18912536567.68324,232438430391.8191,4498369738828.914
10.458942961066125,9873315771414026.0,1.117174695767668e+16,636005036912235.5,657449493994727.0,11491509753.076231,19770392646.64081,242981634460.2221,4702411818847.252
10.768121820287448,1.001844853013531e+16,1.133611634730271e+16,645353989959451.2,667113669737810.9,12007594470.877554,20658283180.123142,253893967358.61832,4913597625107.419
11.083484256693197,1.0164344810311954e+16,1.1501357075650436e+16,654752126432241.6,676828687245316.5,12541671722.826132,21577128744.253136,265186743134.2454,5132146117314.143
11.405153941827061,1.0311027931381346e+16,1.1667495755926294e+16,664200948488540.0,686596099324093.2,13094292926.620037,22527878020.739017,276871621257.16156,5358282940092.086
11.733257020663602,1.0458520822331026e+16,1.1834558567016176e+16,673701933134845.8,696417432781499.1,13666026310.83413,23511508613.51562,288960616656.91705,5592240617223.159
12.067922161076874,1.0606846052697156e+16,1.2002571288756878e+16,683256534223042.9,706294190489572.6,14257457403.945095,24529027890.09207,301466110062.87836,5834258751760.555
12.409280604298411,1.0756025861353108e+16,1.2171559334714184e+16,692866184304847.4,716227853302003.5,14869189538.081112,25581473848.231674,314400858655.89325,6084584232167.695
12.75746621638438,1.0906082183283918e+16,1.23415477826895e+16,702532296356532.5,726219881836989.9,15501844367.873423,26669916008.615868,327778007039.28864,6343471444637.494
13.112615540712067,1.105703667452289e+16,1.251256140315494e+16,712256265385269.6,736271718137766.9,16156062404.801186,27795456334.162395,341611098537.47736,6611182491751.317
13.474867851526309,1.120891073540953e+16,1.2684624685796346e+16,722039469927310.0,746384787221289.9,16832503567.434385,28959230176.696926,355914086830.72504,6887987417643.648
13.844365208556836,1.1361725532310618e+16,1.2857761864325184e+16,731883273447188.6,756560498524611.6,17531847747.99203,30162407251.694275,370701347934.90625,7174164439843.12
14.221252512727972,1.1515502017933652e+16,1.303199693970601e+16,741789025646241.4,766800247257538.0,18254795395.647633,31406192641.833298,385987692535.3805,7470000187966.66
14.605677562982532,1.1670260950348936e+16,1.3207353701930248e+16,751758063687945.5,777105415669266.6,19002068117.026924,32691827830.130207,401788378684.3987,7775789949448.656
14.997791114242183,1.1826022910824998e+16,1.3383855750456268e+16,761791713346821.9,787477374236024.6,19774409294.355453,34020591763.438942,418119124871.72675,8091837922492.746
15.397746936527026,1.1982808320573372e+16,1.3561526513423132e+16,771891290087062.8,797917482776091.6,20572584721.729977,35393801947.13263,434996123478.4777,8418457476439.692
15.805701875257567,1.214063745648853e+16,1.3740389265736058e+16,782058100076461.6,808427091497870.9,21397383259.99814,36812815571.80069,452436054624.42944,8755971419749.86
16.221815912762718,1.2299530465961744e+16,1.3920467146113166e+16,792293441140651.2,819007541986355.9,22249617510.747723,38279030672.82329,470456100419.41675,9104712275805.3
16.64625223101797,1.2459507380840342e+16,1.4101783173173484e+16,802598603662322.8,829660168132620.9,23130124509.919304,39793887323.7088,489073959629.6578,9465022566741.582
17.079177275638333,1.2620588130596882e+16,1.4284360260640828e+16,812974871429545.2,840386297010775.9,24039766441.57169,41358868864.10159,508307862770.1998,9837255105525.967
17.5207608211511,1.2782792554767934e+16,1.4468221231729816e+16,823423522437007.0,851187249706207.0,24979431372.34155,42975503163.39689,528176587634.9655,10221773296503.576
17.97117603757412,1.2946140414715626e+16,1.4653388832775952e+16,833945829643683.9,862064342098797.5,25950034007.157486,44645363920.92083,548699475276.2018,10618951444640.033
18.430599558325603,1.3110651404761744e+16,1.4839885746164686e+16,844543061690026.5,873018885604299.2,26952516466.77746,46370072003.66032,569896446445.4026,11029175073694.47
18.899211549492115,1.3276345162738072e+16,1.5027734602610516e+16,855216483577602.0,884052187876879.6,27987849087.73934,48151296822.55204,591788018508.1376,11452841253562.81
19.37719578048196,1.344324127999384e+16,1.521695799283198e+16,865967357313741.2,895165553475513.5,29057031245.323895,49990757748.36497,614395322845.4858,11890358937037.254
19.864739696091597,1.361135931089732e+16,1.5407578478664298e+16,876796942523566.1,906360284496651.2,30161092200.146084,51890225568.23665,637740122755.0913,12342149306233.643
20.36203449001343,1.3780718781863064e+16,1.559961860364672e+16,887706497031536.0,917637681175354.8,31301091969.00515,53851523983.944786,661844831865.1538,12808646128944.344
20.869275179813698,1.3951339199935866e+16,1.5793100903118764e+16,898697277414365.9,928999042456881.4,32478122220.636353,55876531153.022964,686732533074.9681,13290296125179.62
21.38666068340997,1.4123240060955984e+16,1.5988047913854046e+16,909770539527015.2,940445666540389.9,33693307197.020184,57967181273.84817,712426998035.8867,13787559344165.727
21.91439389707817,1.429644085732867e+16,1.61844821832583e+16,920927539003177.2,951978851396311.0,34947804660.9191,60125466215.85245,738952707186.8137,14300909552073.479
22.452681775019734,1.4470961085417196e+16,1.638242627815249e+16,932169531731495.6,963599895258623.9,36242806870.3198,62353437196.0256,766334870358.6443,14830834630754.635
23.00173541052013,1.4646820252574036e+16,1.6581902793159434e+16,943497774308510.5,975310097093074.4,37579541580.47139,64653206502.89687,794599447962.2124,15377836987768.299
23.561770118730532,1.4824037883822546e+16,1.6782934358706772e+16,954913524469055.5,987110757042069.6,38959273074.21667,67026949269.19472,823773172774.4406,15942433977982.023
24.133005521105144,1.500263352819598e+16,1.6985543648655308e+16,966418041494597.1,999003176846813.2,40383303221.316895,69476905294.3915,853883572337.6127,16525158337034.68
24.715665631527248,1.5182626764737782e+16,1.7189753387556764e+16,978012586599752.5,1010988660246821.6,41852972567.47872,72005380918.34813,884958991986.6018,17126558626949.523
25.309978944157795,1.5364037208160818e+16,1.7395586357539558e+16,989698423296850.1,1023068513356801.6,43369661453.78353,74614750947.26993,917028618519.0206,17747199694184.855
25.91617852304095,1.5546884514159916e+16,1.760306540481515e+16,1001476817738119.4,1035244045020374.0,44934791167.22126,77307460633.17525,950122504522.9976,18387663140408.54
26.53450209350177,1.573118838436448e+16,1.7812213445791578e+16,1013349039034747.5,1047516567139873.4,46549825123.0164,80086027708.06427,984271593377.2078,19048547806277.207
27.165192135371807,1.5916968570913476e+16,1.8023053472773984e+16,1025316359551563.6,1059887394980986.9,48216270079.42056,82953044473.94646,1019507744937.376,19730470268496.355
27.808495978079243,1.6104244880627436e+16,1.823560855922349e+16,1037380055175806.0,1072357847450567.5,49935677385.622856,85911179949.84915,1055863761923.0343,20434065350427.02
28.464665897640828,1.6293037178745222e+16,1.8449901864538336e+16,1049541405557809.1,1084929247345445.1,51709644263.39977,88963182076.87408,1093373417017.6781,21159986646492.844
29.133959215593645,1.6483365392184852e+16,1.866595663831192e+16,1061801694321067.0,1097602921569573.0,53539815123.08866,92111879982.309,1132071480694.6555,21908907060626.35
29.816638399905518,1.6675249512279876e+16,1.8883796224012572e+16,1074162209238501.9,1110380201316234.1,55427882914.41844,95360186303.71153,1171993749780.0898,22681519358972.527
30.51297116790363,1.6868709596933354e+16,1.9103444062019936e+16,1086624242371210.6,1123262422211468.1,57375590512.67591,98711099573.7905,1213177076762.9597,23478536737044.668
31.223230591261704,1.7063765772121272e+16,1.9324923691940964e+16,1099189090165312.1,1136250924414183.5,59384732140.612274,102167706666.77852,1255659399860.81,24300693401497.586
31.947695203086937,1.7260438232667852e+16,1.954825875411822e+16,1111858053501890.9,1149347052667785.8,61457154826.41221,105733185306.85007,1299479773848.0564,25148745166650.434
32.686649107148675,1.7458747242204374e+16,1.9773472990230216e+16,1124632437694346.0,1162552156297429.5,63594759897.94941,109410806638.97464,1344678401651.4785,26023470065849.05
33.44038208929165,1.7658713132211762e+16,2.0000590242871548e+16,1137513552426705.0,1175867589146270.5,65799504513.44157,113203937862.39427,1391296666715.334,26925668977715.15
34.20918973107749,1.7860356300036638e+16,2.022963445398738e+16,1150502711625842.2,1189294709443353.8,68073403228.484764,117116044926.69644,1439377166135.7246,27856166267272.594
34.993373525699035,1.8063697205758972e+16,2.046062966202503e+16,1163601233259694.5,1202834879595039.0,70418529599.3069,121150695290.19974,1488963744560.7344,28815810441885.086
35.793240996213015,1.826875636777876e+16,2.069359999765211e+16,1176810439052972.5,1216489465891111.2,72837017821.90996,125311560740.09311,1540101528849.4194,29805474821870.695
36.60910581613728,1.8475554356978344e+16,2.0928569677879244e+16,1190131654111114.0,1230259838116075.0,75331064406.59622,129602420273.4532,1592836963478.9675,30826058225584.72
37.44128793246003,1.8684111789306424e+16,2.1165562998412604e+16,1203566206442573.2,1244147369055326.8,77902929887.16875,134027163037.9203,1647217846684.9578,31878485668681.637
38.29011369110923,1.8894449316621188e+16,2.1404604324051944e+16,1217115426368962.8,1258153433885396.8,80554940563.87476,138589791330.43655,1703293367315.1824,32963709077174.57
39.15591596493141,1.910658761562016e+16,2.164571807693908e+16,1230780645811963.2,1272279409436833.0,83289490278.93492,143294423652.04694,1761114142372.3523,34082708013817.438
40.03903428423004,1.9320547374678948e+16,2.1888928722454748e+16,1244563197445513.8,1286526673317792.2,86109042223.22935,148145297816.31168,1820732255215.6648,35236490417226.734
40.93981496991464,1.9536349278413252e+16,2.2134260752552944e+16,1258464413701335.8,1300896602886044.2,89016130772.45016,153146774108.4208,1882201294385.399,36426093353049.914
41.85861126931294,1.9754013989775184e+16,2.238173866631892e+16,1272485625615679.2,1315390574056809.0,92013363350.73494,158303338491.58908,1945576393008.5364,37652583776367.24
42.7957834946992,1.9973562129493576e+16,2.2631386947533484e+16,1286628161504879.0,1330009959933695.8,95103422319.48373,163619605856.79367,2010914268736.9756,38917059304390.305
43.751699164593184,2.0195014252664972e+16,2.288323003902515e+16,1300893345457481.2,1344756129249948.0,98289066888.75658,169100323311.35645,2078273264163.057,40220648998386.29
44.72673314788505,2.041839082230739e+16,2.313729231359526e+16,1315282495630643.2,1359630444607421.0,101573135048.2899,174750373501.2958,2147713387650.0823,41564514153623.375
