t(s),Total solute volume 1,Total retention volume 1,Total 1 volume 1,Total 2 volume 1,Total 3 volume 1,Total 4 volume 1,Total 5 volume 1,Total 6 volume 1
0.1,1392571168361754.5,6037270240607699.0,1452613831222594.2,3192085241023349.0,0.0,0.0,0.0,-0.09582846306271511
0.202,2064825757236294.2,8952567754006562.0,2153854202283112.0,4733052550504286.0,204290723.62642187,1117872749.8719547,60410925942.25402,773510893454.1583
0.30604000000000003,2584655549902891.5,1.1207643325671744e+16,2696097404818029.0,5924622366097795.0,516561756.1671884,2827250273.5794497,155300442485.03726,2109360598518.9805
0.41216080000000005,3025805640235978.0,1.3122096189849374e+16,3156268463623862.5,6935839798659108.0,916193769.879768,5014974511.306103,277403278281.2158,3898952883863.5513
0.5204040160000001,3418052228419015.5,1.482495966192959e+16,3565427451713405.0,7834959045515108.0,1393838389.2311354,7629831901.542502,423655469532.16364,6088257142242.4375
0.6308120963200001,3776527904532539.0,1.6381807578141584e+16,3939359432475554.0,8656667558423130.0,1944459305.5372229,10644237990.713293,592446760364.921,8647647252698.511
0.7434283382464002,4110098100940952.0,1.7831056450712116e+16,4287312088714363.5,9421286971761370.0,2565168754.0256443,14042377251.683325,782860866844.3079,11559820882581.611
0.8582969050113283,4424466214355801.5,1.9197421777284836e+16,4615234729823606.0,1.0141890791779606e+16,3254331453.5776024,17815293659.81917,994379143950.7799,14814592556765.16
0.9754628431115548,4723550757604287.0,2.049788577661348e+16,4927214822520691.0,1.0827461154880142e+16,4011121744.291588,21958464867.59644,1226737816022.249,18406334205714.477
1.094972099973786,5010178226346276.0,2.1744699720261604e+16,5226200731951253.0,1.148447704073152e+16,4835277879.385382,26470456479.431286,1479849734229.2861,22332565763950.023
1.2168715419732616,5286465355230720.0,2.294704025451714e+16,5514400459579054.0,1.2117790492542962e+16,5726954193.997379,31352112451.02876,1753757629889.479,26593110467867.81
1.3412089728127268,5554045331977547.0,2.411198954850862e+16,5793517610924132.0,1.2731145152297548e+16,6686626696.17891,36606038081.48388,2048604393516.6738,31189556251107.54
1.4680331522689813,5814209258362997.0,2.5245148196995576e+16,6064898955905531.0,1.3327500522107272e+16,7715029981.340431,42236254552.21377,2364613275198.756,36124896060036.24
1.597393815314361,6067998639343443.0,2.635103593011119e+16,6329630905805575.0,1.3909243970672596e+16,8813113575.122984,48247959863.11765,2702074212364.1543,41403279003793.14
1.729341691620648,6316268115259259.0,2.7433363392411932e+16,6588604950287891.0,1.4478334529978866e+16,9982010887.340515,54647358829.21465,3061334122363.712,47029833393857.58
1.863928525453061,6559729342215915.0,2.8495222243840188e+16,6842563429761075.0,1.5036403479250898e+16,11223016665.992064,61441539623.93248,3442789860969.8145,53010538195051.1
2.001207095962122,6798982501534759.0,2.9539221663928628e+16,7092132403416352.0,1.5584826571875228e+16,12537570365.817,68638382709.925285,3846883032340.694,59352128116880.14
2.1412312378813647,7034539443180929.0,3.0567588611747852e+16,7337845790525992.0,1.6124777085466498e+16,13927243746.693705,76246492931.74464,4274096121015.392,66062022716746.21
2.284055862638992,7266841022345479.0,3.1582242929691416e+16,7580163454523134.0,1.665726556130373e+16,15393731570.506369,84275148574.90338,4724949591066.402,73148273047857.97
2.4297369798917723,7496270312776825.0,3.258485458536311e+16,7819484986049655.0,1.7183170092325732e+16,16938844616.648266,92734263121.02275,5199999708184.041,80619521395004.48
2.578331719489608,7723162833033568.0,3.357688797395109e+16,8056160370131992.0,1.7703259764054102e+16,18564504466.31877,101634356688.19345,5699836912715.996,88484970957559.12
2.7298983538794,7947814569871267.0,3.4559636678539604e+16,8290498355510432.0,1.821821304604018e+16,20272739660.145607,110986534991.04897,6225084620104.687,96754363222974.88
2.884496320956988,8170488351011757.0,3.55342510808068e+16,8522773102181680.0,1.872863239971682e+16,22065682939.664116,120802474235.4982,6776398358366.918,105437961381001.25
3.0421862473761276,8391418963246959.0,3.650176053740362e+16,8753229520178696.0,1.9235056010268344e+16,23945569357.454937,131094410769.75412,7354465175496.169,114546538554008.45
3.2030299723236504,8610817304405474.0,3.746309137191188e+16,8982087600556746.0,1.973796730389182e+16,25914735093.73098,141875134603.46368,7960003266230.183,124091369921923.48
3.3670905717701234,8828873782541401.0,3.841908160662634e+16,9209545961144070.0,2.0237802739518396e+16,27975616855.596367,153157986117.1778,8593761779627.417,134084228039887.12
3.5344323832055258,9045761122242714.0,3.9370493126801576e+16,9435784773849292.0,2.0734958241516524e+16,30130751763.488926,164956855439.3088,9256520777723.277,144537380808163.88
3.7051210308696363,9261636699365194.0,4.031802180282295e+16,9660968200061442.0,2.1229794551438388e+16,32382777650.426685,177286184083.31058,9949091322119.002,155463591674073.5
3.879223451487029,9476644497258538.0,4.126230597342886e+16,9885246431222230.0,2.1722641712139156e+16,34734433715.62739,190160968525.1328,10672315670326.152,166876121736370.84
4.0568079205167695,9690916756628396.0,4.22039336024785e+16,1.0108757409824692e+16,2.2213802849639304e+16,37188561486.25678,203596765467.74707,11427067567484.91,178788733491628.12
4.237944078927105,9904575375495472.0,4.314344835382428e+16,1.033162828973408e+16,2.2703557382152656e+16,39748106050.47666,217609698591.0832,12214252622005.791,191215696015433.66
4.422702960505647,1.0117733103833044e+16,4.4081354777389304e+16,1.0553976682334186e+16,2.319216375846931e+16,42416117532.30775,232216466625.93048,13034808755968.482,204171791412666.25
4.61115701971576,1.033049456837436e+16,4.501812276017707e+16,1.0775911725521102e+16,2.3679861807049644e+16,45195752784.60315,247434352622.01947,13889706722910.494,217672322403627.8
4.803380160110075,1.054295715606344e+16,4.595419136554256e+16,1.0997535005245622e+16,2.4166874761096228e+16,48090277281.02402,263281234305.64615,14779950687065.875,231733120938600.25
4.9994477633122765,1.0755211779155918e+16,4.6889972160374856e+16,1.1218941353602636e+16,2.4653411012340444e+16,51103067191.58483,279775595442.3465,15706578859257.324,246370557753942.44
5.199436718578522,1.0967343540685766e+16,4.782585211125626e+16,1.1440219542990716e+16,2.513966563644505e+16,54237611629.305695,296936538136.37946,16670664185567.213,261601552799408.5
5.403425452950093,1.1179432315618224e+16,4.8762196115957016e+16,1.16614528923224e+16,2.5625821725139896e+16,57497515057.923706,314783796012.00024,17673315085663.164,277443586479772.12
5.611493962009095,1.13915532603052e+16,4.969934922491265e+16,1.1882719798445636e+16,2.6112051554010628e+16,60886499852.59364,333337748232.33844,18715676238267.17,293914711664798.7
5.823723841249277,1.1603777260690052e+16,5.063763859793649e+16,1.2104094203673798e+16,2.659851760988693e+16,64408409007.138596,352619434320.6237,19798929411764.49,311033566430590.94
6.040198318074262,1.1816171327958702e+16,5.1577375233839896e+16,1.2325646008495808e+16,2.708537349776551e+16,68067208982.76829,372650569755.9277,20924294338367.81,328819387502803.9
6.261002284435747,1.2028798948912516e+16,5.251885550447802e+16,1.2547441437056132e+16,2.7572764743945348e+16,71866992694.31358,393453562321.7859,22093029630604.41,347292024378389.5
6.486222330124463,1.2241720397178714e+16,5.346236251971402e+16,1.2769543361783504e+16,2.8060829509393028e+16,75811982630.98218,415051529191.2981,23306433739189.707,366471954107773.3
6.715946776726952,1.2454993010421474e+16,5.440816734567445e+16,1.299201159255442e+16,2.8549699225174444e+16,79906534109.44469,437468314736.71735,24565845951599.56,386380296723694.56
6.950265712261491,1.2668671437932096e+16,5.535653009526411e+16,1.321490313495863e+16,2.9039499159988076e+16,84155138657.75331,460728509055.3127,25872647430869.496,407038831306709.1
7.18927102650672,1.288280786232498e+16,5.6307700907091544e+16,1.3438272421553902e+16,2.953034892834312e+16,88562427529.18225,484857467206.5318,27228262294329.51,428470012680499.44
7.433056447036854,1.309745219852467e+16,5.726192082661046e+16,1.366217151943281e+16,3.0022362946683428e+16,93133175345.59482,509881329158.2816,28634158732143.098,450696988732881.2
7.681717575977592,1.3312652272775822e+16,5.821942260131683e+16,1.3886650316950898e+16,3.0515650843719404e+16,97872303870.37953,535827040442.57294,30091850165655.676,473743618360747.7
7.935351927497144,1.3528453984027406e+16,5.918043140019849e+16,1.4111756692069338e+16,3.1010317830357404e+16,102784885911.39352,562722373522.9187,31602896445677.91,497634490039252.8
8.194058966047088,1.374490144972123e+16,6.014516546623901e+16,1.4337536664429408e+16,3.1506465033880908e+16,107876149354.68846,590595949877.7274,33168905090935.29,522394941017330.4
8.45794014536803,1.396203713774453e+16,6.111383670960887e+16,1.4564034532994282e+16,3.200418980041561e+16,113151481330.10011,619477262805.62,34791532567009.742,548051077143235.06
8.72709894827539,1.4179901986074116e+16,6.208665124817267e+16,1.4791293000852062e+16,3.2503585969181684e+16,118616432510.05609,649396700960.0643,36472485606181.96,574629793325193.1
9.0016409272409,1.4398535511444716e+16,6.306380990109664e+16,1.5019353288569356e+16,3.3004744121586252e+16,124276721543.19496,680385572622.0718,38213522568659.11,602158794633516.0
9.281673745785717,1.4617975908205108e+16,6.404550864060724e+16,1.5248255237309932e+16,3.3507751807824436e+16,130138239624.6161,712476130720.8998,40016454845740.49,630666618051634.4
9.567307220701432,1.483826013838206e+16,6.503193900633424e+16,1.5478037402781742e+16,3.40126937533265e+16,136207055204.7776,745701598613.8098,41883148305535.7,660182654884584.6
9.85865336511546,1.5059424013847822e+16,6.602328848613148e+16,1.570873714094736e+16,3.451965204710463e+16,142489418839.24442,780096196636.9384,43815524781906.92,690737173834322.0
10.155826432417769,1.5281502271380128e+16,6.701974086680517e+16,1.5940390686320202e+16,3.5028706313807636e+16,148991768181.661,815695169440.2632,45815563607358.945,722361344752191.6
10.458942961066125,1.5504528641311158e+16,6.802147655778249e+16,1.6173033223573606e+16,3.5539933871080228e+16,155720733122.47644,852534814120.5339,47885303190650.125,755087263079571.8
10.768121820287448,1.5728535910381422e+16,6.902867289040288e+16,1.640669895310444e+16,3.6053409873638344e+16,162683141076.1036,890652509166.8063,50026842639940.94,788947974988514.5
11.083484256693197,1.5953555979344582e+16,7.004150439521302e+16,1.6641421151122026e+16,3.656920744531267e+16,169886022419.32486,930086744234.0367,52242343432342.984,823977503234821.8
11.405153941827061,1.6179619915808756e+16,7.106014305938379e+16,1.6877232224767542e+16,3.708739780017314e+16,177336616083.89746,970877150760.8186,54534031130767.2,860210873736679.5
11.733257020663602,1.6406758002746116e+16,7.208475856613568e+16,1.711416376271527e+16,3.760805035372399e+16,185042375306.4249,1013064533448.1339,56904197149011.4,897684142892535.8
12.067922161076874,1.663499978305592e+16,7.311551851785998e+16,1.7352246581657e+16,3.813123282505237e+16,193010973538.68765,1056690902616.5466,59355200566063.02,936434425652518.2
12.409280604298411,1.6864374100525562e+16,7.415258864444203e+16,1.7591510769029288e+16,3.865701133072045e+16,201250310521.73453,1101799507459.9355,61889469990626.73,976499924358162.2
12.75746621638438,1.7094909137497668e+16,7.519613299814101e+16,1.783198572230453e+16,3.918545047110728e+16,209768518527.1505,1148434870214.4507,64509505476920.73,1017919958365820.2
13.112615540712067,1.7326632449519734e+16,7.624631413624026e+16,1.8073700185134628e+16,3.971661340983339e+16,218573968769.01187,1196642821261.9321,67217880492818.81,1060734994469539.4
13.474867851526309,1.755957099722436e+16,7.73032932925625e+16,1.831668228060582e+16,4.025056194683798e+16,227675277990.1556,1246470535187.6274,70017243941444.055,1104986678139739.5
13.844365208556836,1.779375117566377e+16,7.836723053883621e+16,1.856095954183794e+16,4.078735658561968e+16,237081315226.4721,1297966567812.5212,72910322237353.45,1150717865594420.0
14.221252512727972,1.8029198841299468e+16,7.943828493680286e+16,1.880655894013779e+16,4.1327056595104056e+16,246801208753.04074,1351180894221.213,75899921438479.02,1197972656720143.0
14.605677562982532,1.8265939336828976e+16,8.051661468187302e+16,1.905350691089645e+16,4.186972006655112e+16,256844353216.01065,1406164947806.6558,78988929435022.06,1246796428860390.0
14.997791114242183,1.8503997514013536e+16,8.16023772390604e+16,1.930182937740105e+16,4.241540396588251e+16,267220416954.22775,1462971660353.6924,82180318196524.78,1297235871489431.0
15.397746936527026,1.8743397754655388e+16,8.26957294718585e+16,1.9551551772716468e+16,4.296416418176539e+16,277939349514.69135,1521655503183.7393,85477146078370.08,1349339021790079.8
15.805701875257567,1.8984163989858856e+16,8.379682776466299e+16,1.9802699059777468e+16,4.351605556976449e+16,289011389366.01715,1582272529383.499,88882560188986.2,1403155301154339.8
16.221815912762718,1.922631971769823e+16,8.490582813928928e+16,2.005529574981747e+16,4.407113199283944e+16,300447071814.1626,1644880417140.9753,92399798819063.98,1458735552626116.5
16.64625223101797,1.9469888019401956e+16,8.60228863660882e+16,2.030936591925125e+16,4.46294463584438e+16,312257237124.7613,1709538514212.578,96032193934113.86,1516132079305738.8
17.079177275638333,1.9714891574155216e+16,8.714815807011662e+16,2.0564933225115372e+16,4.519105065245561e+16,324453038856.48987,1776307883545.5806,99783173731719.88,1575398683736263.2
17.5207608211511,1.9961352672611972e+16,8.828179883278477e+16,2.08220209191632e+16,4.575599597014999e+16,337045952409.9685,1845251350080.5515,103656265264868.4,1636590708292069.5
17.97117603757412,2.020929322920081e+16,8.942396428936426e+16,2.108065186070078e+16,4.632433254440689e+16,350047783796.7884,1916433548758.8672,107655097132761.1,1699765076590436.2
18.430599558325603,2.0458734793299932e+16,9.057481022271144e+16,2.134084852824424e+16,4.689610977132707e+16,363470678633.3169,1989920973760.8364,111783402240534.55,1764980335947309.2
18.899211549492115,2.070969855935238e+16,9.173449265353003e+16,2.160263303007075e+16,4.747137623341839e+16,377327131364.0231,2065782029000.3555,116045020629343.31,1832296700898738.2
19.37719578048196,2.0962205375984144e+16,9.290316792747304e+16,2.186602711373005e+16,4.8050179720496216e+16,391629994719.1352,2144087079902.4343,120443902378277.34,1901776097809823.5
19.864739696091597,2.1216275754184324e+16,9.408099279936504e+16,2.2131052174576996e+16,4.863256724843488e+16,406392489411.5097,2224908506490.324,124984110579614.3,1973482210593366.8
20.36203449001343,2.1471929874600264e+16,9.526812451479267e+16,2.239772926338155e+16,4.921858507588927e+16,421628214077.661,2308320757809.3833,129669824388923.23,2047480527560757.2
20.869275179813698,2.1729187593996932e+16,9.646472088930805e+16,2.266607909306656e+16,4.98082787191019e+16,437351155467.9856,2394400407715.1104,134505342151559.55,2123838389427901.2
21.38666068340997,2.1988068450926136e+16,9.767094038546162e+16,2.2936122044621252e+16,5.040169296489676e+16,453575698891.2572,2483226212053.296,139495084607116.12,2202625038499448.5
21.91439389707817,2.2248591670645388e+16,9.888694218786824e+16,2.3207878172232424e+16,5.099887188195606e+16,470316638918.5439,2574879167260.4053,144643598173405.5,2283911669054719.0
22.452681775019734,2.251077616932645e+16,1.001128862764984e+17,2.3481367207674364e+16,5.159985883046615e+16,487589190351.7811,2669442570412.8257,149955558311580.6,2367771478959166.0
23.00173541052013,2.2774640557586856e+16,1.0134893349837189e+17,2.3756608563992508e+16,5.220469647021289e+16,505408999462.246,2767002080753.761,155435772974007.88,2454279722525514.5
23.561770118730532,2.3040203143377684e+16,1.0259524563781835e+17,2.403362133851597e+16,5.281342676720113e+16,523792155504.29065,2867645782727.101,161089186136534.4,2543513764648893.0
24.133005521105144,2.3307481934256864e+16,1.038519854854616e+17,2.431242431522863e+16,5.342609099886561e+16,542755202509.708,2971464250547.601,166920881416803.78,2635553136240677.5
24.715665631527248,2.3576494639075572e+16,1.0511931690607262e+17,2.4593035966528476e+16,5.404272975793654e+16,562315151368.1746,3078550614337.3057,172936085780288.3,2730479590986043.5
25.309978944157795,2.3847258669103024e+16,1.0639740490542802e+17,2.4875474454400624e+16,5.46633829550182e+16,582489492199.2611,3189000627858.127,179140173335732.84,2828377163450386.5
25.91617852304095,2.411979113861311e+16,1.076864156963023e+17,2.5159757631029468e+16,5.528808981993289e+16,603296207021.5364,3302912737871.0703,185538669221706.75,2929332228560177.5
26.53450209350177,2.4394108864954616e+16,1.0898651676371712e+17,2.5445903038871856e+16,5.591688890188284e+16,624753782724.3591,3420388155152.371,192137253585980.4,3033433562483926.0
27.165192135371807,2.4670228368125092e+16,1.1029787692956088e+17,2.573392791021247e+16,5.6549818068473e+16,646881224347.9661,3541530927197.63,198941765659464.12,3140772404939318.5
27.808495978079243,2.494816586986689e+16,1.116206664166873e+17,2.6023849166221256e+16,5.718691450363873e+16,669698068677.5022,3666448012644.648,205958207926438.72,3251442522952669.5
28.464665897640828,2.522793729230314e+16,1.129550569125983e+17,2.631568341553008e+16,5.782821470451942e+16,693224398156.7035,3795249357446.2256,213192750392840.22,3365540276097266.5
29.133959215593645,2.5509558256129148e+16,1.1430122163280805e+17,2.6609446952346468e+16,5.847375447731301e+16,717480855126.929,3928047972824.196,220651734954359.88,3483164683237062.0
29.816638399905518,2.579304407837472e+16,1.1565933538398078e+17,2.690515575411947e+16,5.9123568932146264e+16,742488656397.2795,4064960015036.06,228341679866122.47,3604417490802763.5
30.51297116790363,2.607840976975138e+16,1.1702957462693627e+17,2.720282547877231e+16,5.977769247699445e+16,768269608151.5807,4206104866985.848,236269284315733.8,3729403242627297.5
31.223230591261704,2.636567003159736e+16,1.1841211753960322e+17,2.750247146151575e+16,6.0436158810677784e+16,794846121197.9779,4351605221710.7437,244441433101468.12,3858229351367833.0
31.947695203086937,2.6654839252432748e+16,1.198071440800073e+17,2.7804108711254772e+16,6.1099000914966264e+16,822241226566.9482,4501587167775.187,252865201417396.2,3991006171541786.0
32.686649107148675,2.694593150413629e+16,1.212148360493718e+17,2.81077519066006e+16,6.176625104581537e+16,850478591463.5098,4656180276604.088,261547859747235.8,4127847074204354.5
33.44038208929165,2.7238960537755064e+16,1.2263537715540643e+17,2.8413415391499364e+16,6.2437940723760744e+16,879582535579.4092,4815517691786.882,270496878868722.53,4268868523295204.0
34.20918973107749,2.7533939778956676e+16,1.2406895307585906e+17,2.8721113170488424e+16,6.311410072349342e+16,909578047771.0824,4979736220384.168,279719934970294.44,4414190153682174.0
34.993373525699035,2.783088232313365e+16,1.2551575152240357e+17,2.9030858903589916e+16,6.379476106263904e+16,940490803109.1385,5148976426268.247,289224914881877.6,4563934850929774.0
35.793240996213015,2.81298009301699e+16,1.269759623049294e+17,2.9342665900851144e+16,6.4479950989760456e+16,972347180305.1406,5323382725529.358,299019921421559.9,4718228832820524.0
36.60910581613728,2.8430708018877332e+16,1.2844977739630502e+17,2.9656547116541504e+16,6.516969897160543e+16,1005174279521.3773,5503103483978.822,309113278859942.4,4877201732657300.0
37.44128793246003,2.8733615661111012e+16,1.2993739099767846e+17,2.9972515143014056e+16,6.5864032679617656e+16,1038999940569.3483,5688291116780.195,319513538503926.4,5040986684374500.0
38.29011369110923,2.903853557557126e+16,1.314389996043803e+17,3.02905822042402e+16,6.656297897572886e+16,1073852761502.594,5879102190239.435,330229484401716.7,5209720409486445.0
39.15591596493141,2.934547912129994e+16,1.3295480207249283e+17,3.0610760149025544e+16,6.7266563897452056e+16,1109762117609.4924,6075697525784.932,341270139170783.75,5383543305901068.0
