t(s),Total solute volume 1,Total retention volume 1,Total 1 volume 1,Total 2 volume 1,Total 3 volume 1,Total 4 volume 1,Total 5 volume 1,Total 6 volume 1
0.1,988500314890707.8,1201179625827040.0,98333854761724.14,114345456174609.27,0.0,0.0,0.0,0.0
0.202,1230029023280935.8,2075263322643788.8,122360604346099.86,142284458877473.6,719287252104.2535,1483663188345.8242,23923723438223.473,554462562260605.75
0.30604000000000003,1340047673598382.2,2905867851163513.5,133305019816063.8,155010942884120.22,1582457012790.6433,3264728705868.35,52644163527199.984,1220012865619086.2
0.41216080000000005,1402487888453979.2,3729519055068879.0,139516436252017.95,162233758206184.28,2508466918468.0625,5176155376047.712,83467598493604.31,1934128751368581.2
0.5204040160000001,1442479868009484.0,4557583676769088.0,143494751184914.22,166859858286184.06,3473567131913.9863,7169023487825.09,115605229553243.36,2678501379115535.0
0.6308120963200001,1470167615888762.2,5395008252069011.0,146249067978368.34,170062657805202.5,4468608483057.656,9224517788562.14,148753708578665.28,3446082075546406.0
0.7434283382464002,1490415138144363.5,6244430037993672.0,148263247349045.22,172404804047359.9,5489527527132.825,11334310735778.016,182778807485133.25,4233744202704861.5
0.8582969050113283,1505837915485483.8,7107475333922597.0,149797471615078.5,174188844563151.16,6534392249844.685,13494471686833.945,217617202203604.9,5040005036118606.0
0.9754628431115548,1517963465021060.5,7985267233604847.0,151003694847876.22,175591475956866.72,7602284274514.13,15703162394398.27,253239312065722.75,5864163839044422.0
1.094972099973786,1527741620591232.5,8878654816456736.0,151976404446867.25,176722570918884.66,8692814737022.699,17959638948417.973,289633205958702.25,6705928560855606.0
1.2168715419732616,1535792879447694.0,9788327943512794.0,152777326125757.2,177653905900635.53,9805892689565.188,20263774371679.184,326796904147005.94,7565237260830463.0
1.3412089728127268,1542539103514506.5,1.0714879512433686e+16,153448425788962.28,178434280073843.88,10941605485905.281,22615812100225.336,364734403178018.6,8442165882292224.0
1.4680331522689813,1548276730758889.5,1.1658841416433504e+16,154019192439145.72,179097984106756.25,12100153118382.24,25016230706416.32,403453494614540.5,9336877630689386.0
1.597393815314361,1553219929185095.5,1.2620706412613252e+16,154510931042430.72,179669792032403.16,13281810337547.271,27465665910123.37,442964507564388.4,1.0249593776541266e+16
1.729341691620648,1557527139211494.5,1.3600942007643622e+16,154939402906201.9,180168031556531.1,14486903883595.533,29964863753536.094,483279553741890.94,1.1180576112590354e+16
1.863928525453061,1561317998597844.2,1.4599999606603298e+16,155316509333967.38,180606541860339.6,15715798323591.69,32514651525503.188,524412058755022.06,1.2130116048207042e+16
2.001207095962122,1564684474610542.0,1.5618320738659782e+16,155651399028883.9,180995961321444.34,16968886984798.688,35115919199097.94,566376462930208.4,1.3098527634584806e+16
2.1412312378813647,1567698386081402.8,1.665634141722295e+16,155951216371765.62,181344597633259.53,18246586009237.598,37769607310624.54,609188026015787.5,1.4086142997800884e+16
2.284055862638992,1570416607744837.2,1.7714495274398446e+16,156221619137196.8,181659029820324.62,19549330376962.12,40476698903855.734,652862697446855.4,1.5093309290968416e+16
2.4297369798917723,1572884747156929.0,1.879321586939184e+16,156467144265428.4,181944533568477.84,20877571203667.656,43238214107925.625,697417029086844.4,1.6120386630002578e+16
2.578331719489608,1575139791402821.0,1.9892938427614692e+16,156691471151055.03,182205387384576.7,22231773882358.383,46055206461858.16,742868116142410.0,1.7167746681189588e+16
2.7298983538794,1577212044402642.8,2.101410117959972e+16,156897614361986.47,182445096695708.66,23612416795701.71,48928760422260.53,789233557165593.9,1.8235771689755828e+16
2.884496320956988,1579126566542993.0,2.215714641361294e+16,157088066850850.5,182666560379567.66,25019990421467.445,51859989688182.72,836531427241577.1,1.932485381248829e+16
3.0421862473761276,1580904259242201.0,2.3322521320209076e+16,157264907845174.75,182872196222291.8,26454996713318.742,54850036100611.35,884780260451337.4,2.0435394663634148e+16
3.2030299723236504,1582562692289178.5,2.4510678683470572e+16,157429885149257.8,183064036621467.44,27917948677477.26,57900068952953.61,933999038970663.8,2.1567805012809576e+16
3.3670905717701234,1584116742216625.0,2.5722077457857564e+16,157584478648142.72,183243802430389.66,29409370090710.5,61011284600280.836,984207186996048.8,2.2722504592875324e+16
3.5344323832055258,1585579090067797.8,2.6957183258769456e+16,157729949824368.1,183412960537582.56,30929795321626.375,64184906289210.93,1035424568238066.4,2.389992198849083e+16
3.7051210308696363,1586960613302112.8,2.8216468787383616e+16,157867380743883.6,183572769200750.38,32479769228412.49,67422184153314.72,1087671486093817.2,2.51004945846613e+16
3.879223451487029,1588270697128887.8,2.9500414205011012e+16,157997705026852.34,183724314060529.1,34059847113789.945,70724395334685.31,1140968685864107.2,2.6324668560482132e+16
4.0568079205167695,1589517483897470.0,3.0809507468398084e+16,158121732656438.53,183868536988859.2,35670594723250.805,74092844203246.73,1195337358557424.8,2.7572898917371348e+16
4.237944078927105,1590708074418536.5,3.2144244634634324e+16,158240170005807.9,184006259376970.03,37312588276372.85,77528862653070.62,1250799145946803.2,2.8845649533956756e+16
4.422702960505647,1591848691657877.0,3.3505130142296736e+16,158353636122032.25,184138201070770.88,38986414523654.83,81033810460445.2,1307376146634002.8,3.014339324182796e+16
4.61115701971576,1592944814736129.8,3.4892677073953744e+16,158462676056087.75,184264995871364.06,40692670823218.58,84609075692381.84,1365090922939040.0,3.1466611917835504e+16
4.803380160110075,1594001289316568.0,3.630740740402107e+16,158567771843993.75,184387204304230.56,42431965233111.2,88256075157109.67,1423966508479237.2,3.2815796589686852e+16
4.9994477633122765,1595022419083352.5,3.7749852235106776e+16,158669351606869.34,184505324201038.3,44204916615952.04,91976254890214.31,1484026416336052.2,3.419144755237333e+16
5.199436718578522,1596012041974478.8,3.92205520253279e+16,158767797134419.84,184619799517942.78,46012154753420.414,95771090671638.48,1545294647733039.2,3.5594074493542932e+16
5.403425452950093,1596973594046066.0,4.072005680857899e+16,158863450238017.25,184731027723132.84,47854320468639.67,99642088569926.11,1607795701167145.5,3.702419662636611e+16
5.611493962009095,1597910163242147.2,4.224892640933994e+16,158956618099602.56,184839366016690.0,49732065754931.695,103590785510972.97,1671554581949818.0,3.8482342828765704e+16
5.823723841249277,1598824534879712.0,4.3807730653304776e+16,159047577796438.2,184945136592100.38,51646053909735.0,107618749869218.22,1736596812125122.8,3.9969051788132424e+16
6.040198318074262,1599719230298101.0,4.5397049574873016e+16,159136580145865.7,185048631107050.88,53596959672716.805,111727582079716.66,1802948440740391.2,4.14848721508292e+16
6.261002284435747,1600596539840077.0,4.701747362234992e+16,159223852986190.0,185150114498540.25,55585469367300.43,115918915269935.56,1870636054451362.2,4.303036267593642e+16
6.486222330124463,1601458551110122.2,4.86696038615525e+16,159309603987754.25,185249828251671.3,57612281044961.67,120194415910419.08,1939686788448673.2,4.460609239279882e+16
6.715946776726952,1602307173279834.2,5.0354052178392664e+16,159394023070787.2,185347993211202.66,59678104631765.74,124555784483709.66,2010128337696515.5,4.621264076201869e+16
6.950265712261491,1603144158070733.5,5.207144148090833e+16,159477284492726.66,185444812008741.78,61783662076693.33,129004756171105.33,2081988968477441.5,4.785059783961083e+16
7.18927102650672,1603971117932606.5,5.3822405901134216e+16,159559548656562.22,185540471165543.2,63929687501372.38,133543101556977.95,2155297530239566.5,4.952056444408151e+16
7.433056447036854,1604789541845659.8,5.560759099713305e+16,159640963682800.4,185635142920432.0,66116927350881.75,138172627350504.52,2230083467744619.2,5.1223152326238104e+16
7.681717575977592,1605600809101738.0,5.742765395545822e+16,159721666780384.78,185728986823952.4,68346140545331.13,142895177124759.03,2306376833516769.5,5.2958984341565304e+16
7.935351927497144,1606406201360616.2,5.9283263794267e+16,159801785446037.25,185822151132993.72,70618098631951.02,147712632073191.12,2384208300593498.5,5.472869462502867e+16
8.194058966047088,1607206913229140.2,6.117510156726924e+16,159881438516642.25,185914774034536.7,72933585937448.23,152626911783583.1,2463609175580886.0,5.653292876818704e+16
8.45794014536803,1608004061571152.8,6.310386056866254e+16,159960737095380.25,186006984722584.0,75293399720399.39,157639975029636.66,2544611412016648.5,5.837234399850674e+16
8.72709894827539,1608798693723531.2,6.507024653917567e+16,160039785369039.66,186098904348559.03,77698350323469.39,162753820580374.28,2627247624044845.5,6.024760936078582e+16
9.0016409272409,1609591794766656.0,6.707497787332251e+16,160118681331270.75,186190646862323.03,80149261325244.44,167970488027594.2,2711551100407139.5,6.2159405900602296e+16
9.281673745785717,1610384293975201.8,6.911878582794289e+16,160197517424290.88,186282319758369.88,82646969691479.47,173292058631637.6,2797555818755774.0,6.410842684970615e+16
9.567307220701432,1611177070556346.8,7.120241473209437e+16,160276381109713.66,186374024739603.4,85192325925564.12,178720656185766.12,2885296460294098.5,6.609537781328328e+16
9.85865336511546,1611970958767005.8,7.33266221983393e+16,160355355377598.4,186465858309273.53,87786194218003.64,184258447899460.4,2974808424750859.0,6.8120976959017096e+16
10.155826432417769,1612766752488486.8,7.54921793354594e+16,160434519201526.7,186557912300153.84,90429452594724.86,189907645300991.16,3066127845695017.5,7.018595520787846e+16
10.458942961066125,1613565209325958.8,7.76998709626181e+16,160513947946409.06,186650274348749.56,93122993063997.89,195670505159611.75,3159291606197909.0,7.22910564265755e+16
10.768121820287448,1614367054290755.0,7.99504958249796e+16,160593713734791.78,186743028321251.7,95867721761779.81,201549330427763.6,3254337354850322.5,7.443703762159267e+16
11.083484256693197,1615172983115694.8,8.224486681077883e+16,160673885776660.47,186836254697039.5,98664559095264.05,207546471203681.44,3351303522142076.5,7.66246691347484e+16
11.405153941827061,1615983665246888.5,8.458381116983816e+16,160754530667052.2,186930030914755.44,101514439884429.67,213664325714818.6,3450229337212126.0,7.88547348401981e+16
11.733257020663602,1616799746549648.5,8.696817073350219e+16,160835712655241.8,187024431685321.16,104418313501369.2,219905341322513.94,3551154844977494.0,8.112803234281062e+16
12.067922161076874,1617621851761473.8,8.939880213596856e+16,160917493888753.28,187119529275681.47,107377144007171.08,226272015548347.75,3654120923649641.5,8.344537317783763e+16
12.409280604298411,1618450586720667.2,9.187657703697467e+16,160999934635059.53,187215393766602.28,110391910286122.9,232766897122640.25,3759169302647156.0,8.58075830117964e+16
12.75746621638438,1619286540395652.8,9.440238234579626e+16,161083093483455.34,187312093287417.03,113463606177002.48,239392587055561.66,3866342580913827.5,8.821550184448344e+16
13.112615540712067,1620130286736993.2,9.697712044650752e+16,161167027529290.97,187409694230255.1,116593240601200.67,246151739731339.56,3975684245651658.0,9.066998421202667e+16
13.474867851526309,1620982386371336.2,9.96017094244416e+16,161251792542483.72,187508261445994.62,119781837687427.34,253047064026055.53,4087238691478418.5,9.317189939089e+16
13.844365208556836,1621843388154341.0,1.0227708329378782e+17,161337443121996.12,187607858423894.53,123030436892733.58,260081324449542.6,4201051240019750.0,9.572213160272557e+16
14.221252512727972,1622713830597451.5,1.0500419222624818e+17,161424032837774.47,187708547456641.72,126340093119574.16,267257342311903.6,4317168159946088.5,9.832158021997874e+16
14.605677562982532,1623594243181902.5,1.0778400278067707e+17,161511614361456.5,187810389792344.94,129711876828631.4,274577996915183.44,4435636687464835.0,1.0097115997213267e+17
14.997791114242183,1624485147571499.0,1.1061749813361365e+17,161600239587019.12,187913445774827.06,133146874147102.11,282046226770743.75,4556505047278773.0,1.0367180115248379e+17
15.397746936527026,1625387058734704.0,1.1350567831061349e+17,161689959742402.66,188017774973422.66,136646186972148.2,289665030842895.94,4679822474021596.0,1.0642444982532646e+17
15.805701875257567,1626300485985187.5,1.1644956041827589e+17,161780825493021.16,188123436303345.47,140210933069194.73,297437469819366.25,4805639234181995.0,1.0923006803342376e+17
16.221815912762718,1627225933949146.5,1.1945017887685882e+17,161872887037987.94,188230488137580.28,143842246164750.94,305366667409178.1,4934006648528115.0,1.1208963400563218e+17
16.64625223101797,1628163903466629.2,1.2250858565336661e+17,161966194199777.72,188338988411147.03,147541276033417.84,313455811668547.7,5064977115044112.0,1.15004142364543e+17
17.079177275638333,1629114892433480.0,1.2562585049497893e+17,162060796507984.34,188448994718493.56,151309188578736.34,321708156355396.8,5198604132391107.0,1.1797460433399374e+17
17.5207608211511,1630079396589803.0,1.2880306116269856e+17,162156743277752.03,188560564404700.2,155147165907516.97,330127022313123.0,5334942323905331.0,1.2100204794630048e+17
17.97117603757412,1631057910260132.0,1.32041323665071e+17,162254083683406.5,188673754651099.75,159056406397277.97,338715798884237.6,5474047462145916.0,1.2408751824904882e+17
18.430599558325603,1632050927050073.8,1.3534176249182757e+17,162352866827758.6,188788622555863.84,163038124756412.94,347477945354543.75,5615976494005962.0,1.2723207751127701e+17
18.899211549492115,1633058940503690.5,1.3870552084730253e+17,162453141807494.25,188905225210044.8,167093552076691.53,356416992428502.8,5760787566399907.0,1.3043680542887621e+17
19.37719578048196,1634082444725405.8,1.4213376088344851e+17,162554957775044.16,189023619769513.34,171223935877683.8,365536543736465.9,5908540052541506.0,1.3370279932902282e+17
19.864739696091597,1635121934969936.8,1.4562766393228685e+17,162658363997267.0,189143863523202.72,175430540142694.0,374840277374467.44,6059294578826094.0,1.3703117437345338e+17
20.36203449001343,1636177908203335.0,1.491884307376035e+17,162763409911262.47,189266013958004.7,179714645345763.47,384331947477270.56,6213113052332080.0,1.4042306376037568e+17
20.869275179813698,1637250863638003.0,1.5281728168569802e+17,162870145177591.2,189390128820660.84,184077548469307.2,394015385825382.7,6370058688956030.0,1.4387961892481098e+17
21.38666068340997,1638341303244226.5,1.56515457034992e+17,162978619731162.75,189516266176932.12,188520563011915.75,403894503486785.25,6530196042196914.0,1.4740200973714384e+17
21.91439389707817,1639449732240581.0,1.6028421714427475e+17,163088883830018.22,189644484468326.0,193045018985859.8,413973292494090.6,6693591032604838.0,1.5099142469965088e+17
22.452681775019734,1640576659565271.8,1.641248426993744e+17,163200988102221.75,189774842566623.5,197652262903806.4,424255827557907.9,6860310977910004.0,1.5464907114076864e+17
23.00173541052013,1641722598330432.0,1.6803863493801606e+17,163314983591047.75,189907399826424.5,202343657754255.12,434746267817176.56,7030424623848523.0,1.5837617540684787e+17
23.561770118730532,1642888066261054.2,1.7202691587262995e+17,163430921798649.9,190042216135927.47,207120582965177.28,445448858627246.25,7204002175701279.0,1.6217398305114096e+17
24.133005521105144,1644073586120229.2,1.7609102851085552e+17,163548854728360.03,190179351966114.38,211984434355342.9,456367933386501.75,7381115330563029.0,1.660437590197359e+17
24.715665631527248,1645279686122132.8,1.8023233707347197e+17,163668834925772.9,190318868418526.06,216936624072788.75,467507915402354.9,7561837310359075.0,1.699867878341709e+17
25.309978944157795,1646506900334134.2,1.8445222720949174e+17,163790915518744.9,190460827271775.22,221978580519885.34,478873319797396.56,7746242895627100.0,1.7400437377042266e+17
25.91617852304095,1647755769069269.0,1.8875210620811725e+17,163915150256438.34,190605291026945.94,227111748264435.56,490468755456576.6,7934408460082442.0,1.7809784103396058e+17
26.53450209350177,1649026839270201.5,1.9313340320726822e+17,164041593547516.6,190752322952010.34,232337587936232.16,502298927016237.8,8126412005985198.0,1.8226853393056064e+17
27.165192135371807,1650320664885771.2,1.975975693983705e+17,164170300497602.6,190901987125383.56,237657576108484.84,514368636895869.75,8322333200327966.0,1.8651781703252938e+17
27.808495978079243,1651637807241066.5,2.0214607822707578e+17,164301326946090.53,191054348478733.28,243073205163514.53,526682787373467.6,8522253411863691.0,1.9084707534000918e+17
28.464665897640828,1652978835401937.2,2.0678042558957952e+17,164434729502411.1,191209472839146.7,248585983142105.7,539246382705356.0,8726255748993068.0,1.9525771443699555e+17
29.133959215593645,1654344326534807.2,2.115021300241901e+17,164570565581820.38,191367426970747.75,254197433575888.4,552064531291406.5,8934425098531713.0,1.9975116064170365e+17
29.816638399905518,1655734866262507.8,2.1631273289777555e+17,164708893440800.53,191528278615864.4,259909095302120.53,565142447886523.4,9146848165377364.0,2.0432886115089024e+17
30.51297116790363,1657151049016931.2,2.2121379858672438e+17,164849772212139.75,191692096535816.1,265722522260214.44,578485455859351.0,9363613513098160.0,2.089922841777417e+17
31.223230591261704,1658593478389111.5,2.2620691465201827e+17,164993261939757.2,191858950551413.9,271639283269361.44,592098989499098.2,9584811605463182.0,2.137429190829065e+17
31.947695203086937,1660062767477408.5,2.312936920080147e+17,165139423613340.75,192028911583234.06,277660961786576.72,605988596371449.5,9810534848936574.0,2.185822764982464e+17
32.686649107148675,1661559539234355.0,2.364757650845226e+17,165288319202849.0,192202051691742.72,283789155644497.9,620159939724479.1,1.0040877636157896e+16,2.2351188844286643e+17
33.44038208929165,1663084426812741.8,2.4175479198172778e+17,165440011692942.06,192378444117326.84,290025476768246.5,634618800945567.5,1.0275936390430414e+16,2.285333084309606e+17
34.20918973107749,1664638073911454.8,2.4713245461752906e+17,165594565117378.8,192558163320300.16,296371550870659.94,649371082070222.4,1.0515809611240552e+16,2.3364811157099856e+17
34.993373525699035,1666221135121532.5,2.5261045886681088e+17,165752044593448.88,192741285020933.6,302829017125202.56,664422808343854.0,1.0760597920831532e+16,2.388578946557746e+17
35.793240996213015,1667834276272938.0,2.581905346921724e+17,165912516356465.3,192927886239569.5,309399527815837.3,679780130837394.8,1.101040411185465e+16,2.4416427624279565e+17
36.60910581613728,1669478174782474.8,2.6387443626561962e+17,166076047794372.94,193118045336864.2,316084747963159.3,695449329117811.2,1.1265333196122224e+16,2.4956889672450262e+17
37.44128793246003,1671153520003220.5,2.696639420807038e+17,166242707482512.66,193311842054212.12,322886354926074.1,711436813974456.6,1.1525492454486288e+16,2.5507341838777718e+17
38.29011369110923,1672861013575932.8,2.7556085505458067e+17,166412565218576.97,193509357554394.06,329806037978300.9,727749130202256.9,1.1790991487867632e+16,2.6067952546218342e+17
39.15591596493141,1674601369782756.8,2.815670026194391e+17,166585692057794.84,193710674462489.97,336845497858988.06,744392959442726.5,1.2061942269460176e+16,2.6638892415637446e+17
40.03903428423004,1676375315903589.0,2.8768423680274234e+17,166762160348384.56,193915876907105.78,344006446296720.8,761375123083774.4,1.2338459198135662e+16,2.7220334268206755e+17
40.93981496991464,1678183592575469.0,2.9391443429569824e+17,166942043767303.06,194125050561942.56,351290605506207.4,778702585219299.9,1.262065915307443e+16,2.781245312649936e+17
41.85861126931294,1680026954155276.5,3.002594965093665e+17,167125417356326.9,194338282687754.0,358699707656930.06,796382455669565.1,1.2908661549647626e+16,2.8415426214219392e+17
