t(s),Total solute volume 1,Total retention volume 1,Total 1 volume 1,Total 2 volume 1,Total 3 volume 1,Total 4 volume 1,Total 5 volume 1,Total 6 volume 1
0.1,1144268928618327.0,1596229672649425.0,193012778181123.2,258947965849975.12,0.0,0.0,0.0,0.0
0.202,1603341400662536.0,2530577388761209.5,270448120518622.72,362836044410830.5,171118278168.00943,439674762955.7678,9856897955809.707,283484132172288.25
0.30604000000000003,1887617485613376.2,3332546100441609.5,318399189288380.56,427167705338725.06,406930722074.09174,1045593198746.2076,23441893040999.164,674467303239307.2
0.41216080000000005,2086793094844006.5,4082608454431208.5,351995695787214.6,472241133729887.44,681548988652.3674,1751242385036.5454,39263232927842.46,1129882505768569.0
0.5204040160000001,2235607652848589.5,4809130634083627.0,377097410253430.7,505917859445683.56,983299491126.45,2526631603911.788,56648426044466.7,1630349354396421.0
0.6308120963200001,2351465752631324.5,5525458683161150.0,396640101389991.8,532136540777507.2,1305829764267.8364,3355441575811.2524,75231547093981.69,2165323469928267.0
0.7434283382464002,2444352963401732.0,6238975324662292.0,412308113179554.5,553156911379910.8,1645335966094.0474,4227901147605.978,94793498162664.66,2728490601424729.0
0.8582969050113283,2520506402351308.0,6954226451933326.0,425153508913281.4,570390430460330.4,1999404371274.583,5137810795642.79,115195266831525.88,3315843628209966.0
0.9754628431115548,2584059045276330.5,7674240393741646.0,435873429912532.06,584772390169489.5,2366445026209.439,6081087550246.569,136345299795417.25,3924742696011415.5
1.094972099973786,2637872768102704.5,8401163629228183.0,444950611151911.9,596950432843230.9,2745385840422.203,7054979047123.912,158181880022951.72,4553407572219836.0
1.2168715419732616,2683998512104189.5,9136597699181370.0,452731000922064.94,607388686360223.5,3135495328681.4653,8057608114046.608,180662915266105.38,5200623481086053.0
1.3412089728127268,2723947413461882.5,9881791082555502.0,459469494370884.94,616429120742741.1,3536274324172.227,9087694560768.11,203759699858648.2,5865561385236410.0
1.4680331522689813,2758858782580688.0,1.0637754834266502e+16,465358267887282.25,624329561864511.9,3947387012144.911,10144377992647.48,227452941696998.9,6547663515232235.0
1.597393815314361,2789608468888982.0,1.1405335543678134e+16,470545057838638.06,631288214397512.6,4368615490232.472,11227101069932.102,251730144559221.03,7246567941433613.0
1.729341691620648,2816881139476469.0,1.2185263147918698e+16,475145352373389.1,637460018462827.4,4799828969786.519,12335530383391.035,276583833880303.06,7962057444372548.0
1.863928525453061,2841219862638457.5,1.2978183288862292e+16,479250755064865.9,642967870383406.2,5240962392307.237,13469501519691.564,302010324929073.06,8694024011934500.0
2.001207095962122,2863060951120009.5,1.3784679823078924e+16,482934862193530.06,647910507707899.9,5692001271779.75,14628980122770.031,328008849663329.2,9442443670999626.0
2.1412312378813647,2882758964112577.5,1.4605290863063092e+16,486257480029110.6,652368167160866.9,6152970754644.261,15814033791490.031,354580926569432.25,1.0207358320644956e+16
2.284055862638992,2900604979810379.5,1.5440520454601498e+16,489267707005460.75,656406719721079.9,6623927598048.278,17024811475264.652,381729898632074.94,1.0988862410359198e+16
2.4297369798917723,2916840168800993.0,1.6290847240966366e+16,492006223250418.7,660080742278960.6,7104954205554.1045,18261528155988.684,409460589842534.7,1.1787093034431924e+16
2.578331719489608,2931666024451319.5,1.7156731003398592e+16,494507016224942.9,663435832772270.2,7596154137931.243,19524453320046.938,437779046695247.0,1.2602222475796856e+16
2.7298983538794,2945252175234183.5,1.8038617677205816e+16,496798698489289.56,666510378115118.8,8097648697617.429,20813902189076.3,466692341547101.25,1.3434452532933448e+16
2.884496320956988,2957742421687767.5,1.893694325565087e+16,498905526004137.0,669336920361525.2,8609574305472.937,22130228986573.11,496208421629350.75,1.4284010162676034e+16
3.0421862473761276,2969259452117619.0,1.9852136870357784e+16,500848193564888.7,671943223868478.0,9132080469575.377,23473821725859.68,526335992175521.94,1.5151144106435852e+16
3.2030299723236504,2979908562803906.0,2.078462325387741e+16,502644462318109.1,674353117178621.2,9665328201550.738,24845098148154.68,557084425340379.44,1.60361222598867e+16
3.3670905717701234,2989780619652076.0,2.1734824733106172e+16,504309659326277.75,676587163241610.9,10209488774836.62,26244502539437.387,588463688826083.4,1.6939229610745848e+16
3.5344323832055258,2998954435809335.5,2.2703162862568276e+16,505857078618947.7,678663197468591.5,10764742746799.105,27672503225514.0,620484289717486.5,1.7860766614981608e+16
3.7051210308696363,3007498695295965.0,2.369005977849612e+16,507298305666667.0,680596763049843.2,11331279186353.299,29129590595383.793,653157230165113.6,1.8801047914536772e+16
3.879223451487029,3015473520602906.0,2.469593933450333e+16,508643481799918.5,682401465702025.5,11909295063046.37,30616275539763.61,686493972378690.9,1.9760401323416972e+16
4.0568079205167695,3022931758766643.5,2.572122806501278e+16,509901521141419.25,684089264706849.5,12498994764053.56,32133088218588.6,720506410998654.0,2.0739167026416572e+16
4.237944078927105,3029920043125791.5,2.6766356011841456e+16,511080289700900.94,685670713186534.8,13100589713310.607,33680577091274.324,755206851360805.5,2.173769694766285e+16
4.422702960505647,3036479675055259.5,2.7831757441349732e+16,512186754104105.6,687155157640195.1,13714298072819.13,35259308158464.47,790607992504240.4,2.275635425581467e+16
4.61115701971576,3042647360254601.5,2.891787147355611e+16,513227105788289.1,688550904565854.6,14340344510546.62,36869864375253.21,826722914025378.2,2.37955129800362e+16
4.803380160110075,3048455826783585.5,3.002514264006728e+16,514206865251118.25,689865360321860.9,14978960022681.402,38512845204451.31,863565066073213.6,2.485555771641036e+16
4.9994477633122765,3053934346382785.5,3.1154021384192508e+16,515130969985889.2,691105149101710.0,15630381800560.924,40188866285036.04,901148261928348.1,2.5936883408708212e+16
5.199436718578522,3059109176251210.0,3.2304964513926628e+16,516003848999605.75,692276212908294.8,16294853134569.113,41898559196008.234,939486672722320.0,2.703989519071459e+16
5.403425452950093,3064003935058008.0,3.347843561639835e+16,516829486237817.75,693383896645334.8,16972623348836.99,43642571299830.74,978594823942340.2,2.8165008279866204e+16
5.611493962009095,3068639924307226.5,3.4674905440750268e+16,517611474791727.5,694433020842202.0,17663947761783.797,45421565652716.8,1018487593435971.1,2.931264791395863e+16
5.823723841249277,3073036404079433.0,3.589485225512523e+16,518353063409680.2,695427944054241.0,18369087668486.492,47236220971476.03,1059180210684935.0,3.0483249324257e+16
6.040198318074262,3077210830512664.0,3.713876218241561e+16,519057196554936.25,696372616604692.5,19088310341615.8,49087231648559.98,1100688257160660.4,3.1677257739592504e+16
6.261002284435747,3081179061059954.0,3.840712951861479e+16,519726549028058.1,697270627034451.9,19821889048277.824,50975307808486.84,1143027667608636.5,3.289512841702696e+16
6.486222330124463,3084955532497596.0,3.970045703695522e+16,520363555992959.06,698125242385349.1,20570103080579.57,52901175400064.555,1186214732136436.8,3.4137326695462252e+16
6.715946776726952,3088553415801378.0,4.101925628048946e+16,520970439101087.4,698939443248612.2,21333237798125.188,54865576319821.93,1230266099002531.8,3.5404328069217876e+16
6.950265712261491,3091984751313145.0,4.236404784534077e+16,521549229291024.6,699715954353065.2,22111584680960.68,56869268562866.42,1275198778021077.2,3.669661827911869e+16
7.18927102650672,3095260567054588.0,4.373536165650127e+16,522101786745400.9,700457271339532.9,22905441391741.633,58913026398040.62,1321030144512608.2,3.8014693419059256e+16
7.433056447036854,3098390982582401.0,4.513373723776531e+16,522629818408951.44,701165684263245.9,23715111846105.02,60997640564784.25,1367777943742494.8,3.9359060056357256e+16
7.681717575977592,3101385300398644.0,4.6559723977155896e+16,523134893407422.3,701843298280020.5,24540906290398.047,63123918489550.13,1415460295798924.0,4.073023536449094e+16
7.935351927497144,3104252086616765.5,4.801388138900027e+16,523618456654132.8,702492051900957.6,25383141386055.74,65292684519982.1,1464095700870339.8,4.2128747267052056e+16
8.194058966047088,3106999242323576.5,4.949677937365294e+16,524081840887166.3,703113733141663.9,26242140300037.504,67504780175364.71,1513703044888851.5,4.355513459193626e+16
8.45794014536803,3109634066861689.0,5.100899847572924e+16,524526277343702.06,703709993843058.5,27118232800827.438,69761064412101.14,1564301605511835.2,4.5009947234956056e+16
8.72709894827539,3112163314076433.5,5.25511301415988e+16,524952905247631.6,704282362400055.1,28011755359584.008,72062413903185.52,1615911058418623.5,4.649374633219328e+16
9.0016409272409,3114593242420353.0,5.4123776976793384e+16,525362780261074.3,704832255100199.6,28923051256093.29,74409723330809.14,1668551483902896.2,4.800710444052195e+16
9.281673745785717,3116929659681377.5,5.572755300390647e+16,525756882029021.06,705360986245656.5,29852470689233.863,76803905691385.14,1722243373744938.2,4.955060572582486e+16
9.567307220701432,3119177962993739.0,5.736308392149223e+16,526136120928299.2,705869777207677.1,30800370891711.37,79245892612400.16,1777007638350431.0,5.112484615850803e+16
9.85865336511546,3121343174700319.5,5.903100736441531e+16,526501344116745.5,706359764542249.8,31767116248859.48,81736634680607.12,1832865614144997.8,5.2730433715981624e+16
10.155826432417769,3123429974558137.0,6.073197316605704e+16,526853340965561.7,706832007278191.2,32753078421338.11,84277101781158.81,1889839071215561.8,5.43679885918372e+16
10.458942961066125,3125442728713456.0,6.246664362273863e+16,527192847946773.2,707287493474221.6,33758636471588.867,86868283447361.94,1947950221191372.2,5.6038143411493784e+16
10.768121820287448,3127385515817270.5,6.423569376069048e+16,527520553038329.06,707727146128895.1,34784176993932.78,89511189220790.25,2007221725358936.5,5.774154345413229e+16
11.083484256693197,3129262150604115.5,6.603981160586571e+16,527837099701327.06,708151828516484.8,35830094248215.39,92206849021558.53,2067676703006436.5,5.947884688076761e+16
11.405153941827061,3131076205216374.5,6.7879698456869544e+16,528143090476951.8,708562349012663.0,36896790296922.75,94956313528598.28,2129338739994145.8,6.125072496834387e+16
11.733257020663602,3132831028520956.5,6.9756069161255496e+16,528439090244762.4,708959465465878.1,37984675145708.2,97760654569825.7,2192231897548489.8,6.305786234975982e+16
12.067922161076874,3134529763634902.5,7.166965239542077e+16,528725629178888.2,709343889163391.4,39094166887282.16,100620965522125.4,2256380721277998.5,6.490095725975618e+16
12.409280604298411,3136175363850376.5,7.362119094831586e+16,529003205434204.6,709716288435100.5,40225691848628.32,103538361721099.88,2321810250410235.0,6.678072178661624e+16
12.75746621638438,3137770607126632.5,7.561144200917024e+16,529272287590817.8,710077291933073.0,41379684741522.57,106513980880573.47,2388546027249480.0,6.869788212964815e+16
13.112615540712067,3139318109296905.0,7.764117745942437e+16,529533316881769.94,710427491620266.2,42556588816334.97,109548983521852.31,2456614106855210.0,7.065317886243208e+16
13.474867851526309,3140820336121117.0,7.971118416904744e+16,529786709226066.75,710767445498054.0,43756856019106.98,112644553412772.08,2526041066942274.0,7.264736720182811e+16
13.844365208556836,3142279614300193.5,8.182226429741133e+16,530032857086542.75,711097680098762.6,44980947151901.2,115801898016577.89,2596854018003810.0,7.468121728275352e+16
14.221252512727972,3143698141554832.5,8.397523559888413e+16,530272131169929.94,711418692766502.9,46229332036425.66,119022248950704.23,2669080613658425.5,7.675551443874723e+16
14.605677562982532,3145077995860091.5,8.617093173330005e+16,530504881984529.2,711730953746946.5,47502489680941.195,122306862455530.23,2742749061223640.0,7.88710594883482e+16
14.997791114242183,3146421143917190.0,8.841020258145594e+16,530731441269208.25,712034908104499.5,48800908450465.484,125657019873208.4,2817888132517654.0,8.102866902732386e+16
15.397746936527026,3147729448935018.5,9.069391456578211e+16,530952123305980.0,712330977483264.4,50125086240288.18,129074028136670.0,2894527174891967.0,8.32291757267889e+16
15.805701875257567,3149004677786255.0,9.302295097632526e+16,531167226127074.5,712619561726463.2,51475530652819.12,132559220268926.7,2972696122497680.0,8.547342863726605e+16
16.221815912762718,3150248507596019.5,9.539821230218814e+16,531377032626294.56,712901040367437.5,52852759177792.75,136113955892793.94,3052425507788296.0,8.776229349873944e+16
16.64625223101797,3151462531814966.5,9.782061656855621e+16,531581811583420.5,713175774004011.2,54257299375852.5,139739621751178.11,3133746473262374.0,9.00966530567641e+16
17.079177275638333,3152648265823491.0,1.0029109967944573e+17,531781818609514.2,713444105566712.6,55689689065546.11,143437632238068.94,3216690783449394.5,9.247740738469294e+16
17.5207608211511,3153807152108970.0,1.0281061576630536e+17,531977297020195.44,713706361490374.1,57150476513760.61,147209429940398.44,3301290837142429.0,9.490547421208912e+16
17.97117603757412,3154940565053537.0,1.0538013754259755e+17,532168478643246.94,713962852797619.9,58640220629629.88,151056486190923.3,3387579679881383.5,9.738178925940112e+16
18.430599558325603,3156049815366537.5,1.0800065666448834e+17,532355584566262.25,714213876101927.6,60159491161948.44,154980301632308.06,3475591016690877.0,9.990730657896862e+16
18.899211549492115,3157136154192223.5,1.1067318409777422e+17,532538825829520.56,714459714537189.4,61708868900128.36,158982406792579.97,3565359225076738.0,1.0248299890244576e+17
19.37719578048196,3158200776920249.0,1.1339875049116435e+17,532718404068743.2,714700638620040.5,63288945878733.35,163064362672144.25,3656919368285480.5,1.0510985799471886e+17
19.864739696091597,3159244826724194.5,1.1617840655605077e+17,532894512111955.1,714936907050612.2,64900325585631.0,167227761342551.5,3750307208831227.0,1.0778889501440456e+17
20.36203449001343,3160269397850604.0,1.1901322345288435e+17,533067334534275.6,715168767456861.8,66543623173800.9,171474226557208.3,3845559222294527.5,1.105211408810171e+17
20.869275179813698,3161275538679155.0,1.2190429318428235e+17,533237048174103.9,715396457087065.8,68219465676837.086,175805414374240.84,3942712611397937.0,1.1330764664889286e+17
21.38666068340997,3162264254572658.0,1.2485272899498853e+17,533403822613841.1,715620203454787.5,69928492228189.04,180223013791719.1,4041805320363085.5,1.1614948388796435e+17
21.91439389707817,3163236510533681.0,1.2785966577881227e+17,533567820628017.8,715840224940073.2,71671354284177.75,184728747395449.88,4142876049554323.5,1.1904774507147656e+17
22.452681775019734,3164193233683419.0,1.3092626049266362e+17,533729198601414.5,716056731350411.6,73448715850834.0,189324372019570.8,4245964270413989.0,1.2200354397074403e+17
23.00173541052013,3165135315576696.5,1.3405369257781227e+17,533888106919553.25,716269924444625.0,75261253714595.95,194011679420156.53,4351110240694598.0,1.2501801605704206e+17
23.561770118730532,3166063614365988.5,1.3724316438848846e+17,534044690333721.5,716479998422581.5,77109657676912.1,198792496962083.12,4458355019993326.0,1.2809231891073382e+17
24.133005521105144,3166978956826080.5,1.4049590162795222e+17,534199088302483.0,716687140383384.9,78994630792792.19,203668688319373.66,4567740485594252.0,1.3122763263773381e+17
24.715665631527248,3167882140250123.0,1.4381315379215024e+17,534351435311511.7,716891530754444.9,80916889613346.17,208642154189277.34,4679309348624119.0,1.344251602934072e+17
25.309978944157795,3168773934226811.5,1.471961946210849e+17,534501861173347.5,717093343693649.6,82877164432359.5,213714833020321.47,4793105170527109.0,1.376861283140112e+17
25.91617852304095,3169655082307596.0,1.506463225580187e+17,534650491308625.8,717292747466663.5,84876199536941.05,218888701754593.7,4909172379864948.0,1.410117869557796e+17
26.53450209350177,3170526303572157.0,1.5416486121663818e+17,534797447010140.44,717489904801188.1,86914753462294.08,224165776584509.28,5027556289447813.0,1.4440341074175994e+17
27.165192135371807,3171388294099675.5,1.5775315985629373e+17,534942845691005.4,717684973219913.6,88993599250647.28,229548113724324.12,5148303113802734.0,1.4786229891650525e+17
27.808495978079243,3172241728352709.0,1.6141259386545043e+17,535086801118095.8,717878105353690.4,91113524714389.89,235037810196668.44,5271459986985239.0,1.513897759087297e+17
28.464665897640828,3173087260480143.0,1.6514456525346637e+17,535229423631816.44,718069449236382.8,93275332703457.94,240637004634364.5,5397074980741101.0,1.5498719180203933e+17
29.133959215593645,3173925525544917.5,1.6895050315081862e+17,535370820353200.2,718259148582709.5,95479841377003.47,246347878097813.97,5525197123024339.0,1.5865592281383866e+17
29.816638399905518,3174757140682010.5,1.7283186431791165e+17,535511095379226.0,718447343050288.9,97727884479398.72,252172654908234.44,5655876416878254.0,1.6239737178253424e+17
30.51297116790363,3175582706191503.0,1.7679013366258182e+17,535650349967203.7,718634168487003.4,100020311620609.45,258113603497035.84,5789163859686441.0,1.6621296866313184e+17
31.223230591261704,3176402806571438.5,1.8082682476642915e+17,535788682708986.25,718819757164735.6,102357988560979.17,264173037271627.84,5925111462800283.0,1.7010417103135146e+17
31.947695203086937,3177218011494522.0,1.8494348042009683e+17,535926189695723.2,719004238000393.4,104741797500464.0,270353315497961.34,6063772271550480.0,1.7407246459635738e+17
32.686649107148675,3178028876732685.5,1.891416731676217e+17,536062964673809.7,719187736765144.1,107172637372355.7,276656844200104.88,6205200385649238.0,1.781193637222288e+17
33.44038208929165,3178835945033002.0,1.9342300585998656e+17,536199099192640.75,719370376282624.9,109651424141532.92,283086077077165.94,6349450979990872.0,1.8224641195826848e+17
34.20918973107749,3179639746948400.5,1.9778911221798502e+17,536334682744722.25,719552276616938.8,112179091107272.02,289643516437875.56,6496580325857966.0,1.864551825782718e+17
34.993373525699035,3180440801626111.0,2.0224165740454e+17,536469802898678.0,719733555251081.4,114756589210659.1,296331714153155.0,6646645812540834.0,1.907472791288597e+17
35.793240996213015,3181239617556808.0,2.0678233860658285e+17,536604545425606.75,719914327256472.0,117384887346631.45,303153272626988.44,6799705969377859.0,1.9512433598699254e+17
36.60910581613728,3182036693287122.5,2.114128856266254e+17,536738994419261.5,720094705454185.8,120064972680686.11,310110845785932.44,6955820488224670.0,1.9958801892677366e+17
37.44128793246003,3182832518097779.5,2.161350614841449e+17,536873232410450.8,720274800568432.9,122797850970282.0,317207140087609.7,7115050246360046.0,2.0414002569565e+17
38.29011369110923,3183627572649961.0,2.2095066302690253e+17,537007340476052.75,720454721372814.6,125584546890969.75,324444915548511.9,7277457329836732.0,2.0878208660012758e+17
39.15591596493141,3184422329601710.0,2.2586152155232163e+17,537141398342991.7,720634574829822.5,128426104367273.55,331826986791479.2,7443105057285426.0,2.1351596510110314e+17
40.03903428423004,3185217254196537.5,2.3086950343903578e+17,537275484487530.2,720814466224043.1,131323586908354.3,339356224113187.56,7612058004180371.0,2.1834345841892563e+17
40.93981496991464,3186012804826032.0,2.3597651078873782e+17,537409676230159.25,720994499289471.1,134278077948474.03,347035554572030.44,7784382027575030.0,2.2326639814829654e+17
41.85861126931294,3186809433568140.0,2.4118448207844035e+17,537544049826402.0,721174776331323.4,137290681192288.47,354867963096737.25,7960144291316651.0,2.2828665088310874e+17
42.7957834946992,3187607586702784.5,2.464953928232708e+17,537678680553777.6,721355398342722.9,140362520964985.03,362856493616107.2,8139413291748553.0,2.3340611885134147e+17
43.751699164593184,3188407705206209.5,2.5191125624990726e+17,537813642795199.0,721536465116574.0,143494742567282.2,371004250210240.4,8322258883909096.0,2.3862674056010272e+17
