t(s),Total solute volume 1,Total retention volume 1,Total 1 volume 1,Total 2 volume 1,Total 3 volume 1,Total 4 volume 1,Total 5 volume 1,Total 6 volume 1
0.1,1277535415264620.8,2216485712870468.2,368078767489456.25,570871530116391.1,0.0,0.0,0.0,3.710125213445117e-74
0.202,1921185430958299.0,3333288233753483.5,553524835310575.9,858489063506842.8,24790488.01385533,79608382.85512826,2486296550.9129434,86313282343.07375
0.30604000000000003,2412274570058248.5,4185450450760452.5,695015621765557.2,1077934136069357.8,62876700.50222706,201913739.08692074,6307632209.313635,219550444642.30954
0.41216080000000005,2827802187375193.5,4906554393117751.0,814735901499041.9,1263614247549686.8,111669476.98881632,358601069.0385363,11203535053.280487,390382888236.392
0.5204040160000001,3196864615158892.5,5547077139210009.0,921068802579607.9,1428531209431981.0,170017524.64196807,545973178.5676485,17058385114.305588,594737663701.8491
0.6308120963200001,3533986269291805.5,6132215876130786.0,1018199046081479.2,1579175313569948.8,237303227.75288633,762046705.0241553,23810174945.85642,830437662676.6167
0.7434283382464002,3847615620115428.5,6676627167961369.0,1108560774055397.4,1719321791641417.5,313173586.78901905,1005688055.4806973,31423466991.201702,1096239820498.1671
0.8582969050113283,4143167222652792.5,7189704384468186.0,1193714008074167.5,1851390158447423.0,397429586.0973576,1276258127.880578,39878282097.855644,1391443323994.7263
0.9754628431115548,4424352446074506.5,7677886278974823.0,1274728054096791.0,1977038853592131.8,489971668.6362041,1573437212.472836,49164624731.2166,1715697177780.997
1.094972099973786,4693844192598397.0,8145810146285645.0,1352373018822990.2,2097462273710851.0,590769536.2307502,1897128010.8069077,59279451103.45035,2068893804753.609
1.2168715419732616,4953642000483042.0,8596945199722790.0,1427225001818573.0,2213553920157943.8,699844002.2807176,2247397359.101118,70224847449.56311,2451105174422.338
1.3412089728127268,5205287453807671.0,9033966258735596.0,1499728158584983.2,2326002655699680.5,817255414.1815325,2624439049.0612884,82006867871.07059,2862542080926.8403
1.4680331522689813,5449998590671961.0,9458986915135096.0,1570233425752813.2,2435352765336894.0,943095924.3036189,3028549007.629034,94634758527.16014,3303526969964.1787
1.597393815314361,5688757633941449.0,9873711723980158.0,1639023797739770.8,2542043159126665.5,1077484146.5052726,3460108137.4192185,108120421291.09427,3774475158704.4756
1.729341691620648,5922370417607459.0,1.027953929280401e+16,1706331448453684.8,2646433927079981.5,1220561360.410092,3919570127.505783,122478032768.59097,4275881498635.2017
1.863928525453061,6151507910584675.0,1.067763431420459e+16,1772349694975487.8,2748824894230403.5,1372488758.6042616,4407452613.341832,137723767999.55234,4808310704657.282
2.001207095962122,6376736007877942.0,1.1068979245296628e+16,1837241580879950.2,2849468932931504.5,1533445419.4214637,4924330666.762291,153875596989.07803,5372390234162.106
2.1412312378813647,6598537395961725.0,1.1454412238036794e+16,1901146176007969.2,2948581733485679.0,1703626798.6455643,5470831952.388354,170953133322.70285,5968804989349.335
2.284055862638992,6817327921879152.0,1.1834655535041614e+16,1964183292670785.8,3046349118738949.5,1883243601.4003868,6047633104.927391,188977520940.69318,6598293355087.477
2.4297369798917723,7033469062638565.0,1.2210337100567448e+16,2026457078286404.5,3142932616078675.5,2072520938.641909,6655457020.416709,207971349477.26657,7261644236374.869
2.578331719489608,7247277571373983.0,1.2582007354045654e+16,2088058794595651.0,3238473767857401.0,2271697700.885869,7295070845.075108,227958591402.96283,7959694858678.057
2.7298983538794,7459033042687995.0,1.2950152294071842e+16,2149068997360774.5,3333097511995375.5,2481026100.738655,7967284506.232574,248964556109.03604,8693329160989.726
2.884496320956988,7668983919636045.0,1.3315203919171648e+16,2209559267075540.0,3426914866224529.0,2700771348.798201,8672949671.550457,271015857377.44858,9463476657133.672
3.0421862473761276,7877352316720283.0,1.367754859476531e+16,2269593598548347.5,3520025083261755.0,2931211436.597323,9412959051.987038,294140391594.01874,10271111672843.943
3.2030299723236504,8084337931547323.0,1.4037533839306872e+16,2329229527914632.5,3612517398748236.5,3172637006.758141,10188245984.823658,318367324714.3127,11117252888969.469
3.3670905717701234,8290121246675627.0,1.439547387918375e+16,2388519055141237.0,3704472462007171.5,3425351295.2371964,10999784248.195536,343727086464.68695,12002963137704.982
3.5344323832055258,8494866172616427.0,1.4751654234253218e+16,2447509405518100.0,3795963517078944.5,3689670134.008535,11848588069.70679,370251370608.95667,12929349410931.121
3.7051210308696363,8698722246472871.0,1.5106335532609786e+16,2506243663121989.0,3887057385191397.5,3965922005.1198015,12735712300.019287,397973140370.88336,13897563048834.38
3.879223451487029,8901826474019852.0,1.5459756706892944e+16,2564761301549779.0,3977815287900312.5,4254448139.0116315,13662252728.584148,426926638298.9116,14908800083844.86
4.0568079205167695,9104304883266066.0,1.5812137690164908e+16,2623098631524954.5,4068293541304546.0,4555602651.485373,14629346523.484411,457147400009.6195,15964301720179.35
4.237944078927105,9306273842733436.0,1.6163681703703336e+16,2681289180715422.5,4158544145124278.0,4869752714.859086,15638172781.06635,488672271362.2552,17065354933331.324
4.422702960505647,9507841186476768.0,1.6514577209604698e+16,2739364017869983.0,4248615285420284.5,5197278759.753351,16689953173.93207,521539428707.2098,18213293177016.625
4.61115701971576,9709107179290058.0,1.6864999586217214e+16,2797352030910064.5,4338551765900191.0,5538574704.658536,17785952688.146595,555788401922.5762,19409497187575.71
4.803380160110075,9910165348926610.0,1.7215112572938076e+16,2855280166705829.5,4428395379799154.5,5894048211.000283,18927480442.32739,591460100009.6196,20655395877817.277
4.9994477633122765,1.0111103207004548e+16,1.7565069521969132e+16,2913173638780860.0,4518185232019234.0,6264120961.872498,20115890582.736744,628596839063.4291,21952467313877.246
5.199436718578522,1.0312002876224114e+16,1.7915014487606258e+16,2971056108023628.5,4607958019403861.0,6649228962.973356,21352583249.67537,667242372471.7958,23302239769952.82
5.403425452950093,1.051294163832299e+16,1.8265083178087772e+16,3028949840562423.0,4697748275593862.0,7049822864.57851,22639005611.431675,707441923225.2667,24706292856818.84
5.611493962009095,1.0713992414647664e+16,1.8615403790606292e+16,3086875846225738.0,4787588585772501.0,7466368303.630354,23976652962.830486,749242218245.9688,26166258720892.254
5.823723841249277,1.0915224189174974e+16,1.8966097746543096e+16,3144854000421696.5,4877509775694301.0,7899346265.2253065,25367069886.07398,792691524663.11,27683823311326.145
6.040198318074262,1.1116702382169504e+16,1.931728034112579e+16,3202903151794849.0,4967541078655323.0,8349253462.950081,26811851472.11244,837839687980.0728,29260727713202.93
6.261002284435747,1.131848918132386e+16,1.9669061319386252e+16,3261041217633060.0,5057710283464485.0,8816602737.659954,28312644601.237755,884738172092.2369,30898769545401.074
6.486222330124463,1.1520643836136786e+16,2.0021545388402884e+16,3319285268682642.0,5148043865987446.0,9301923474.412474,29871149281.97946,933440101126.7977,32599804422125.715
6.715946776726952,1.1723222920387276e+16,2.0374832674255656e+16,3377651604771459.0,5238567106434314.0,9805762037.372765,31489120047.712337,984000303086.0691,34365747477459.504
6.950265712261491,1.1926280566824098e+16,2.0729019130839776e+16,3436155822426753.5,5329304194231421.0,10328682222.594154,33168367410.667515,1036475355284.6957,36198574952595.01
7.18927102650672,1.2129868677576552e+16,2.1084196906621164e+16,3494812875497963.0,5420278322044271.0,10871265728.655191,34910759373.28599,1090923631578.7909,38100325845680.305
7.433056447036854,1.2334037113283386e+16,2.1440454674533204e+16,3553637129647818.0,5511511770290506.0,11434112645.200527,36718222997.06578,1147405351391.8142,40073103624444.4
7.681717575977592,1.2538833863509226e+16,2.1797877929472884e+16,3612642411452087.0,5603025983291105.0,12017841959.491537,38592746029.24404,1205982630547.7815,42119078001974.1
7.935351927497144,1.2744305200660568e+16,2.215654925723507e+16,3671842052745318.0,5694841638048390.0,12623092081.12568,40536378587.82574,1266719533927.791,44240486776197.19
8.194058966047088,1.2950495819311488e+16,2.2516548578198464e+16,3731248930762771.0,5786978706504131.0,13250521385.129698,42551234905.612816,1329682129970.4126,46439637733792.96
8.45794014536803,1.3157448962592942e+16,2.2877953368635972e+16,3790875504555349.5,5879456512017289.0,13900808773.674236,44639495134.036354,1394938547040.8333,48718910619398.92
8.72709894827539,1.3365206537084704e+16,2.3240838862144456e+16,3850733848091726.5,5972293780703739.0,14574654256.69626,46803407207.70462,1462559031697.4468,51080759171113.73
9.0016409272409,1.3573809217461596e+16,2.3605278233368868e+16,3910835680408712.5,6065508688197941.0,15272779551.751013,49045288770.703285,1532616008888.2256,53527713223429.44
9.281673745785717,1.3783296541990308e+16,2.3971342765922484e+16,3971192393125384.0,6159118902325991.0,15995928703.447557,51367529165.78493,1605184144112.3352,56062380878831.734
9.567307220701432,1.399370699983531e+16,2.4339102006168668e+16,4031815075597404.5,6253141622118699.0,16744868722.853762,53772591487.685844,1680340407585.836,58687450749421.26
9.85865336511546,1.4205078111017952e+16,2.4708623904329348e+16,4092714537954469.5,6347593613541489.0,17520390247.28435,56263014701.89939,1758164140452.7961,61405694270009.28
10.155826432417769,1.4417446499770174e+16,2.5079974944209244e+16,4153901332234783.5,6442491242272938.0,18323308220.91399,58841415830.32381,1838737123086.3855,64219968084233.52
10.458942961066125,1.4630847961939296e+16,2.5453220262675108e+16,4215385771805396.5,6537850503824694.0,19154462596.682774,61510492205.28831,1922143645526.6904,67133216505339.06
10.768121820287448,1.4845317527023188e+16,2.5828423759897372e+16,4277177949235625.0,6633687051262262.0,20014719059.988564,64273023793.53996,2008470580104.9163,70148474053351.33
11.083484256693197,1.5060889515350288e+16,2.6205648201250024e+16,4339287752771518.0,6730016220756098.0,20904969774.682064,67131875591.85468,2097807456305.8015,73268868070458.03
11.405153941827061,1.5277597590862158e+16,2.6584955311661812e+16,4401724881543333.5,6826853055167628.0,21826134151.907974,70090000096.01192,2190246537922.6992,76497621416500.8
11.733257020663602,1.549547480990445e+16,2.6966405863127884e+16,4464498859623073.5,6924212325851757.0,22779159642.3564,73150439844.9463,2285882902561.9746,79838055246556.2
12.067922161076874,1.571455366639064e+16,2.7350059756014664e+16,4527619049036860.0,7022108552838352.0,23765022552.51235,76316330041.96667,2384814523555.764,83293591872670.86
12.409280604298411,1.5934866133662332e+16,2.773597609472213e+16,4591094661825548.0,7120556023537823.0,24784728885.515423,79590901255.00224,2487142354344.382,86867757711894.47
12.75746621638438,1.6156443703337208e+16,2.8124213258210748e+16,4654934771237522.0,7219568810100371.0,25839315207.262077,82977482197.91307,2592970415391.985,90564186322829.61
13.112615540712067,1.6379317421405528e+16,2.8514828965848784e+16,4719148322128606.0,7319160785545853.0,26929849538.406513,86479502594.96933,2702405883701.381,94386621533003.56
13.474867851526309,1.6603517921809338e+16,2.890788033898795e+16,4783744140636845.0,7419345638768902.0,28057432272.940968,90100496130.68068,2815559184995.967,98338920659442.47
13.844365208556836,1.682907545771587e+16,2.9303423958636156e+16,4848730943192833.0,7520136888513308.0,29223197124.053833,93844103487.22816,2932544088639.316,102425057824905.16
14.221252512727972,1.7056019930674278e+16,2.970151591956097e+16,4914117344920294.0,7621547896401150.0,30428312097.991657,97714075471.82182,3053477805365.064,106649127372322.36
14.605677562982532,1.7284380917829246e+16,3.0102211881123584e+16,4979911867476672.0,7723591879092986.0,31673980496.671593,101714276236.38394,3178481087891.9575,111015347380055.33
14.997791114242183,1.7514187697344768e+16,3.050556711511566e+16,5046122946378299.0,7826281919648825.0,32961441949.81381,105848686592.03477,3307678334501.448,115528063280679.89
15.397746936527026,1.7745469272180616e+16,3.0911636550846444e+16,5112758937850603.0,7929630978152531.0,34291973477.38814,110121407420.9197,3441197695657.472,120191751586079.62
15.805701875257567,1.7978254392347492e+16,3.132047481770387e+16,5179828125240302.0,8033651901656807.0,35666890583.190926,114536663188.01001,3579171183750.2847,125011023721708.52
16.221815912762718,1.8212571575757876e+16,3.1732136285393924e+16,5247338725022814.0,8138357433500266.0,37087548380.394356,119098805555.57303,3721734786048.853,129990629972982.52
16.64625223101797,1.8448449127777044e+16,3.214667510204401e+16,5315298892435261.0,8243760222044069.0,38555342749.93182,123812317103.0928,3869028580948.638,135135463546828.42
17.079177275638333,1.8685915159570636e+16,3.256414523033959e+16,5383716726762694.0,8349872828870497.0,40071711532.61067,128681815155.49588,4021196857604.024,140450564751512.92
17.5207608211511,1.892499760533549e+16,3.2984600481849212e+16,5452600276302549.0,8456707736482712.0,41638135755.86573,133712055722.62256,4178388239037.138,145941125297967.56
17.97117603757412,1.9165724238494496e+16,3.3408094549679692e+16,5521957543030645.0,8564277355541342.0,43256140896.09597,138907937552.96234,4340755808817.6387,151612492725897.5
18.430599558325603,1.9408122686926756e+16,3.383468103959031e+16,5591796486989336.0,8672594031670257.0,44927298177.54738,144274506304.75388,4508457241410.236,157470174958077.28
18.899211549492115,1.9652220447301044e+16,3.4264413499686944e+16,5662125030417050.0,8781670051861495.0,46653225908.73737,149816958837.6413,4681654936289.529,163519844986304.1
19.37719578048196,1.9898044898572344e+16,3.469734544880261e+16,5732951061637023.0,8891517650506236.0,48435590857.439,155540647628.15424,4860516155924.693,169767345692591.62
19.864739696091597,2.0145623314697956e+16,3.5133530403668012e+16,5804282438720944.0,9002149015077080.0,50276109665.26894,161451085312.37616,5045213167738.675,176218694809274.97
20.36203449001343,2.039498287662419e+16,3.5573021904962532e+16,5876126992942459.0,9113576291484214.0,52176550302.95865,167553949359.24786,5235923390150.043,182880090021794.03
20.869275179813698,2.0646150683589868e+16,3.6015873542331864e+16,5948492532034038.0,9225811589126668.0,54138733567.40573,173855086878.05048,5432829542807.992,189757914218027.38
21.38666068340997,2.089915376379087e+16,3.646213897845143e+16,6021386843259489.0,9338866985657588.0,56164534621.64125,180360519563.69406,5636119801133.9,196858740888144.22
21.91439389707817,2.1154019084444696e+16,3.6911871972207784e+16,6094817696313708.0,9452754531481698.0,58255884578.86948,187076448783.54703,5845987955286.177,204189339679049.66
22.452681775019734,2.1410773561290924e+16,3.736512640106589e+16,6168792846060033.0,9567486254000648.0,60414772131.77448,194009260809.62317,6062633573667.838,211756682107595.56
23.00173541052013,2.1669444067562484e+16,3.782195628268463e+16,6243320035114922.0,9683074161621850.0,62643245228.31204,201165532200.05115,6286262171099.035,219567947436850.88
23.561770118730532,2.1930057442457316e+16,3.8282415795839816e+16,6318406996288776.0,9799530247543966.0,64943412795.239006,208552035333.84357,6517085381780.674,227630528719817.5
24.133005521105144,2.219264049913919e+16,3.8746559300705624e+16,6394061454891179.0,9916866493332322.0,67317446510.66513,216175744103.08826,6755321137177.508,235952039015101.22
24.715665631527248,2.2457220032294652e+16,3.921444135854875e+16,6470291130908047.0,1.0035094872295556e+16,69767582626.9412,224043839766.79288,7001193848953.107,244540317779152.9
25.309978944157795,2.272382282526876e+16,3.968611675087855e+16,6547103741057713.0,1.015422735267434e+16,72296123845.23447,232163716970.70404,7254934597091.707,253403437439813.38
25.91617852304095,2.2992475656803588e+16,4.016164049809896e+16,6624507000732281.0,1.0274275900652536e+16,74905441243.16806,240542989937.53964,7516781323345.895,262549710156015.62
26.53450209350177,2.326320530739882e+16,4.0641067877702216e+16,6702508625830232.0,1.0395252483199318e+16,77597976256.9487,249189498832.1924,7786979030152.079,271987694768607.8
27.165192135371807,2.3536038565313828e+16,4.112445444204266e+16,6781116334485757.0,1.0517169070751376e+16,80376242719.42407,258111316306.54834,8065779985159.451,281726203947393.4
27.808495978079243,2.381100223222901e+16,4.1611856035725704e+16,6860337848699851.0,1.0640037639742644e+16,83242828955.5615,267316754228.69714,8353443931521.251,291774311539602.7
28.464665897640828,2.4088123128581816e+16,4.210332881264814e+16,6940180895877792.0,1.076387017498879e+16,86200399936.86716,276814370601.41956,8650238304101.434,302141360125135.3
29.133959215593645,2.4367428098593868e+16,4.259892925271642e+16,7020653210277373.0,1.0888678671933292e+16,89251699496.30292,286612976674.9562,8956438451752.723,312836968784037.6
29.816638399905518,2.4648944015000656e+16,4.309871417827855e+16,7101762534371775.0,1.1014475138761544e+16,92399552605.29712,296721644259.173,9272327865826.229,323871041081827.5
30.51297116790363,2.4932697783499364e+16,4.36027407702922e+16,7183516620130862.0,1.114127159838765e+16,95646867714.48141,307149713240.379,9598198415076.805,335253773278377.4
31.223230591261704,2.5218716346923284e+16,4.411106658425975e+16,7265923230224205.0,1.1269080090320376e+16,98996639159.82327,317906799308.13635,9934350587131.027,346995662766248.56
31.947695203086937,2.5507026689157336e+16,4.462374956595127e+16,7348990139148831.0,1.139791267241243e+16,102451949635.86539,329002801897.58765,10281093736690.354,359107516744447.56
32.686649107148675,2.5797655838800892e+16,4.5140848066942776e+16,7432725134284857.0,1.1527781422497512e+16,106015972737.81903,340447912352.88965,10638746340644.29,371600461133771.9
33.44038208929165,2.609063087259041e+16,4.566242085998941e+16,7517136016881437.0,1.1658698439919382e+16,109691975574.3043,352252622317.50165,11007636260273.484,384485949740016.94
34.20918973107749,2.638597891858766e+16,4.618852715425597e+16,7602230602975385.0,1.1790675846956902e+16,113483321452.56007,364427732357.2274,11388101010726.158,397775773671466.2
34.993373525699035,2.6683727159143656e+16,4.671922661042547e+16,7688016724245079.0,1.1923725790148094e+16,117393472638.00539,376984360821.98914,11780488037956.121,411482071017243.56
35.793240996213015,2.6983902833642784e+16,4.725457935570353e+16,7774502228801260.0,1.2057860441516818e+16,121425993190.05376,389933952952.4991,12185155003313.78,425617336793241.4
36.60910581613728,2.728653324103657e+16,4.779464599873868e+16,7861694981916882.0,1.2193091999704594e+16,125584551876.14365,403288290238.09985,12602470075986.943,440194433162491.4
37.44128793246003,2.75916457421711e+16,4.8339487644475224e+16,7949602866697654.0,1.232943269101078e+16,129872925165.98238,417059500032.1862,13032812233491.643,455226599937000.5
38.29011369110923,2.789926776191354e+16,4.888916590895567e+16,8038233784694905.0,1.2466894770342884e+16,134295000308.04169,431260065431.7803,13476571570418.125,470727465368211.4
39.15591596493141,2.820942679108406e+16,4.9443742934088936e+16,8127595656462113.0,1.2605490522079706e+16,138854778490.3965,445902835427.9438,13934149615641.193,486711057233444.6
40.03903428423004,2.8522150388197012e+16,5.0003281402400376e+16,8217696422056426.0,1.2745232260849506e+16,143556378088.03238,461001035333.88116,14405959658209.236,503191814225762.8
40.93981496991464,2.8837466181014576e+16,5.056784455177793e+16,8308544041486541.0,1.2886132332224146e+16,148404037998.80045,476568277497.7153,14892427082129.502,520184597654941.7
41.85861126931294,2.915540186791817e+16,5.113749619022898e+16,8400146495107663.0,1.3028203113332106e+16,153402121070.2436,492618572307.0646,15393989710273.477,537704703467325.6
42.7957834946992,2.947598521909993e+16,5.1712300710662856e+16,8492511783964865.0,1.3171457013390688e+16,158555117619.55353,509166339492.72314,15911098157629.408,555767874592540.25
