t(s),Total solute volume 1,Total retention volume 1,Total 1 volume 1,Total 2 volume 1,Total 3 volume 1,Total 4 volume 1,Total 5 volume 1,Total 6 volume 1
0.1,1117071271046687.6,1512117690109863.2,171218609237430.47,223827809825744.56,0.0,0.0,0.0,0.0
0.202,1674250294979343.8,2284535118331005.5,256619981505940.2,335469899606008.94,12140002307.34704,29972003829.757153,632992504275.8546,17519837729300.043
0.30604000000000003,2092915857593544.5,2879020340356080.0,320790762682153.1,419358011664183.75,30654519818.258514,75681972416.1385,1598407397646.957,44250964526316.35
0.41216080000000005,2442082835627021.0,3386961032581182.5,374309178607061.44,489320676475454.5,54190453923.58257,133789306368.35779,2825670472241.144,78234691639109.05
0.5204040160000001,2747753923205400.5,3842605725871931.0,421160780923073.94,550568059999593.7,82114792041.60545,202731220911.10764,4281772280781.1943,118556343450127.5
0.6308120963200001,3022931709594845.0,4263005955370323.0,463338535830037.44,605705494008560.1,114061314786.97044,281603608337.16425,5947616786341.234,164686934227418.3
0.7434283382464002,3275195365202032.5,4658069603049320.0,502004137362643.44,656251618578016.8,149795577215.97366,369827694468.80396,7810979688827.766,216287878946116.25
0.8582969050113283,3509411606210715.0,5034146924004164.0,537903529317516.1,703181578714246.0,189159171344.28094,467012430665.6408,9863601769287.893,273130436390386.22
0.9754628431115548,3728921504392469.5,5395595647394266.0,571548813010051.5,747164825709531.6,232042122972.2293,572886345640.3813,12099749459080.64,335055826354518.0
1.094972099973786,3936134035026332.0,5745561360243319.0,603309223072904.9,788684046473643.2,278367514807.3942,687259582293.5568,14515412992075.104,401953015581259.5
1.2168715419732616,4132852545857610.5,6086405471661504.0,633461166843155.0,828100578192628.4,328082181357.54626,810000924882.2849,17107821183414.6,473745276478460.0
1.3412089728127268,4320467660885415.0,6419957353563461.0,662217791606079.0,865693060503900.4,381150720723.5752,941023015134.4061,19875129173363.703,550381537658841.75
1.4680331522689813,4500077831355565.5,6747671461972318.0,689747461995927.5,901681590325585.1,437551453222.79706,1080272374802.0277,22816207690835.48,631830546776379.2
1.597393815314361,4672568145064834.0,7070729768043265.0,716185839457583.0,936243512894319.4,497273588704.90875,1227722412299.4998,25930495345169.156,718076779280348.4
1.729341691620648,4838663793984231.0,7390111063166826.0,741644077473158.2,969524135084809.6,560315179000.2766,1383368367717.64,29217891859080.02,809117481218828.9
1.863928525453061,4998967493678124.0,7706639334518256.0,766214557007098.6,1001644223147131.1,626681599720.9065,1547223564732.4297,32678678904921.3,904960476616515.6
2.001207095962122,5153986372374741.0,8021018438574167.0,789975007916699.6,1032705390475716.8,696384400290.5597,1719316571618.389,36313460142367.74,1005622506692722.2
2.1412312378813647,5304151737578932.0,8333857527915115.0,812991538671049.6,1062794058249951.6,769440417034.5415,1899689011719.3323,40123114973415.305,1111127949013005.4
2.284055862638992,5449833897313079.0,8645690072173590.0,835320908070240.4,1091984425169472.2,845871078567.1227,2088393848675.9688,44108762324795.39,1221507814368745.5
2.4297369798917723,5591353468133860.0,8956988338435481.0,857012258476690.4,1120340733243983.0,925701854600.303,2285494025742.4614,48271731909146.625,1336798950791449.8
2.578331719489608,5728990136510697.0,9268174587700340.0,878108458711590.9,1147919023312588.2,1008961813632.8053,2491061373915.568,52613541163804.9,1457043404814112.5
2.7298983538794,5862989540882427.0,9579629853351698.0,898647158899156.9,1174768514003012.2,1095683264611.9385,2705175727384.0205,57135876568419.61,1582287904006707.8
2.884496320956988,5993568744479412.0,9891700910544084.0,918661629311007.4,1200932698322170.0,1185901464283.619,2927924201156.4297,61840578387956.125,1712583434378095.5
3.0421862473761276,6120920636095110.0,1.0204705872477374e+16,938181434892522.8,1226450225439719.8,1279654376591.452,3159400597195.048,66729628129876.58,1847984892946338.2
3.2030299723236504,6245217504630052.0,1.0518938730836208e+16,957232983149510.1,1251355616920252.0,1376982473803.805,3399704913574.607,71805138177318.36,1988550800571698.0
3.3670905717701234,6366613969286022.0,1.0834673074725144e+16,975839973272425.0,1275679853846930.2,1477928571456.656,3648942937132.3594,77069343185697.95,2134343063625458.8
3.5344323832055258,6485249401793881.0,1.1152165163509228e+16,994023767402290.5,1299450862163805.2,1582537690974.7576,3907225904457.307,82524592922710.55,2285426775631108.0
3.7051210308696363,6601249944206081.0,1.147165648648789e+16,1011803699906961.5,1322693916981372.8,1690856945158.9058,4174670219338.178,88173346300798.94,2441870051928176.5
3.879223451487029,6714730201735898.0,1.179337591127663e+16,1029197336850309.0,1345431981771096.8,1802935442728.8293,4451397217262.958,94018166403407.02,2603743891855919.5
4.0568079205167695,6825794672297919.0,1.2117541499789848e+16,1046220695104422.0,1367685994802813.5,1918824208877.0957,4737532969453.773,100061716346261.69,2771122064060100.5
4.237944078927105,6934538961036560.0,1.2444362053508458e+16,1062888428505937.8,1389475112500024.0,2038576119381.0469,5033208120381.043,106306755845783.67,2944081011380392.5
4.422702960505647,7041050817997116.0,1.2774038436693134e+16,1079213986904600.9,1410816917358291.0,2162245846281.0334,5338557753840.384,112756138390771.64,3122699772442265.0
4.61115701971576,7145411029337087.0,1.3106764716248844e+16,1095209752763309.0,1431727596517449.0,2289889813496.3086,5653721283571.333,119412808932450.62,3307059917601470.0
4.803380160110075,7247694186484095.0,1.3442729149266806e+16,1110887159050441.8,1452222095877963.8,2421566161037.889,5978842365108.464,126279802022976.23,3497245497305158.5
4.9994477633122765,7347969352976362.0,1.3782115043295098e+16,1126256791449549.8,1472314253715850.2,2557334716707.937,6314068826123.611,133360240344499.16,3693343001266006.0
5.199436718578522,7446300645053656.0,1.4125101509700246e+16,1141328477349189.5,1492016917015878.2,2697256974360.4985,6659552612975.776,140657333580563.12,3895441327113631.0
5.403425452950093,7542747739163651.0,1.4471864126778528e+16,1156111363630710.8,1511342043160688.8,2841396077948.914,7015449751555.834,148174377589438.9,4103631757404503.5
5.611493962009095,7637366317233431.0,1.4822575526325898e+16,1170613984917073.0,1530300789149950.0,2989816810707.4917,7381920320816.523,155914753845395.4,4318007944048551.0
5.823723841249277,7730208458699348.0,1.5177405915013488e+16,1184844323661050.2,1548903590151476.0,3142585588916.0,7759128437626.114,163881929119146.66,4538665899355938.0
6.040198318074262,7821322986788650.0,1.5536523540007862e+16,1198809863221382.0,1567160228885749.2,3299770459778.1353,8147242251788.805,172079455373056.72,4765703993027462.0
6.261002284435747,7910755775327814.0,1.5900095106732566e+16,1212517634888704.0,1585079897101172.0,3461441103014.2827,8546433950245.703,180510969850252.56,4999222954511352.0
6.486222330124463,7998550021357874.0,1.6268286155403874e+16,1225974259670530.2,1602671250198052.0,3627668835826.253,8956879769611.38,189180195339815.6,5239325880232168.0
6.715946776726952,8084746488019450.0,1.6641261401941298e+16,1239185985519348.2,1619942455895549.2,3798526620939.5737,9378760016319.803,198090940602705.94,5486118245266998.0
6.950265712261491,8169383721496078.0,1.701918504800029e+16,1252158720584527.5,1636901237700641.5,3974089077469.623,9812259093753.793,207247100945203.62,5739707919102600.0
7.18927102650672,8252498245244978.0,1.7402221064169308e+16,1264898062982941.2,1653554913826188.8,4154432494392.05,10257565535815.936,216652658928423.25,6000205185156558.0
7.433056447036854,8334124734278302.0,1.779053344978606e+16,1277409327511858.2,1669910432111713.0,4339634846426.777,10714872046471.566,226311685203978.4,6267722763787308.0
7.681717575977592,8414296171868263.0,1.818428647233658e+16,1289697569667846.2,1685974401422439.2,4529775812169.89,11184375544854.223,236228339467161.16,6542375838553858.0
7.935351927497144,8493043990721875.0,1.858364488899005e+16,1301767607285273.2,1701753119936500.0,4724936794328.77,11666277215577.771,246406871520106.22,6824282085516373.0
8.194058966047088,8570398200394742.0,1.898877415247472e+16,1313624040065587.5,1717252600674863.8,4925200941933.809,12160782563943.027,256851622438358.0,7113561705395343.0
8.45794014536803,8646387502479228.0,1.9399840603207988e+16,1325271267232763.8,1732478594581629.0,5130653174416.283,12668101475765.885,267567025835075.78,7410337458429094.0
8.72709894827539,8721039394904177.0,1.98170116493433e+16,1336713503519761.5,1747436611422573.0,5341380207454.621,13188448281587.984,278557609217825.6,7714734701789931.0
9.0016409272409,8794380266512811.0,2.0240455936187668e+16,1347954793664925.5,1762131938735739.0,5557470580504.125,13722041825058.756,289827995433501.06,8026881429435133.0
9.281673745785717,8866435482941573.0,2.067034350625917e+16,1358999025575049.2,1776569659039014.0,5779014685934.485,14269105535304.688,301382904197489.25,8346908314284783.0
9.567307220701432,8937229464697198.0,2.1106845951101068e+16,1369849942292565.8,1790754665474433.5,6006104799709.136,14829867503121.984,313227153703618.06,8674948752630424.0
9.85865336511546,9006785758223006.0,2.1550136555836452e+16,1380511152888225.8,1804691676047764.8,6238835113547.853,15404560560850.127,325365662311875.06,9011138910691176.0
10.155826432417769,9075127100652130.0,2.2000390437329108e+16,1390986142386115.0,1818385246603121.2,6477301768521.307,15993422365799.287,337803450311225.4,9355617773242176.0
10.458942961066125,9142275478865916.0,2.2457784676721856e+16,1401278280815820.5,1831839782656490.2,6721602890032.181,16596695487120.742,350545641755177.7,9708527194251282.0
10.768121820287448,9208252183405650.0,2.2922498447033028e+16,1411390831475675.5,1845059550198060.2,6971838624142.901,17214627496022.979,363597466368045.4,1.0070011949465414e+16
11.083484256693197,9273077857725268.0,2.339471313642009e+16,1421326958482030.5,1858048685561004.5,7228111175215.005,17847471059247.023,376964261520090.75,1.0440219790897222e+16
11.405153941827061,9336772543220702.0,2.3874612467653108e+16,1431089733671022.2,1870811204443967.0,7490524844829.435,18495484035726.887,390651474269962.25,1.0819301503166914e+16
11.733257020663602,9399355720423094.0,2.4362382614283724e+16,1440682142912501.8,1883351010165049.5,7759186071960.897,19158929576368.97,404664663473064.8,1.1207410961661664e+16
12.067922161076874,9460846346705520.0,2.485821231394631e+16,1450107091889495.2,1895671901217010.5,8034203474382.834,19838076226894.117,419009501954644.94,1.1604705192478356e+16
12.409280604298411,9521262890814042.0,2.5362292979183908e+16,1459367411390926.0,1907777578186343.8,8315687891283.073,20533198033693.79,433691778746573.6,1.201134443412105e+16
12.75746621638438,9580623364504922.0,2.58748188061534e+16,1468465862160828.0,1919671650092391.2,8603752427072.569,21244574652657.887,448717401386950.2,1.2427492200928556e+16
13.112615540712067,9638945351540684.0,2.6395986881530468e+16,1477405139342656.8,1931357640197280.8,8898512496372.78,21972491460939.64,464092398281765.44,1.285331534821077e+16
13.474867851526309,9696246034272806.0,2.6925997287905428e+16,1486187876553794.2,1942838991332365.8,9200085870169.184,22717239671628.05,479822921128042.8,1.3288984139076644e+16
13.844365208556836,9752542218019054.0,2.7465053207935136e+16,1494816649621915.2,1954119070782636.0,9508592723121.135,23479116451304.44,495915247397918.3,1.3734672312939244e+16
14.221252512727972,9807850353420708.0,2.8013361027491388e+16,1503293980011846.5,1965201174766511.5,9824155682019.54,24258425040463.324,512375782883293.4,1.419055715568656e+16
14.605677562982532,9862186556951076.0,2.8571130438027692e+16,1511622337968934.8,1976088532545089.0,10146899875386.78,25055474876785.703,529211064300756.8,1.4656819571509678e+16
14.997791114242183,9915566629728614.0,2.9138574538366736e+16,1519804145402668.5,1986784310191753.0,10476952984213.934,25870581721252.914,546427761956577.6,1.5133644156381684e+16
15.397746936527026,9968006074775394.0,2.971590993609445e+16,1527841778531947.5,1997291614050274.0,10814445293832.93,26704067787096.77,564032682471647.8,1.5621219273184262e+16
15.805701875257567,1.0019520112849538e+16,3.0303356848733324e+16,1535737570311770.8,2007613493907104.0,11159509746922.129,27556261871584.586,582032771566358.0,1.6119737128480056e+16
16.221815912762718,1.0070123696967538e+16,3.0901139204853068e+16,1543493812659164.2,2017752945901263.8,11512281997645.547,28427499490639.746,600435116905423.6,1.6629393850931382e+16
16.64625223101797,1.011983152572425e+16,3.150948474526671e+16,1551112758494812.2,2027712915193284.5,11872900466927.734,29318123016304.555,619246951002808.9,1.7150389571368362e+16
17.079177275638333,1.0168658055508296e+16,3.2128625124449544e+16,1558596623615310.5,2037496298412758.2,12241506398866.33,30228481817053.68,638475654186904.8,1.7682928504510308e+16
17.5207608211511,1.0216617511702182e+16,3.2758796012307336e+16,1565947588409911.8,2047105945902536.0,12618243918287.53,31158932400969.137,658128757626231.4,1.8227219032347244e+16
17.97117603757412,1.026372389894967e+16,3.3400237196416212e+16,1573167799434243.2,2056544663776037.5,13003260089448.521,32109838561792.484,678213946415975.2,1.8783473789188996e+16
18.430599558325603,1.0309991010566608e+16,3.405319268484392e+16,1580259370852719.2,2065815215802807.5,13396704975894.488,33081571527871.863,698739062725726.0,1.935190974839224e+16
18.899211549492115,1.035543243716339e+16,3.4717910809660004e+16,1587224385760186.8,2074920325136314.8,13798731701476.58,34074510114023.01,719712109008840.5,1.9932748310775804e+16
19.37719578048196,1.0400061574544694e+16,3.5394644331234028e+16,1594064897392717.8,2083862675896750.5,14209496512540.184,35089040876328.562,741141251273951.2,2.052621539473705e+16
19.864739696091597,1.044389163094422e+16,3.6083650543416664e+16,1600782930236526.5,2092644914620664.5,14629158841292.686,36125558269900.19,763034822419121.5,2.113254152808486e+16
20.36203449001343,1.0486935633649334e+16,3.67851913796931e+16,1607380481043372.2,2101269651588370.8,15057881370360.969,37184464809631.89,785401325629257.0,2.175196194160273e+16
20.869275179813698,1.0529206435065776e+16,3.74995335203949e+16,1613859519760084.2,2109739462039092.0,15495830098550.672,38266171233974.29,808249437837420.1,2.2384716664360004e+16
21.38666068340997,1.0570716718268434e+16,3.8226948501051304e+16,1620221990379403.5,2118056887283225.0,15943174407818.84,39371096671763.49,831588013250741.5,2.3031050620789944e+16
21.91439389707817,1.0611479002081296e+16,3.896771282195823e+16,1626469811718591.0,2126224435720186.0,16400087131473.598,40499668812138.12,855426086941642.8,2.369121372955294e+16
22.452681775019734,1.0651505645726238e+16,3.972210805904125e+16,1632604878131940.8,2134244583769848.2,16866744623614.592,41652324077581.92,879772878505194.1,2.4365461004206764e+16
23.00173541052013,1.0690808853076292e+16,4.0490420976082024e+16,1638629060162731.8,2142119776724840.2,17343326829829.705,42829507800132.38,904637795783393.9,2.5054052655704884e+16
23.561770118730532,1.0729400676548408e+16,4.127294363838299e+16,1644544205139895.8,2149852429530507.2,17830017359162.332,44031674400794.14,930030438657300.6,2.575725419674702e+16
24.133005521105144,1.0767293020666346e+16,4.206997352793183e+16,1650352137724076.2,2157444927498789.5,18327003557367.24,45259287572202.99,955960602907869.2,2.6475336548005092e+16
24.715665631527248,1.0804497645322428e+16,4.288181366013572e+16,1656054660407617.2,2164899626961825.8,18834476581471.51,46512820464583.805,982438284146501.1,2.7208576146251292e+16
25.309978944157795,1.0841026168765634e+16,4.370877270218915e+16,1661653553972523.8,2172218855870607.0,19352631475657.887,47792755875050.67,1009473681816299.9,2.7957255054413384e+16
25.91617852304095,1.0876890070340022e+16,4.4551165093134216e+16,1667150577910224.8,2179404914343776.2,19881667248490.445,49099586440297.53,1037077203265048.0,2.872166107358633e+16
26.53450209350177,1.091210069299713e+16,4.5409311165677416e+16,1672547470806648.0,2186460075170946.5,20421786951500.832,50433814832731.984,1065259467891022.8,2.9502087857027444e+16
27.165192135371807,1.094666924560324e+16,4.6283537269821736e+16,1677845950695839.8,2193386584275032.8,20973197759156.324,51795953960102.06,1094031311362732.1,3.0298835026165676e+16
27.808495978079243,1.0980606805060796e+16,4.71741758983718e+16,1683047715385183.8,2200186661137378.5,21536111050228.805,53186527168673.27,1123403789913771.5,3.111220828865569e+16
28.464665897640828,1.1013924318263256e+16,4.808156581437007e+16,1688154442754963.5,2206862499189358.2,22110742490587.85,54606068450011.71,1153388184713952.5,3.1942519558507916e+16
29.133959215593645,1.1046632603898636e+16,4.900605218052119e+16,1693167791034856.8,2213416266173824.8,22697312117438.53,56055122651428.836,1183996006317953.0,3.279008707832706e+16
29.816638399905518,1.10787423541188e+16,4.994798669065915e+16,1698089399059732.0,2219850104479527.8,23296044425027.55,57534245690152.36,1215238999192790.5,3.3655235543693204e+16
30.51297116790363,1.1110264136087398e+16,5.0907727703314184e+16,1702920886506986.8,2226166131451344.8,23907168451840.082,59044004771278.914,1247129146325332.0,3.4538296229720036e+16
31.223230591261704,1.1141208393421082e+16,5.188564037743202e+16,1707663854117372.8,2232366439678988.0,24530917869312.7,60584978609576.516,1279678673911286.8,3.5439607119824324e+16
31.947695203086937,1.1171585447535004e+16,5.288209681030141e+16,1712319883901285.0,2238453097266648.8,25167531072084.176,62157757655198.87,1312900056126958.8,3.635951303674428e+16
32.686649107148675,1.120140549890455e+16,5.389747617774364e+16,1716890539332111.0,2244428148085791.0,25817251269812.574,63762944323376.61,1346806019985200.5,3.729836577584279e+16
33.44038208929165,1.123067862825352e+16,5.493216487661536e+16,1721377365528387.8,2250293612013221.0,26480326580581.426,65401153228157.28,1381409550277065.2,3.825652424073443e+16
34.20918973107749,1.1259414797678176e+16,5.59865566696811e+16,1725781889426047.0,2256051485156342.5,27157010125921.676,67073011420257.55,1416723894600465.2,3.923435458127401e+16
34.993373525699035,1.128762385171588e+16,5.706105283290532e+16,1730105619942238.8,2261703740067231.5,27847560127477.668,68779158629103.734,1452762568477511.0,4.0232230333946e+16
35.793240996213015,1.1315315518366474e+16,5.815606230521913e+16,1734350048131894.0,2267252325947353.0,28552240005341.953,70520247509129.05,1489539360561952.5,4.125053256469695e+16
36.60910581613728,1.1342499410073908e+16,5.92720018408123e+16,1738516647338145.2,2272699168844213.5,29271318478087.81,72296943890402.33,1527068337938342.5,4.228965001424912e+16
37.44128793246003,1.1369185024674388e+16,6.04092961640057e+16,1742606873337680.5,2278046171841302.5,30005069664527.953,74109927033663.16,1565363851514423.5,4.334997924593976e+16
38.29011369110923,1.1395381746317532e+16,6.156837812675324e+16,1746622164481917.0,2283295215242739.5,30753773187225.992,75959889889840.11,1604440541508478.2,4.443192479612548e+16
39.15591596493141,1.1421098846366022e+16,6.274968886882855e+16,1750563941834919.8,2288448156753513.5,31517714277792.527,77847539364127.0,1644313343033223.5,4.5535899327198984e+16
40.03903428423004,1.1446345484279016e+16,6.395367798074838e+16,1754433609308787.0,2293506831656455.0,32297183883992.766,79773596584701.28,1684997491777859.2,4.666232378325763e+16
40.93981496991464,1.1471130708483494e+16,6.5180803669483656e+16,1758232553797202.0,2298473052986876.0,33092478778696.63,81738797176158.0,1726508529790123.8,4.781162754847122e+16
41.85861126931294,1.14954634572383e+16,6.6431532927012824e+16,1761962145307883.0,2303348611705678.5,33903901670701.75,83743891537746.36,1768862311359969.2,4.898424860819271e+16
42.7957834946992,1.1519352559494126e+16,6.7706341701768664e+16,1765623737094383.5,2308135276871644.5,34731761317459.094,85789645126487.8,1812075009006595.8,5.018063371285802e+16
