t(s),Total solute volume 1,Total retention volume 1,Total 1 volume 1,Total 2 volume 1,Total 3 volume 1,Total 4 volume 1,Total 5 volume 1,Total 6 volume 1
0.1,1384269013029218.2,1.039366397781807e+16,2531887414418598.5,6477507550370256.0,0.0,0.0,0.0,0.013903653951609765
0.202,2001028059134974.8,1.5025538112077812e+16,3659969821322321.5,9363629277283176.0,638302310.6116849,4358387831.119872,151468979335.2719,754488667861.1832
0.30604000000000003,2489293534870840.5,1.8693278690899356e+16,4553029710621086.0,1.1648433813052398e+16,1604061059.3726315,10966092800.036741,402782893113.3118,2106279308052.9265
0.41216080000000005,2906613376427091.5,2.1828914607162e+16,5316326660208003.0,1.3601250401265642e+16,2837696178.2227197,19409193138.55808,732645065823.2688,3969277306124.6616
0.5204040160000001,3278761528447931.0,2.4625917455325116e+16,5997002491517627.0,1.5342688513261688e+16,4311019357.12559,29494054869.7852,1131349979504.885,6299767044135.754
0.6308120963200001,3619406053768001.5,2.718688524323194e+16,6620056741390406.0,1.693670742980097e+16,6008729737.055382,41115682086.76922,1593817170894.3403,9074076689847.662
0.7434283382464002,3936699876852020.0,2.957301803657743e+16,7200401489206303.0,1.8421458358987548e+16,7922046152.966545,54213836535.37263,2117175642296.223,12279000006550.242
0.8582969050113283,4235936082220514.0,3.1824050215825516e+16,7747718031153015.0,1.982170997671845e+16,10046003336.687546,68754455240.41774,2699791402613.184,15907533872335.305
0.9754628431115548,4520771102612190.0,3.396743222904459e+16,8268694150672079.0,2.1154572322302716e+16,12378107719.33109,84720422433.41795,3340807278539.0312,19956747648918.816
1.094972099973786,4793851974758289.0,3.6023038912329044e+16,8768171399069644.0,2.2432432022052332e+16,14917589903.86779,102106440787.82881,4039895975612.8125,24426596442463.793
1.2168715419732616,5057166215646346.0,3.800579566948403e+16,9249785035619410.0,2.3664589519843684e+16,17664954223.373734,120915942097.9565,4797115003962.369,29319202474310.227
1.3412089728127268,5312250347318253.0,3.992724362307751e+16,9716345429122418.0,2.485823485802046e+16,20621690749.83405,141159112599.2955,5612815631872.616,34638392181150.75
1.4680331522689813,5560320946142788.0,4.179652322260415e+16,1.0170077753090338e+16,2.6019060914879464e+16,23790082692.619568,162851572577.6285,6487582843259.697,40389383993012.13
1.597393815314361,5802360641707153.0,4.362101970553875e+16,1.061277928168069e+16,2.715166583115261e+16,27173073032.625202,186013462184.67215,7422194204955.054,46578570258129.89
1.729341691620648,6039176613816703.0,4.540680213473759e+16,1.1045926383396442e+16,2.825982674291115e+16,30774169643.80376,210668791132.1762,8417590843335.61,53213360809179.01
1.863928525453061,6271441603732712.0,4.7158931194427e+16,1.1470749532518884e+16,2.934669169088687e+16,34597376376.8275,236844966363.38422,9474856492200.87,60302068453561.07
2.001207095962122,6499723418201844.0,4.888168061965363e+16,1.1888287273327088e+16,3.0414917682532652e+16,38647142220.31838,264572443637.1193,10595202104377.322,67853823901815.75
2.1412312378813647,6724506633514405.0,5.057870008509124e+16,1.2299425917811266e+16,3.146677225462537e+16,42928323398.36435,293884467775.32227,11779954410571.111,75878511938436.16
2.284055862638992,6946208875188874.0,5.225313738369532e+16,1.2704929321958356e+16,3.2504209652876336e+16,47446154949.52455,324816877890.224,13030547349727.316,84386723289166.34
2.4297369798917723,7165193239732522.0,5.3907731652261656e+16,1.310546160571799e+16,3.352892895865202e+16,52206229404.79473,357407961259.58307,14348515635159.623,93389718333282.75
2.578331719489608,7381777917658928.0,5.554488559346213e+16,1.35016047539395e+16,3.4542419119172276e+16,57214480883.9441,391698344330.9032,15735489941168.39,102899399925048.98
2.7298983538794,7596243750052876.0,5.7166722190387336e+16,1.3893872437672874e+16,3.5545994307891576e+16,62477173401.056335,427730912567.3017,17193193341688.87,112928293342342.48
2.884496320956988,7808840235110096.0,5.877512978944132e+16,1.4282721000402848e+16,3.654082203164867e+16,68000892493.958374,465550753067.6192,18723438732636.86,123489531901476.08
3.0421862473761276,8019790355385888.0,6.0371798333941336e+16,1.466855828730594e+16,3.7527945719410584e+16,73792539519.22717,505205115449.3374,20328127039350.887,134596847144638.86
3.2030299723236504,8229294496203931.0,6.195824877811475e+16,1.505175081219807e+16,3.850830305816689e+16,79859328116.49008,546743387593.38245,22009246060014.82,146264562770162.9
3.3670905717701234,8437533655413334.0,6.3535857183847016e+16,1.543262962832588e+16,3.9482741012741704e+16,86208782463.28668,590217083655.5372,23768869831662.656,158507591668298.56
3.5344323832055258,8644672094652291.0,6.510587462705627e+16,1.5811495177648212e+16,4.045202823217713e+16,92848737028.32211,635679842342.4075,25609158431547.523,171341435567698.5
3.7051210308696363,8850859546125264.0,6.666944376925517e+16,1.6188621327131636e+16,4.1416865376175944e+16,99787337595.54697,683187433892.6432,27532358146115.14,184782186904753.3
3.879223451487029,9056233062423132.0,6.822761275115145e+16,1.6564258752155424e+16,4.237789377119132e+16,107033043380.33318,732797774538.7281,29540801954472.754,198846532609155.84
4.0568079205167695,9260918577281554.0,6.978134691778784e+16,1.6938637791209274e+16,4.3335702713873544e+16,114594630096.33772,784570947480.4261,31636910284404.523,213551759561480.28
4.237944078927105,9465032230445220.0,7.1331538774201704e+16,1.7311970869130018e+16,4.429083567066852e+16,122481193860.49344,838569229598.644,33823192007580.17,228915761526993.03
4.422702960505647,9668681498641380.0,7.287901648679883e+16,1.7684454565703576e+16,4.524379557011958e+16,130702155846.07239,894857123292.6521,36102245647292.15,244957047407882.7
4.61115701971576,9871966166119058.0,7.442455118149734e+16,1.805627139082498e+16,4.6195049344429304e+16,139267267611.499,953501392945.1257,38476760777307.31,261694750686115.38
4.803380160110075,1.0074979161606328e+16,7.596886324014296e+16,1.842759131533125e+16,4.714503184593508e+16,148186617046.67685,1014571105615.9843,40949519594585.07,279148639953068.38
4.9994477633122765,1.0277807283392712e+16,7.751262775808114e+16,1.879857309720983e+16,4.8094149240074744e+16,157470634889.8838,1078137675643.3612,43523398651938.4,297339130441339.44
5.199436718578522,1.048053183020152e+16,7.905647929544192e+16,1.9169365435492816e+16,4.90427819575038e+16,167130101777.41086,1144274912892.4949,46201370739396.0,316287296489728.44
5.403425452950093,1.068322915231802e+16,8.060101603068928e+16,1.9540107978295024e+16,4.99912872730557e+16,177176155795.53372,1213059074444.2017,48986506905199.59,336014884885108.25
5.611493962009095,1.088597113488997e+16,8.214680340585584e+16,1.9910932206792868e+16,5.094000156730845e+16,187620300510.5025,1284568919556.2478,51881978609151.51,356544329035349.2
5.823723841249277,1.1088825623271538e+16,8.369437733753616e+16,2.02819622131974e+16,5.188924231694748e+16,198474413457.24628,1358885767765.3757,54891060002490.58,377898763936119.75
6.040198318074262,1.129185679863028e+16,8.524424705532181e+16,2.0653315387756612e+16,5.283930985238849e+16,209750755071.68048,1436093560026.3652,58017130329695.72,400102041901577.44
6.261002284435747,1.1495125510695852e+16,8.67968976192967e+16,2.1025103027367776e+16,5.379048891484864e+16,221461978054.99332,1516278922808.4856,61263676448626.7,423178749034997.1
6.486222330124463,1.16986895734338e+16,8.835279215999906e+16,2.1397430876378236e+16,5.4743050039927976e+16,233621137161.2489,1599531235089.8904,64634295466271.25,447154222420487.94
6.715946776726952,1.1902604028528838e+16,8.991237387750267e+16,2.1770399608508212e+16,5.569725079055878e+16,246241699402.13885,1685942698207.6943,68132697488086.695,472054568021250.3
6.950265712261491,1.2106921380820022e+16,9.147606783071387e+16,2.214410525747239e+16,5.66533368587052e+16,259337554664.86752,1775608408536.1167,71762708479543.5,497906679273543.4
7.18927102650672,1.2311691809215238e+16,9.304428254335552e+16,2.251863960275206e+16,5.761154305232071e+16,272923026740.9892,1868626432977.7302,75528273239005.11,524738256368685.2
7.433056447036854,1.2516963356100108e+16,9.46174114492767e+16,2.2894090516032624e+16,5.857209418167217e+16,287012884765.6233,1965097887263.7734,79433458481537.52,552577826218185.06
7.681717575977592,1.272278209782807e+16,9.61958341965047e+16,2.327054227303749e+16,5.953520585713385e+16,301622355067.86206,2065127017069.0803,83482456033637.77,581454763099490.8
7.935351927497144,1.2929192298518446e+16,9.777991782676059e+16,2.3648075834831904e+16,6.0501085208873624e+16,316767133434.4174,2168821281955.5679,87679586139220.34,611399309981947.2
8.194058966047088,1.3136236549086012e+16,9.937001784488216e+16,2.4026769102114124e+16,6.1469931537430136e+16,332463397789.64307,2276291442165.661,92029300877506.36,642442600534434.6
8.45794014536803,1.3343955893168536e+16,1.0096647919067328e+17,2.440669714554274e+16,6.244193690298093e+16,348727821296.03143,2387651648293.7227,96536187693736.12,674616681817807.6
8.72709894827539,1.3552389941400904e+16,1.025696371240592e+17,2.4787932414749132e+16,6.341728666007874e+16,365577585880.16693,2503019533869.4854,101204973043866.47,707954537666755.4
9.0016409272409,1.3761576975298426e+16,1.0417981803303686e+17,2.5170544928344668e+16,6.439615994376495e+16,383030396189.89886,2622516310892.945,106040526154638.81,742490112767065.5
9.281673745785717,1.3971554041852552e+16,1.0579734017271458e+17,2.5554602446940704e+16,6.537873011222285e+16,401104493989.2331,2746266868365.083,111047862900600.58,778258337435467.2
9.567307220701432,1.418235703980659e+16,1.0742251434271182e+17,2.59401706309506e+16,6.636516515049743e+16,419818672998.0853,2874399873863.334,116232149799847.77,815295153110422.1
9.85865336511546,1.4394020798460728e+16,1.090556445093122e+17,2.6327313184727804e+16,6.735562803925762e+16,439192294184.67395,3007047878214.965,121598708130425.25,853637538563210.6
10.155826432417769,1.4606579149755136e+16,1.1069702837800093e+17,2.6716091988409076e+16,6.835027709210272e+16,459245301518.88885,3144347423325.4004,127153018169477.06,893323536839696.0
10.458942961066125,1.4820064994291764e+16,1.1234695792136195e+17,2.710656721867115e+16,6.934926626450621e+16,479998238195.5215,3286439153222.21,132900723557385.05,934392282944009.1
10.768121820287448,1.50345103618794e+16,1.1400571986673925e+17,2.749879745947069e+16,7.035274543713189e+16,501472263336.7395,3433467928379.085,138847635789272.66,976884032276298.4
11.083484256693197,1.5249946467120888e+16,1.1567359614757136e+17,2.789283980371551e+16,7.136086067594851e+16,523689169183.6812,3585582943387.1816,144999738836381.25,1020840189837486.9
11.405153941827061,1.546640376050258e+16,1.1735086432187451e+17,2.8288749946709824e+16,7.237375447130048e+16,546671398787.514,3742937848044.693,151363193899946.12,1066303340214764.6
11.733257020663602,1.5683911975397054e+16,1.1903779796097142e+17,2.868658227212405e+16,7.339156595785158e+16,570442064210.7162,3905690871938.311,157944344300326.5,1113317278362281.8
12.067922161076874,1.5902500171344458e+16,1.2073466701123432e+17,2.908638993115838e+16,7.441443111711707e+16,595024965249.8171,4074004952593.2837,164749720504243.22,1161927041192254.8
12.409280604298411,1.612219677393988e+16,1.2244173813131392e+17,2.948822491549879e+16,7.544248296411382e+16,620444608691.2064,4248047867271.609,171786045293108.94,1212178939992344.2
12.75746621638438,1.6343029611619708e+16,1.2415927500707659e+17,2.9892138124600704e+16,7.64758517194982e+16,646726228112.0549,4427992368500.732,179060239075519.16,1264120593685896.8
13.112615540712067,1.6565025949609482e+16,1.2588753864624082e+17,3.029817942778136e+16,7.751466496842302e+16,673895804238.7781,4614016323417.788,186579425347096.3,1317800962952253.8
13.474867851526309,1.6788212521269562e+16,1.276267876545071e+17,3.070639772155217e+16,7.855904780721646e+16,701980085875.8645,4806302857017.105,194350936300968.97,1373270385224980.2
13.844365208556836,1.7012615557050676e+16,1.2937727849479805e+17,3.111684098258009e+16,7.960912297887766e+16,731006611418.2927,5005040499391.365,202382318592276.06,1430580610586524.5
14.221252512727972,1.7238260811250984e+16,1.311392657310681e+17,3.152955631662716e+16,8.066501099828349e+16,761003730961.0978,5210423337059.425,210681339260176.97,1489784838578357.5
14.605677562982532,1.7465173586747398e+16,1.3291300225800523e+17,3.1944590003785436e+16,8.172683026791744e+16,792000629020.097,5422651168476.281,219255991810957.7,1550937755946352.8
14.997791114242183,1.7693378757857172e+16,1.3469873951781675e+17,3.236198754029174e+16,8.27946971848486e+16,824027347878.072,5641929663823.396,228114502465903.97,1614095575341650.8
15.397746936527026,1.792290079147128e+16,1.3649672770519152e+17,3.278179367718163e+16,8.386872623962232e+16,857114811571.1526,5868470529179.9375,237265336577724.38,1679316074997909.0
15.805701875257567,1.815376376658744e+16,1.3830721596142018e+17,3.320405245601611e+16,8.494903010766507e+16,891294850530.4738,6102491675178.201,246717205219387.78,1746658639406381.2
16.221815912762718,1.838599139235919e+16,1.4013045255857334e+17,3.3628807241894348e+16,8.603571973374238e+16,926600226894.5583,6344217390248.912,256479071949346.47,1816184301010871.5
16.64625223101797,1.8619607024766424e+16,1.419666850745606e+17,3.4056100753944624e+16,8.712890440996816e+16,963064660508.2397,6593878518564.606,266560159757198.2,1887955782945113.5
17.079177275638333,1.885463368200362e+16,1.4381616055981347e+17,3.4485975093470268e+16,8.822869184781147e+16,1000722855624.3262,6851712642791.869,276969958193945.88,1962037542835783.2
17.5207608211511,1.9091094058672964e+16,1.4567912569628112e+17,3.491847176990936e+16,8.93351882445128e+16,1039610528324.5472,7117964271765.67,287718230691100.8,2038495817694805.2
17.97117603757412,1.932901053886201e+16,1.4755582694936355e+17,3.5353631724754736e+16,9.044849834428062e+16,1079764434676.7129,7392885033201.6045,298815022072971.3,2117398669925229.0
18.430599558325603,1.956840520817923e+16,1.494465107133585e+17,3.579149535356698e+16,9.156872549460914e+16,1121222399645.3745,7676733871564.285,310270666266575.4,2198816034465520.5
18.899211549492115,1.980929986481282e+16,1.5135142345095222e+17,3.6232102526201976e+16,9.269597169802806e+16,1164023346773.6443,7969777251212.67,322095794213698.9,2282819767097592.5
19.37719578048196,2.0051716029674316e+16,1.5327081182723514e+17,3.667549260536373e+16,9.383033765956933e+16,1208207328654.1987,8272289364945.805,334301341989741.25,2369483693944535.0
19.864739696091597,2.029567495568239e+16,1.5520492283870022e+17,3.712170446358501e+16,9.497192283020798e+16,1253815558207.8513,8584552348074.578,346898559134046.5,2458883662184486.5
20.36203449001343,2.0541197636237188e+16,1.571540039376269e+17,3.75707764987272e+16,9.612082544651942e+16,1300890440788.4978,8906856498148.066,359899017196545.0,2551097592007674.5
20.869275179813698,2.0788304812932496e+16,1.5911830315224288e+17,3.802274664808651e+16,9.727714256676638e+16,1349475607133.4954,9239500500465.277,373314618505616.1,2646205529844228.0
21.38666068340997,2.1037016982548108e+16,1.6109806920301008e+17,3.8477652401182584e+16,9.844097010361976e+16,1399615947179.056,9582791659505.746,387157605162163.75,2744289702890863.0
21.91439389707817,2.1287354403361624e+16,1.6309355161537104e+17,3.893553081130406e+16,9.961240285369384e+16,1451357644760.4695,9937046136414.824,401440568265010.94,2845434574965150.5
22.452681775019734,2.1539337100815856e+16,1.6510500082925104e+17,3.939641850587362e+16,1.0079153452406642e+17,1504748213217.41,10302589192682.379,416176457372800.3,2949726903716607.5
23.00173541052013,2.179298487257461e+16,1.6713266830561206e+17,3.98603516956958e+16,1.0197845775593744e+17,1559836531924.9636,10679755440155.617,431378590207695.1,3057255799224464.0
23.561770118730532,2.204831729299778e+16,1.691768066303098e+17,4.032736618314209e+16,1.0317326414556978e+17,1616672883771.3093,11068889097529.676,447060662606250.2,3168112784012449.5
24.133005521105144,2.2305353717063228e+16,1.7123766961550995e+17,4.079749736932384e+16,1.0437604426264104e+17,1675308993603.427,11470344253462.174,463236758722944.5,3282391854511589.5
24.715665631527248,2.2564113283761664e+16,1.7331551239889155e+17,4.127078026030209e+16,1.0558688766612915e+17,1735798067662.5334,11884485136459.805,479921361491936.6,3400189544002562.5
25.309978944157795,2.2824614918987548e+16,1.754105915408529e+17,4.174724947237509e+16,1.0680588291784214e+17,1798194834031.3281,12311686391688.566,497129363352714.06,3521604987069665.5
25.91617852304095,2.308687733794899e+16,1.775231651199206e+17,4.22269392364857e+16,1.0803311759369235e+17,1862555584115.4712,12752333364860.719,514876077245398.56,3646739985599254.0
26.53450209350177,2.3350919047115264e+16,1.7965349282655754e+17,4.270988340178404e+16,1.0926867829281224e+17,1928938215182.1052,13206822393354.604,533177247881557.6,3775699076355736.0
27.165192135371807,2.3616758345721976e+16,1.8180183605554272e+17,4.319611543838035e+16,1.1051265064459616e+17,1997402273978.5767,13675561104725.652,552049063296477.1,3908589600169238.0
27.808495978079243,2.388441332684994e+16,1.8396845799709974e+17,4.3685668439318056e+16,1.1176511931374925e+17,2068009001454.8464,14158968722769.662,571508166688934.4,4045521772769276.0
28.464665897640828,2.4153901878093868e+16,1.86153623726922e+17,4.417857512179708e+16,1.1302616800341722e+17,2140821378613.4783,14657476381301.27,591571668554606.2,4186608757299578.0
29.133959215593645,2.4425241681835508e+16,1.8835760029526102e+17,4.467486782767329e+16,1.1429587945646368e+17,2215904173511.393,15171527445813.492,612257159119342.5,4331966738549856.0
29.816638399905518,2.469845021513439e+16,1.9058065681520522e+17,4.517457852325901e+16,1.1557433545496014e+17,2293323989437.9487,15701577843186.209,633582721078618.1,4481714998940679.0
30.51297116790363,2.4973544749249e+16,1.9282306455030115e+17,4.567773879844665e+16,1.1686161681794358e+17,2373149314294.198,16248096399613.707,655566942649574.9,4635975996298534.0
31.223230591261704,2.5250542348798948e+16,1.950850970016327e+17,4.618437986517673e+16,1.1815780339749846e+17,2455450571198.635,16811565186924.22,678228930942156.8,4794875443458532.0
31.947695203086937,2.552945987057972e+16,1.9736702999449405e+17,4.669453255526992e+16,1.194629740732078e+17,2540300170344.781,17392479877465.713,701588325655915.9,4958542389733033.0
32.686649107148675,2.5810313962038836e+16,1.9966914176476765e+17,4.720822731763972e+16,1.207772067450253e+17,2627772562136.746,17991350107735.113,725665313109171.8,5127109304284863.0
33.44038208929165,2.609312105942286e+16,2.0199171304512323e+17,4.7725494214903304e+16,1.2210057832460256e+17,2717944291628.6353,18608699850930.113,750480640607267.6,5300712161444659.0
34.20918973107749,2.637789738560337e+16,2.0433502715114778e+17,4.824636291940552e+16,1.2343316472511693e+17,2810894054294.4697,19245067798604.35,776055631156794.6,5479490528012385.0
34.993373525699035,2.6664658947589624e+16,2.0669937006751152e+17,4.877086270866875e+16,1.2477504084963205e+17,2906702753155.303,19901007751609.105,802412198532673.5,5663587652583630.0
35.793240996213015,2.6953421533734864e+16,2.0908503053426896e+17,4.929902246028377e+16,1.2612628057802533e+17,3005453557290.5737,20577089020506.992,829572862705131.4,5853150556942119.0
36.60910581613728,2.724420071064282e+16,2.114923001333976e+17,4.98308706462511e+16,1.2748695675251242e+17,3107231961760.9883,21273896835643.355,857560765633633.9,6048330129560247.0
37.44128793246003,2.753701181978051e+16,2.1392147337566464e+17,5.0366435326786056e+16,1.2885714116179667e+17,3212125848970.529,21992032767065.535,886399687434951.5,6249281221250338.0
38.29011369110923,2.783186997380272e+16,2.1637284778791738e+17,5.0905744143595864e+16,1.3023690452387048e+17,3320225551495.343,22732115154478.89,916114062932574.4,6456162743009817.0
39.15591596493141,2.812879005259335e+16,2.1884672400088746e+17,5.144882431263927e+16,1.3162631646749208e+17,3431623916407.603,23494779547431.906,946728998594791.8,6669137766103977.0
