t(s),Total solute volume 1,Total retention volume 1,Total 1 volume 1,Total 2 volume 1,Total 3 volume 1,Total 4 volume 1,Total 5 volume 1,Total 6 volume 1
0.1,858476762157242.6,970941579421749.6,55300119698977.766,57164697565528.79,0.0,0.0,0.0,0.0
0.202,1293525339063929.5,1462986492534859.5,83324452486798.25,86133939079222.31,6377598.747536605,10972232.528319346,134850259.27418378,2609704819.4667807
0.30604000000000003,1624836688979487.5,1837705558679507.5,104666389917974.5,108195471875743.7,16182025.830116738,27840096.41592583,342159111.6903226,6621725068.209916
0.41216080000000005,1905073146715091.2,2154659856566422.2,122718258490247.84,126856003121096.67,28744250.726735342,49452568.35146226,607780085.5594087,11762263083.088964
0.5204040160000001,2153942834333239.5,2436139243849842.5,138749587634140.05,143427867531100.53,43767438.154979475,75298962.90615074,925436740.6216524,17909848220.599968
0.6308120963200001,2381263547737564.5,2693247628649353.5,153392805988841.7,158564817617927.5,61092413.22262384,105105430.2703358,1291763405.4780917,24999343770.48796
0.7434283382464002,2592741126554673.0,2932438305180692.0,167015464114895.62,172646796804397.53,80628212.63893752,138715474.17800415,1704836709.1863196,32993526330.408333
0.8582969050113283,2792030674868407.0,3157845192525531.0,179853011243663.22,185917193065896.47,102323554.87342125,176040868.2010357,2163572331.0086412,41871410809.015945
0.9754628431115548,2981636827751767.5,3372301034566717.5,192066787350454.06,198542786347691.88,126152784.78747359,217037474.4193426,2667427806.648718,51622498740.38135
1.094972099973786,3163363059226255.5,3577845566202732.0,203772966027662.78,210643667317564.28,152108090.5679132,261691853.17140308,3216237959.323047,62243593343.4086
1.2168715419732616,3338558333263137.0,3776004474858158.0,215058442893781.88,222309661491235.34,180194827.48285544,310013217.88680464,3810116023.0387607,73736885942.83101
1.3412089728127268,3508262571809127.5,3967953924268089.0,225990206143210.56,233610015733074.3,210428534.83822444,362028302.9581935,4449390567.729003,86108735272.10866
1.4680331522689813,3673297396380572.5,4154623182819700.5,236621181807585.03,244599440604651.4,242832944.6912397,417777937.86530256,5134563394.571344,99368852616.32132
1.597393815314361,3834325344106508.5,4336761596601770.5,246994048249578.38,255322053473474.75,277438605.2489299,477314678.8237481,5866280428.495439,113529738491.7433
1.729341691620648,3991889972230551.0,4514983947376527.0,257143819556939.78,265814049012451.72,314281903.05406624,540701126.521129,6645311042.83814,128606282513.91655
1.863928525453061,4146443877039465.5,4689802141823237.0,267099650425495.28,276105564938909.03,353404353.8686031,608008706.1293344,7472533065.462771,144615473219.76617
2.001207095962122,4298368793718511.0,4861647944350379.0,276886130922675.72,286222020434225.8,394852080.48912096,679316768.9209527,8348921737.454618,161576184384.3301
2.1412312378813647,4447990347353061.5,5030889660385486.0,286524236696304.06,296185098391223.7,438675424.2455993,754711923.8789771,9275541498.47815,179509016042.1231
2.284055862638992,4595589095109074.0,5197844625011201.0,296032040273870.1,306013480696623.0,484928654.44108725,834287537.8073379,10253539843.0411,198436175586.93384
2.4297369798917723,4741408937209464.0,5362788715728400.0,305425252868694.3,315723408305526.5,533669751.1069484,918143361.5760041,11284142726.976582,218381388873.08957
2.578331719489608,4885663623144995.0,5525963710993295.0,314717643489771.8,325329114487725.56,584960243.8555285,1006385254.2092105,12368651474.357592,239369873826.68875
2.7298983538794,5028541854360046.0,5687583061132287.0,323921367630668.75,334843164578257.8,638865093.5333307,1099124973.9674413,13508439021.387995,261428134227.95935
2.884496320956988,5170211335306778.0,5847836470365242.0,333047228237500.9,344276725776278.75,695452609.594033,1196480044.139193,14704950045.17495,284584161985.98157
3.0421862473761276,5310822026302881.0,6006893575582072.0,342104885238056.3,353639783717539.6,754794393.6843773,1298573650.6996806,15959698523.197636,308867257028.3343
3.2030299723236504,5450508781494343.0,6164906929927100.0,351103025472507.4,362941318140159.4,816965306.3751371,1405534586.3924913,17274267341.127617,334308052859.8671
3.3670905717701234,5589393508132937.0,6322014444946454.0,360049501786641.4,372189446667721.9,882043452.3273498,1517497225.2094548,18650307979.18083,360938510493.15106
3.5344323832055258,5727586948960401.0,6478341406473879.0,368951447846912.75,381391543495598.6,950110181.0279592,1634601523.6566198,20089540527.676285,388791918749.3778
3.7051210308696363,5865190164922388.0,6634002151593979.0,377815373651785.3,390554338122688.1,1021250100.7600063,1756993044.789448,21593753982.432026,417902899974.9574
3.879223451487029,6002295777435728.0,6789101473663463.0,386647245554299.0,399683998072135.1,1095551103.976146,1884823001.8666832,23164806781.278168,448307420424.4801
4.0568079205167695,6138989016100391.0,6943735807294428.0,395452553752091.94,408786198656945.9,1173104402.6293545,2018248319.1348922,24804627551.109707,480042804718.24164
4.237944078927105,6275348607761469.0,7097994233906671.0,404236369557692.4,417866182181288.0,1254004572.3121068,2157431707.76751,26515216041.190594,513147753904.3004
4.422702960505647,6411447535261333.0,7251959339903112.0,413003394274740.44,426928808464690.56,1338349604.28769,2302541755.3816767,28298644223.33097,547662366750.0411
4.61115701971576,6547353688439459.0,7405707952979263.0,421758001133148.56,435978598191147.2,1426240964.6800506,2453753027.8710003,30157057543.43066,583628163963.1132
4.803380160110075,6683130425470767.0,7559311777028423.0,430504271448583.9,445019770287812.94,1517783660.2343442,2611246182.542699,32092676311.954277,621088115101.1079
4.9994477633122765,6818837059157580.0,7712837942171380.0,439246025947731.56,454056274306468.8,1613086310.1766987,2775208091.7481694,34107797223.373238,660086667977.1621
5.199436718578522,6954529280061567.0,7866349483354405.0,447986852024995.5,463091818599245.44,1712261223.7963161,2945831976.3584027,36204794996.60224,700669780407.1195
5.403425452950093,7090259526203653.0,8019905758517669.0,456730127557290.75,472129894936396.2,1815424483.4496837,3123317548.567815,38386124130.08478,742884954175.5188
5.611493962009095,7226077307341549.0,8173562815393003.0,465479041792890.25,481173800099459.75,1922696032.749915,3307871163.618872,40654320766.51469,786781271123.3539
5.823723841249277,7362029490456403.0,8327373714430963.0,474236613741490.75,490226654891385.94,2034199769.7564428,3499705980.129404,43012004663.28924,832409431282.0461
6.040198318074262,7498160551967824.0,8481388814100082.0,483005708421047.0,499291420931176.94,2150063645.0238833,3699042128.7799063,45461881265.70541,879821792995.8044
6.261002284435747,7634512801294852.0,8635656023779632.0,491789051258779.06,508370915540467.75,2270419764.4054623,3906106889.1807914,48006743880.69089,929072414989.6171
6.486222330124463,7771126579642741.0,8790221028635229.0,500589240896354.3,517467824980448.4,2395404496.537442,4121134874.792966,50649475949.51048,980217100352.7399
6.715946776726952,7908040437291933.0,8945127490182060.0,509408760610221.44,526584716257272.9,2525158584.9573016,4344368225.820638,53393053418.45476,1033313442418.3538
6.950265712261491,8045291292166364.0,9100417225677102.0,518249988526041.6,535724047680894.9,2659827264.8313866,4576056810.034291,56240547206.989944,1088420872529.4701
7.18927102650672,8182914572045895.0,9256130369014466.0,527115206779515.94,544888178334775.2,2799560384.2871776,4816458431.515768,59195125773.27286,1145600709689.058
7.433056447036854,8320944342442729.0,9412305515408930.0,536006609753753.4,554079376590982.1,2944512530.362678,5065839047.346836,62260057777.29276,1204916212099.581
7.681717575977592,8459413421875112.0,9568979851827616.0,544926311504799.3,563299827786107.9,3094843159.6006536,5324472992.288958,65438714842.22619,1266432630603.2107
7.935351927497144,8598353486029619.0,9726189274856730.0,553876352471419.3,572551641157271.2,3250716733.328783,5592643211.524799,68734574414.87244,1330217264039.5496
8.194058966047088,8737795162100219.0,9883968497459958.0,562858705552083.9,581836856124017.8,3412302857.6788616,5870641501.55325,72151222726.297,1396339516542.6812
8.45794014536803,8877768114419617.0,1.0042351145890906e+16,571875281621060.1,591157447990386.4,3579776428.4092703,6158768759.347972,75692357854.0353,1464870956803.661
8.72709894827539,9018301122352778.0,1.0201369847855798e+16,580927934546036.2,600515333131727.4,3753317780.6046433,6457335239.907045,79361792887.42479,1535885379328.8796
9.0016409272409,9159422151297804.0,1.0361056312882678e+16,590018465761753.0,609912373722530.6,3933112843.335926,6766660822.336745,83163459197.82216,1609458867728.22
9.281673745785717,9301158417532408.0,1.0521441405732564e+16,599148628447193.0,619350382054479.1,4119353299.37259,7087075284.627067,87101409815.6452,1685669860070.6296
9.567307220701432,9443536447553568.0,1.0682555213584006e+16,608320131348041.4,628831124487772.1,4312236750.046354,7418918587.290366,91179822916.3439,1764599216347.6914
9.85865336511546,9586582132479068.0,1.0844427107635334e+16,617534642281036.4,638356325073647.2,4511966885.37371,7762541166.04748,95403005417.56366,1846330288089.2014
10.155826432417769,9730320778011536.0,1.1007085799690172e+16,626793791352486.4,647927668881411.5,4718753659.551191,8118304233.757202,99775396689.9164,1930948990177.2615
10.458942961066125,9874777150407586.0,1.1170559394227352e+16,636099173919446.5,657546805059465.4,4932813471.944345,8486580091.797655,104301572383.91176,2018543874908.4954
10.768121820287448,1.0019975518843542e+16,1.133487543639721e+16,645452353318766.0,667215349656365.4,5154369353.697943,8867752451.118431,108986248375.74884,2109206208356.479
11.083484256693197,1.0165939694524318e+16,1.1500060956337536e+16,654854863386350.6,676934888225024.6,5383651160.100991,9262216763.193918,113834284834.79065,2203030049089.1406
11.405153941827061,1.0312693066844772e+16,1.1666142510158034e+16,664308210786560.4,686706978230655.6,5620895768.846805,9670380561.118448,118850690415.68631,2300112329298.386
11.733257020663602,1.0460258636877748e+16,1.1833146217903906e+16,673813877169379.0,696533151280676.5,5866347284.333751,10092663811.094141,124040626578.22331,2400552938401.707
12.067922161076874,1.0608659048434502e+16,1.200109779877647e+16,683373321171230.9,706414915192988.0,6120257248.158821,10529499274.57379,129409412038.12384,2504454809177.883
12.409280604298411,1.075791661691646e+16,1.2170022603858734e+16,692987980273507.8,716353755917166.6,6382884855.961914,10981332881.328974,134962527352.12581,2611924006501.497
12.75746621638438,1.090805335615514e+16,1.233994564656802e+16,702659272531510.2,726351139321689.2,6654497180.784364,11448624113.726175,140705619640.80215,2723069818743.0493
13.112615540712067,1.1059091003416228e+16,1.2510891631035434e+16,712388598185112.9,736408512858931.2,6935369403.111267,11931846402.501867,146644507452.71127,2838004851904.191
13.474867851526309,1.121105104272664e+16,1.2682884978591438e+16,722177341161423.5,746527307118466.2,7225785047.772904,12431487534.338484,152785185773.5782,2956845126559.7573
13.844365208556836,1.136395472666699e+16,1.2855949852518924e+16,732026870478571.2,756708937278205.8,7526036227.8865385,12948050071.55291,159133831184.34207,3079710177680.682
14.221252512727972,1.1517823096758568e+16,1.303011018121975e+16,741938541558977.9,766954804461929.5,7836423896.025555,13482051784.219223,165696807172.02524,3206723157414.423
14.605677562982532,1.1672677002560822e+16,1.320538967992603e+16,751913697459538.1,777266297010963.4,8157258102.808768,14034026095.057692,172480669597.49506,3338010940901.751
14.997791114242183,1.1828537119584822e+16,1.3381811871075692e+16,761953670025544.9,787644791677003.8,8488858263.109006,14604522537.43206,179492172324.33786,3473704235211.2954
15.397746936527026,1.1985423966117804e+16,1.3559400103459902e+16,772059780974482.9,798091654742458.5,8831553430.085533,15194107226.80808,186738273013.16302,3613937691475.711
15.805701875257567,1.2143357919045774e+16,1.3738177570240394e+16,782233342915245.4,808608243074023.8,9185682577.251665,15803363346.035294,194226139085.80447,3758850020315.688
16.221815912762718,1.230235922875192e+16,1.3918167325925586e+16,792475660307856.2,819195905114761.5,9551594888.794285,16432891644.826504,201963153864.01428,3908584110640.7065
16.64625223101797,1.2462448033163074e+16,1.4099392302386598e+16,802788030368285.9,829855981819435.4,9929650058.36872,17083310953.818554,209956922887.35294,4063287151917.731
17.079177275638333,1.2623644371008672e+16,1.4281875323986358e+16,813171743922548.1,840589807537400.5,10320218596.598356,17755258713.609352,218215280415.14993,4223110760001.9565
17.5207608211511,1.278596819435176e+16,1.4465639121889112e+16,823628086213910.0,851398710847024.5,10723682147.515049,18449391519.17684,226746296117.50323,4388211106625.811
17.97117603757412,1.2949439380445606e+16,1.4650706347611536e+16,834158337666640.9,862284015345194.6,11140433814.182426,19166385680.09689,235558281960.44885,4558749052645.445
18.430599558325603,1.311407774296507e+16,1.4837099585870548e+16,844763774609520.0,873247040395219.9,11570878493.750244,19906937796.98736,244659799290.5562,4734890285146.433
18.899211549492115,1.3279903042657632e+16,1.5024841366778808e+16,855445669961918.4,884289101836041.9,12015433222.195839,20671765354.61755,254059666124.3323,4916805458512.643
19.37719578048196,1.3446934997454078e+16,1.521395417743376e+16,866205293885105.5,895411512655507.1,12474527529.01271,21461607332.131985,263766964647.96985,5104670339565.7295
19.864739696091597,1.3615193292075948e+16,1.5404460472941606e+16,877043914401123.6,906615583630098.0,12948603802.115108,22277224830.850037,273791048933.09692,5298665956884.142
20.36203449001343,1.3784697587172088e+16,1.5596382686913426e+16,887962797981336.6,917902623933348.0,13438117663.23159,23119401720.11183,284141552874.31464,5498978754413.917
20.869275179813698,1.3955467528014678e+16,1.578974324146764e+16,898963210106596.5,929273941714860.6,13943538354.068367,23988945301.652573,294828398354.44946,5705800749485.876
21.38666068340997,1.412752275277957e+16,1.5984564556767072e+16,910046415800632.1,940730844651720.2,14465349133.527256,24886686992.99615,305861803643.54865,5919329695355.669
21.91439389707817,1.4300882900434418e+16,1.6180869060117468e+16,921213680138173.2,952274640473721.0,15004047686.270071,25813483030.369907,317252292037.7888,6139769248385.956
22.452681775019734,1.447556761825277e+16,1.6378679194648014e+16,932466268728998.8,963906637463746.8,15560146542.92495,26770215191.649216,329010700744.5458,6367329139991.703
23.00173541052013,1.4651596568970438e+16,1.6578017427592142e+16,943805448178900.1,975628144934277.1,16134173512.23562,27757791539.84847,341148190019.97504,6602225353471.277
23.561770118730532,1.482898943759488e+16,1.6778906258181772e+16,955232486528335.2,987440473680836.8,16726672125.456923,28777147187.68215,353676252565.5401,6844680305847.761
24.133005521105144,1.5007765937875682e+16,1.6981368225162934e+16,966748653669235.9,999344936412828.6,17338202093.302986,29829245083.722107,366606723189.9492,7094923034845.388
24.715665631527248,1.51879458184391e+16,1.7185425913937764e+16,978355221740156.0,1011342848162052.5,17969339775.75629,30915076820.68145,379951788743.0218,7353189391127.293
25.309978944157795,1.5369548868585254e+16,1.7391101963330114e+16,990053465499735.9,1023435526668721.4,18620678665.044876,32035663466.35338,393723998327.9751,7619722235919.965
25.91617852304095,1.5552594923741454e+16,1.7598419071968236e+16,1001844662677950.4,1035624292744566.6,19292829882.092827,33192056417.73103,407936273798.5941,7894771644149.252
26.53450209350177,1.5737103870558766e+16,1.7807400004270192e+16,1013730094304448.4,1047910470612248.6,19986422686.74652,34385338278.827515,422601920547.6706,8178595113211.4
27.165192135371807,1.5923095651634052e+16,1.8018067596011384e+16,1025711045012704.8,1060295388219762.8,20702105002.07087,35616623762.70302,437734638592.92474,8471457777499.488
27.808495978079243,1.6110590269831712e+16,1.8230444759445692e+16,1037788803318422.8,1072780377528230.9,21440543953.00135,36887060618.1907,453348533966.47314,8773632628801.902
28.464665897640828,1.6299607792172758e+16,1.8444554487943764e+16,1049964661870052.2,1085366774770857.9,22202426419.625618,38197830581.79157,469458130413.6021,9085400742684.635
29.133959215593645,1.6490168353250476e+16,1.8660419860101972e+16,1062239917668810.9,1098055920680389.9,22988459605.350143,39550150355.18031,486078381406.28094,9407051510962.137
29.816638399905518,1.6682292158123514e+16,1.8878064043267384e+16,1074615872255061.8,1110849160681743.2,23799371620.1894,40945272608.726715,503224682476.3962,9738882880353.06
30.51297116790363,1.6875999484628284e+16,1.9097510296411892e+16,1087093831857245.4,1123747845045991.2,24635912079.38772,42384487011.39868,520912883873.184,10081201597407.432
31.223230591261704,1.7071310685041736e+16,1.9318781972279172e+16,1099675107499016.4,1136753329001096.5,25498852717.55554,43869121287.355034,539159303548.6789,10434323459778.664
31.947695203086937,1.7268246187017328e+16,1.954190251871573e+16,1112361015059509.0,1149866972794208.8,26388988018.463474,45400542299.47967,557980740474.2344,10798573573899.893
32.686649107148675,1.7466826493703448e+16,1.9766895479084444e+16,1125152875280995.1,1163090141699579.2,27307135860.599453,46980157160.033295,577394488290.2975,11174286619106.178
33.44038208929165,1.7667072182946012e+16,1.9993784491648984e+16,1138052013717489.0,1176424205965444.5,28254138178.541046,48609414368.51652,597418349290.5907,11561807118225.23
34.20918973107749,1.7869003905462024e+16,2.0222593287801532e+16,1151059760617118.0,1189870540692405.5,29230861640.1435,50289804976.74337,618070648740.6807,11961489714635.49
34.993373525699035,1.8072642381862988e+16,2.045334568899596e+16,1164177450730352.0,1203430525635222.8,30238198339.479748,52022863781.01402,639370249529.5775,12373699455765.912
35.793240996213015,1.8278008398393036e+16,2.0686065602234772e+16,1177406423035505.0,1217105544919038.8,31277066505.39734,53810170541.15842,661336567151.5333,12798812082981.992
36.60910581613728,1.8485122801238676e+16,2.0920777013946516e+16,1190748020372160.5,1230896986660448.0,32348411225.481102,55653351226.08444,683989585013.5721,13237214327771.596
37.44128793246003,1.8694006489253824e+16,2.1157503982078096e+16,1204203588972555.2,1244806242483079.8,33453205185.123055,57554079285.317116,707349870062.4006,13689304214107.588
38.29011369110923,1.8904680404936376e+16,2.1396270626215364e+16,1217774477880314.0,1258834706916746.5,34592449421.305504,59514076945.85322,731438588722.4282,14155491366827.246
39.15591596493141,1.911716552348315e+16,2.163710111553674e+16,1231462038245405.5,1272983776668611.5,35767174090.60327,61535116533.47848,756277523134.3956,14636197325824.79
40.03903428423004,1.933148283974236e+16,2.1880019654395024e+16,1245267622483688.0,1287254849754382.8,36978439250.79913,63619021817.50732,781889087681.8331,15131855865810.094
40.93981496991464,1.9547653352877364e+16,2.2125050465315636e+16,1259192583288968.5,1301649324477101.2,38227335655.38711,65767669377.69656,808296345790.0072,15642913321336.09
41.85861126931294,1.976569804855049e+16,2.2372217769195908e+16,1273238272485349.5,1316168598240778.5,39514985560.116554,67982989991.8745,835523026979.4193,16169828916748.514
42.7957834946992,1.9985637878433824e+16,2.262154576248571e+16,1287406039707421.5,1330814066186049.0,40842543540.592606,70266970042.59361,863593544153.084,16713075100655.014
43.751699164593184,2.0207493736853476e+16,2.287305859112992e+16,1301697230895717.8,1345587119634938.8,42211197319.81382,72621652940.88107,892533011093.8936,17273137884455.719
44.72673314788505,2.043128643437469e+16,2.312678032105561e+16,1316113186595197.2,1360489144331972.0,43622168604.3814,75049140564.90854,922367260145.3015,17850517184417.516
