t(s),Total solute volume 1,Total retention volume 1,Total 1 volume 1,Total 2 volume 1,Total 3 volume 1,Total 4 volume 1,Total 5 volume 1,Total 6 volume 1
0.1,898666397951953.1,1036126891881881.2,66325422320955.914,71135071608968.8,0.0,0.0,0.0,0.0
0.202,1353995212642539.2,1561103849454862.0,99930635725712.23,107177198572549.06,1525304.9296051401,2777234.6875409936,37161353.69478543,761050168.0601888
0.30604000000000003,1700774002141620.2,1960927342513543.8,125524393071024.67,134626911054155.39,3870150.6858797525,7046668.321642703,94289585.1246989,1931040340.0370235
0.41216080000000005,1994097959479478.2,2299119870577622.0,147172955244350.12,157845338842126.06,6874557.245095199,12517013.133484777,167486954.81675547,3430133142.964403
0.5204040160000001,2254592362821882.5,2599461528117172.0,166398555966006.4,178465101869660.38,10467542.223381195,19059026.21035466,255024081.5388747,5222908969.169118
0.6308120963200001,2492532579423684.5,2873799388058621.0,183959561273885.97,197299559797330.47,14611043.785272969,26603405.543258283,355973647.1277232,7290375621.343039
0.7434283382464002,2713890546303756.5,3129018846671609.0,200296725653810.22,214821428833643.3,19283312.90759197,35110551.07366824,469805770.4490938,9621680769.613495
0.8582969050113283,2922491888141416.5,3369530691790551.5,215692396563953.22,231333531125714.75,24472090.66763603,44558142.07331158,596221781.9213709,12210707455.042646
0.9754628431115548,3120958115895407.5,3598357418872456.5,230340052721546.6,247043375680041.28,30171246.970890664,54935017.02579712,735072331.2010884,15054396862.280727
1.094972099973786,3311176875494039.5,3817675408200125.5,244379010466855.9,262100381490912.62,36378919.26705619,66237784.648716494,886312039.8740185,18151819573.53059
1.2168715419732616,3494560098966156.5,4029112562360418.0,257913476420407.1,276616311818854.88,43096394.25300051,78468787.72727387,1049972255.896201,21503617562.12616
1.3412089728127268,3672196256778604.5,4233923846805653.5,271023784356465.84,290677325916471.7,50327394.50179331,91634804.22689907,1226143673.4346387,25111648236.841927
1.4680331522689813,3844945332261309.0,4433100791367189.0,283773404721681.1,304351496848854.6,58077602.26992507,105746180.25377716,1414964731.1847649,28978746833.226738
1.597393815314361,4013500800323791.5,4627442949096536.0,296213518929358.7,317693717497071.6,66354330.306880146,120816230.67346355,1616613592.1693618,33108562155.83612
1.729341691620648,4178431603220244.0,4817606292542892.0,308386117350395.2,330749023202794.94,75166288.03557609,136860813.37830496,1831302447.0980566,37505439908.28262
1.863928525453061,4340211476958232.5,5004137025855942.0,320326163727626.9,343554913137164.94,84523411.99288991,153898020.55796024,2059273383.3218575,42174338087.49616
2.001207095962122,4499239989171804.0,5187495840557521.0,332063147860812.8,356143015580179.6,94436740.97619215,171947951.36946276,2300795342.9784546,47120764685.15487
2.1412312378813647,4655857978567980.0,5368075716565410.0,343622225103801.8,368540310049548.0,104918323.16158205,191032542.82052737,2556161860.0770226,52350731342.16566
2.284055862638992,4810359112487728.0,5546215247568322.0,355025069361941.06,380770042154004.9,115981146.64611514,211175443.30265298,2825689368.271004,57870718691.10056
2.4297369798917723,4962998690475121.0,5722208791166557.0,366290522833125.56,392852420450934.25,127639087.52496415,232401918.0513798,3109715935.8416505,63687650448.093834
2.578331719489608,5114000454231962.0,5896314320460613.0,377435098611566.25,404805155496920.25,139906871.35313696,254738778.97679687,3408600326.7746134,69808874183.26828
2.7298983538794,5263561928323748.0,6068759581659486.0,388473374854720.44,416643882598049.7,152800045.00804248,278214333.43165284,3722721315.236659,76242147280.89859
2.884496320956988,5411858660614864.0,6239746983124818.0,399418307745539.1,428382497466923.5,166334956.77009577,302858347.94264305,4052477200.2714195,82995627000.14442
3.0421862473761276,5559047626804299.0,6409457520659111.0,410281482761762.4,440033425712965.1,180528742.99954763,328702023.95194817,4398285481.201908,90077863827.11876
3.2030299723236504,5705269991563725.0,6578053961018271.0,421073318462444.8,451607841413991.2,195399320.23641804,355777983.9571054,4760582810.537406,97497818003.31824
3.3670905717701234,5850653368742696.0,6745683447702934.0,431803233289742.25,463115845984432.8,210965381.50232995,384120262.68873984,5139824324.46578,105264776096.40279
3.5344323832055258,5995313686802108.0,6912479651931538.0,442479783262567.44,474566615898422.8,227246396.80947477,413764311.15952396,5536484521.339292,113388473202.61574
3.7051210308696363,6139356740877591.0,7078564561975074.0,453110776514250.6,485968525503338.6,244262616.35677868,444747000.40912163,5951056764.074921,121879013514.76025
3.879223451487029,6282879493026348.0,7244049982327517.0,463703369259183.4,497329249953098.25,262035076.69507837,477106633.24660736,6384053573.770121,130746893589.6479
4.0568079205167695,6425971168866991.0,7409038798092566.0,474264146729504.0,508655852014066.7,280585609.2283723,510882959.7293342,6836006836.8225975,140003006590.48828
4.237944078927105,6568714188162875.0,7573626047915253.0,484799191856135.94,519954855726554.7,299936850.8243443,546117196.4823322,7307468063.438157,149658647581.1639
4.422702960505647,6711184959013304.0,7737899839659591.0,495314143883491.5,531232309270021.06,320112256.3151378,582852049.4594005,7799008692.191813,159725519763.6785
4.61115701971576,6853454559262142.0,7901942136053182.0,505814248660344.5,542493838900834.75,341136112.71312547,621131739.8268356,8311220436.371615,170215741571.34348
4.803380160110075,6995589324059723.0,8065829432131416.0,516304402004406.9,553744695461477.9,363033555.00119907,661002032.7140143,8844715668.683544,181141854547.60095
4.9994477633122765,7137651354875348.0,8229633342117697.0,526789187269628.2,564989794672068.8,385830583.38504654,702510268.6258949,9400127841.575047,192516831954.3356
5.199436718578522,7279698962401420.0,8393421110084329.0,537272908034419.1,576233752189005.2,409554081.91740686,745705397.3536357,9978111940.984766,204354088064.7631
5.403425452950093,7421787053531624.0,8557256056133544.0,547759616662288.8,587480914236699.0,434231838.4227251,790638014.2528689,10579344971.774183,216667488105.17145
5.611493962009095,7563967470796609.0,8721197967764560.0,558253139353652.56,598735384476042.8,459892565.6656865,837360398.7868904,11204526473.464933,229471358817.33554
5.823723841249277,7706289291198160.0,8885303444429409.0,568757098201071.5,610001047659007.5,486565923.7196757,885926555.2545736,11854379065.209608,242780499619.64047
6.040198318074262,7848799090219227.0,9049626201938398.0,579274930674326.8,621281590526682.6,514282543.5015817,936392255.6419666,12529649019.179195,256610194350.1835
6.261002284435747,7991541175842252.0,9214217342287098.0,589809906891956.9,632580520333296.9,543074051.4481623,988815084.5524158,13231106861.762691,270976223579.48254
6.486222330124463,8134557796637570.0,9379125593587460.0,600365144979090.2,643901181317715.9,572973095.316603,1043254486.1835762,13959548002.155909,285894877484.11176
6.715946776726952,8277889327350705.0,9544397524056980.0,610943624764568.9,655246769393836.5,604013371.0982274,1099771813.3312433,14715793388.070162,301382969275.77783
6.950265712261491,8421574434895688.0,9710077733417076.0,621548200031971.0,666620345290012.0,636229651.0397755,1158430378.4098008,15500690188.42547,317457849183.027
7.18927102650672,8565650227229387.0,9876209024554728.0,632181609507170.6,678024846333359.5,669657812.7713951,1219295506.4877558,16315112503.006886,334137418985.17126
7.433056447036854,8710152387221183.0,1.0042832557884758e+16,642846486738489.5,689463097046404.4,704334869.544602,1282434590.3442724,17159962099.16311,351440147100.0551
7.681717575977592,8855115293332200.0,1.0209987990504696e+16,653545369003343.5,700937818699595.6,740299001.587124,1347917147.5592906,18036169175.716667,369385084229.11084
7.935351927497144,9000572128665012.0,1.0377713601942046e+16,664280705356580.0,712451637943268.8,777589588.5847629,1415814879.6557305,18944693154.332054,387991879564.7653
8.194058966047088,9146554979732134.0,1.054604640804796e+16,675054863920008.9,724007094625779.2,816247243.3033501,1486201733.317497,19886523498.659805,407280797566.6983
8.45794014536803,9293094926110954.0,1.0715022264384238e+16,685870138499327.1,735606648890281.9,856313846.3664159,1559153963.7118382,20862680561.638535,427272735314.79663
8.72709894827539,9440222122000530.0,1.0884675960273988e+16,696728754603344.0,747252687630423.8,897832582.2066944,1634750199.9489286,21874216461.394806,447989240447.7841
9.0016409272409,9587965870564310.0,1.1055041304535332e+16,707632874930808.5,758947530375063.1,940847976.2116836,1713071512.7156465,22922215986.23505,469452529697.6692
9.281673745785717,9736354691832114.0,1.1226151203790088e+16,718584604381866.0,770693434663135.1,985405933.0856181,1794201484.1240788,24007797529.27252,491685508031.1295
9.567307220701432,9885416384839142.0,1.1398037734128134e+16,729585994644165.9,782492600962321.6,1031553776.4520453,1878226279.8189483,25132114053.280384,514711788409.9245
9.85865336511546,1.0035178084596704e+16,1.1570732206814196e+16,740639048397558.8,794347177178665.9,1079340289.7230766,1965234723.3913412,26296354086.404915,538555712183.34454
10.155826432417769,1.0185666314419472e+16,1.1744265228641154e+16,751745723176072.0,806259262798594.9,1128815758.2630377,2055318373.1492794,27501742749.41457,563242370126.5061
10.458942961066125,1.0336907034072244e+16,1.1918666757464166e+16,762907934921334.0,818230912700025.2,1180032012.8759387,2148571601.2986255,28749542815.20209,588797624139.2092
10.768121820287448,1.0488925684145446e+16,1.2093966153387708e+16,774127561257695.8,830264140664978.5,1233042474.6477256,2245091675.5907884,30041055801.29369,615248129620.782
11.083484256693197,1.0641747227023378e+16,1.2270192226024358e+16,785406444515839.8,842360922622462.5,1287902201.175866,2344978843.496437,31377623096.15779,642621358537.1484
11.405153941827061,1.0795396184767522e+16,1.2447373278198112e+16,796746394528756.1,854523199647184.4,1344667934.2202535,2448336418.967095,32760627120.143147,670945623197.1107
11.733257020663602,1.0949896674203392e+16,1.2625537146423846e+16,808149191221276.4,866752880736879.5,1403398148.810964,2555270871.8493867,34191492521.909706,700250100755.5328
12.067922161076874,1.110527243946691e+16,1.2804711238458534e+16,819616587012150.6,879051845388571.9,1464153103.8498044,2665891920.0191083,35671687411.25374,730564858461.9
12.409280604298411,1.1261546882240366e+16,1.2984922568189704e+16,831150309045584.6,891421945991935.6,1526994894.2440417,2780312624.3050866,37202724629.26219,761920879673.352
12.75746621638438,1.1418743089883412e+16,1.3166197788097594e+16,842752061267434.9,903865010056043.4,1591987504.6121159,2898649486.275231,38786163056.76599,794350090652.1326
13.112615540712067,1.157688386164391e+16,1.3348563219504222e+16,854423526359669.5,916382842284108.8,1659196864.6026418,3021022548.960057,40423608962.09826,827885388167.9723
13.474867851526309,1.173599173311427e+16,1.3532044880800708e+16,866166367545361.4,928977226509370.9,1728690905.8693082,3147555500.591247,42116717389.196,862560667926.7388
13.844365208556836,1.1896088999083028e+16,1.3716668513825028e+16,877982230275227.4,941649927503933.9,1800539620.7458553,3278375781.4356275,43867193587.121414,898410853847.3513
14.221252512727972,1.2057197734916302e+16,1.3902459608545748e+16,889872743805672.0,954402692671247.2,1874815122.666613,3413614693.8074245,45676794482.11103,935471928209.6796
14.605677562982532,1.2219339816591132e+16,1.4089443426192456e+16,901839522677326.1,967237253631854.0,1951591708.3796818,3553407515.344629,47547330193.30017,973780962696.899
14.997791114242183,1.238253693949046e+16,1.4277645020959312e+16,913884168102213.6,980155327711154.2,2030945922.001178,3697893615.637371,49480665593.30057,1013376150356.4861
15.397746936527026,1.25468106360602e+16,1.4467089260397808e+16,926008269266908.5,993158619337065.1,2112956620.9605308,3847216576.299591,51478721914.85214,1054296838504.7522
15.805701875257567,1.2712182292418938e+16,1.4657800844602436e+16,938213404558397.2,1006248821354767.8,2197705043.888314,4001524314.577578,53543478404.80031,1096583562600.6416
16.221815912762718,1.2878673164002018e+16,1.4849804324284996e+16,950501142718688.5,1019427616265060.5,2285274880.499537,4160969210.591891,55676974026.689545,1140278081115.1804
16.64625223101797,1.3046304390315952e+16,1.5043124117823116e+16,962873043933738.1,1032696677392232.9,2375752343.526999,4325708238.311869,57881309213.30412,1185423411423.8264
17.079177275638333,1.3215097008870504e+16,1.523778452736292e+16,975330660861724.0,1046057669986906.2,2469226242.760833,4495903100.365026,60158647670.52084,1232063866749.6514
17.5207608211511,1.3385071968351682e+16,1.5433809754046484e+16,987875539605230.9,1059512252268737.5,2565788061.2517877,4671720366.7864065,62511218233.88028,1280245094186.2349
17.97117603757412,1.35562501410915e+16,1.5631223912430876e+16,1000509220631607.2,1073062076413491.1,2665532033.7378225,4853331617.815641,64941316779.32156,1330014113829.7168
18.430599558325603,1.37286523348876e+16,1.5830051044157562e+16,1013233239645282.0,1086708789488631.4,2768555227.354716,5040913590.853181,67451308189.56714,1381419359050.5884
18.899211549492115,1.3902299304219328e+16,1.6030315130928286e+16,1026049128415564.5,1100454034341142.9,2874957624.6935315,5234648331.689232,70043628377.68153,1434510717936.3047
19.37719578048196,1.407721176090458e+16,1.623204010683672e+16,1038958415563175.2,1114299450441093.4,2984842209.269214,5434723350.123072,72720786369.3735,1489339575936.9277
19.864739696091597,1.4253410384236834e+16,1.6435249870102242e+16,1051962627308380.1,1128246674684031.5,3098315053.4662986,5641331780.092521,75485366445.6492,1545958859746.6528
20.36203449001343,1.44309158306388e+16,1.6639968294248196e+16,1065063288183493.9,1142297342155145.0,3215485409.0296607,5854672544.4374075,78340030347.46944,1604423082455.0796
20.869275179813698,1.4609748742866476e+16,1.684621923876235e+16,1078261921712172.2,1156453086857821.8,3336465800.169748,6074950524.423524,81287519544.10507,1664788390002.8904
21.38666068340997,1.4789929758793796e+16,1.7054026559275958e+16,1091560051057744.2,1170715542408993.0,3461372119.353766,6302376734.156813,84330657566.92657,1727112608977.498
21.91439389707817,1.4971479519805416e+16,1.7263414117291946e+16,1104959199642644.8,1185086342703483.8,3590323725.855716,6537168500.021106,87472352410.41167,1791455295785.0803
22.452681775019734,1.5154418678822806e+16,1.74744057894924e+16,1118460891740790.0,1199567122549347.2,3723443547.140335,6779549645.27572,90715599002.19135,1857877787236.3733
23.00173541052013,1.5338767907986948e+16,1.768702547665067e+16,1132066653044559.0,1214159518275950.5,3860858183.157503,7029750679.952194,94063481744.00424,1926443252584.3677
23.561770118730532,1.5524547906016338e+16,1.7901297112171844e+16,1145778011207870.8,1228865168316465.8,4002698013.6254177,7288008996.193092,97519177125.4642,1997216747052.96
24.133005521105144,1.5711779405259154e+16,1.8117244670281516e+16,1159596496366668.5,1243685713766036.0,4149097308.3826003,7554569069.1783695,101085956412.59395,2070265266896.4766
24.715665631527248,1.5900483178454136e+16,1.8334892173880484e+16,1173523641637880.5,1258622798916997.8,4300194340.890423,7829682663.788153,104767188413.11061,2145657806030.654
25.309978944157795,1.6090680045212424e+16,1.8554263702079292e+16,1187560983597815.8,1273678071771907.5,4456131504.969076,8113609047.152906,108566342320.48753,2223465414276.5977
25.91617852304095,1.6282390878230226e+16,1.87753833974248e+16,1201710062740689.8,1288853184535336.0,4617055434.851681,8406615207.245127,112486990638.85094,2303761257259.638
26.53450209350177,1.6475636609238662e+16,1.8998275472824656e+16,1215972423917753.8,1304149794084840.0,4783117128.641944,8708976077.668308,116532812190.7976,2386620678005.9907
27.165192135371807,1.6670438234694264e+16,1.922296421817523e+16,1230349616757265.8,1319569562421389.8,4954472075.262356,9020974768.801167,120707595210.24345,2472121260280.093
27.808495978079243,1.6866816821209366e+16,1.944947400669125e+16,1244843196065275.2,1335114157099234.2,5131280384.979715,9342902805.455523,125015240522.4289,2560342893706.278
28.464665897640828,1.706479351071822e+16,1.9677829300932804e+16,1259454722206920.0,1350785251634811.8,5313706923.596187,9675060371.208212,129459764813.21614,2651367840718.3877
29.133959215593645,1.7264389525370076e+16,1.9908054658519e+16,1274185761467536.0,1366584525894064.2,5501921450.39295,10017756559.565758,134045303989.81096,2745280805380.899
29.816638399905518,1.7465626172134462e+16,2.0140174737513136e+16,1289037886392561.0,1382513666456996.8,5696098759.913878,10371309632.120674,138776116635.02847,2842169004124.8926
30.51297116790363,1.7668524847100236e+16,2.0374214301455144e+16,1304012676104821.2,1398574366957964.0,5896418827.674695,10736047283.855423,143656587557.19357,2942122238441.621
31.223230591261704,1.7873107039442204e+16,2.0610198224014036e+16,1319111716597285.2,1414768328399641.0,6103066959.882063,11112306915.747187,148691231437.72278,3045232969575.438
31.947695203086937,1.8079394335022732e+16,2.084815149322138e+16,1334336600998863.5,1431097259438116.8,6316233947.243748,11500435914.822006,153884696578.37122,3151596395256.776
32.686649107148675,1.8287408419588704e+16,2.108809921524047e+16,1349688929810378.8,1447562876635973.2,6536116222.947617,11900791941.799002,159241768750.03812,3261310528513.627
33.44038208929165,1.8497171081515684e+16,2.133006661761525e+16,1365170311107084.8,1464166904679471.2,6762916024.883403,12313743226.460003,164767375144.92453,3374476278598.3887
34.20918973107749,1.8708704214042344e+16,2.1574079051934256e+16,1380782360703566.8,1480911076555435.2,6996841562.174167,12739668870.866117,170466588433.6812,3491197534063.4087
34.993373525699035,1.8922029816928572e+16,2.1820161995832536e+16,1396526702276152.0,1497797133682507.0,7238107186.078677,13178959160.532608,176344630929.03702,3611581248015.5996
35.793240996213015,1.9137169997461148e+16,2.2068341054242852e+16,1412404967437084.0,1514826825990739.2,7486933565.317022,13632015883.657516,182406878857.1679,3735737525576.053
36.60910581613728,1.9354146970719228e+16,2.2318641959796804e+16,1428418795754157.5,1532001911942613.5,7743547865.861363,14099252658.480352,188658866737.85092,3863779713565.6787
37.44128793246003,1.9572983059002116e+16,2.257109057226184e+16,1444569834708460.8,1549324158487740.2,8008183935.223306,14581095268.828135,195106291874.147,3995824492432.204
38.29011369110923,1.9793700690308356e+16,2.282571287688685e+16,1460859739582137.8,1566795340942476.2,8281082491.254744,15077982007.879347,201755018952.03525,4131991970427.016
39.15591596493141,2.0016322395745572e+16,2.308253498151783e+16,1477290173267218.8,1584417242784892.5,8562491315.464623,15590364030.150286,208611084750.05322,4272405780032.8877
40.03903428423004,2.0240870805737184e+16,2.334158311232809e+16,1493862805985657.2,1602191655354498.0,8852665450.836134,16118705711.675913,215680702958.56467,4417193176634.832
40.93981496991464,2.0467368644880256e+16,2.360288360799626e+16,1510579314909820.2,1620120377445236.2,9151867404.109865,16663485018.321896,222970269107.81808,4566485139416.677
41.85861126931294,2.0695838725298788e+16,2.3866462912151336e+16,1527441383671940.0,1638205214779329.8,9460367352.47653,17225193882.125782,230486365603.41702,4720416474455.284
42.7957834946992,2.0926303938323816e+16,2.4132347563891388e+16,1544450701750054.0,1656447979348711.0,9778443354.598982,17804338585.52051,238235766867.24982,4879125919972.218
43.751699164593184,2.1158787244322976e+16,2.4400564186170316e+16,1561608963717376.8,1674850488609969.0,10106381565.857471,18401440153.247875,246225444581.28928,5042756253689.82
44.72673314788505,2.139331166049125e+16,2.4671139471836896e+16,1578917868341252.8,1693414564517916.5,10444476457.683231,19017034751.715393,254462573030.98322,5211454402224.541
