t(s),Total solute volume 1,Total retention volume 1,Total 1 volume 1,Total 2 volume 1,Total 3 volume 1,Total 4 volume 1,Total 5 volume 1,Total 6 volume 1
0.1,1117071271046687.6,1512117690109863.2,171218609237430.47,223827809825744.56,0.0,0.0,0.0,0.0
0.202,1681989162633476.5,2276967321637071.0,257806153033213.34,337020538070102.2,101062573.45166476,249509088.9773078,5269494461.271096,145847834156.6372
0.30604000000000003,2112434822585408.5,2859870735290250.5,323782523447321.44,423269030665893.9,256386749.421217,632982920.6916883,13368619594.88367,370100602363.51385
0.41216080000000005,2476529080802017.0,3353023420535621.0,379588911679008.56,496222677706030.25,455382239.37085205,1124275295.4716344,23744995390.526558,657425695643.4573
0.5204040160000001,2799850337449099.5,3791042386025372.5,429145835899888.6,561006629277821.6,693345021.0348945,1711772600.0238814,36153312725.927925,1001024968221.8512
0.6308120963200001,3095149585288514.0,4191184159162076.0,474407698966079.56,620175804708572.4,967750675.2897159,2389242382.666009,50461930397.1215,1397251275459.0496
0.7434283382464002,3369839500991191.5,4563480704391839.0,516510675658096.06,675215483689376.6,1277154962.7471955,3153119012.751423,66595536215.02456,1844018242979.3762
0.8582969050113283,3628669269244004.5,4914359506819148.0,556182695184073.8,727077261416173.4,1620742017.8668625,4001388230.614497,84511585596.00867,2340147259050.8955
0.9754628431115548,3874893477450174.0,5248225506380364.0,593922603005907.1,776413260290609.0,1998101723.3195765,4933037514.352012,104188692134.47527,2885045802304.658
1.094972099973786,4110855668289497.0,5568250835747381.0,630089604603423.8,823693056479227.0,2409106414.7410827,5947751680.34917,125620198136.84442,3478529318999.4946
1.2168715419732616,4338308748304184.5,5876808428593507.0,664952375960529.2,869267880254039.4,2853836791.3845663,7045729966.651406,148810311128.43918,4120714196860.8413
1.3412089728127268,4558603982434415.0,6175727780151269.0,698718031620109.2,913408484869988.0,3332534645.414288,8227569327.9807205,173771638871.68805,4811949483909.699
1.4680331522689813,4772808899342972.0,6466454501797012.0,731550196571154.9,956328771281155.4,3845571300.2172155,9494186514.209724,200523543555.236,5552771300356.876
1.597393815314361,4981784240192547.0,6750154449624513.0,763580800538982.4,998201206384424.4,4393425785.178833,10846764186.855,229091003702.89703,6343871314890.984
1.729341691620648,5186236076163260.0,7027784249788646.0,794918066274956.1,1039167265818033.1,4976669327.067835,12286712630.42502,259503805468.41837,7186074344975.312
1.863928525453061,5386752222172802.0,7300140572869314.0,825652090853520.5,1079344730186767.5,5595954097.279693,13815641970.908968,291795955855.48193,8080322104312.511
2.001207095962122,5583828360000966.0,7567895482865237.0,855858849682691.6,1118832919358206.5,6252004919.632225,15435341703.467266,326005250317.6663,9027661226425.393
2.1412312378813647,5777887210348535.0,7831622380089077.0,885603135093008.1,1157716533972409.5,6945613095.118225,17147765446.603106,362172950748.3123,10029234345832.072
2.284055862638992,5969292884885140.0,8091815421805978.0,914940756141395.9,1196068531164937.5,7677631777.330835,18955019524.734665,400343544330.9483,11086273418872.863
2.4297369798917723,6158361818615527.0,8348904315578246.0,943920214264806.8,1233952315087461.0,8448972508.383224,20859354415.871254,440564562904.1238,12200094720625.414
2.578331719489608,6345371226645666.0,8603265762855162.0,972583999487369.2,1271423431391898.5,9260602640.313675,22863158385.432583,482886448500.1804,13372095120700.008
2.7298983538794,6530565736425160.0,8855232433837175.0,1000969606974428.4,1308530896134259.5,10113543444.248297,24968952818.050243,527362454747.3148,14603749352331.31
2.884496320956988,6714162653620708.0,9105100093576654.0,1029110344157009.6,1345318250898889.0,11008868762.644264,27179388890.16045,574048576590.6965,15896608065808.465
3.0421862473761276,6896356189897005.0,9353133323523038.0,1057035978743074.0,1381824409919864.2,11947704097.098202,29497245317.950077,623003502726.2224,17252296510959.953
3.2030299723236504,7077320891680900.0,9599570162015218.0,1084773264259861.5,1418084347103206.8,12931226050.714598,31925426980.663822,674288586522.8368,18672513731699.168
3.3670905717701234,7257214446609549.0,9844625902818006.0,1112346370210983.4,1454129658355542.5,13960662063.252802,34466964266.74261,727967832211.8533,20159032183402.113
3.5344323832055258,7436180000025806.0,1.0088496230804438e+16,1139777237136266.2,1489989025740777.0,15037290391.420254,37125013025.19637,784107893859.4408,21713697704323.402
3.7051210308696363,7614348081896866.0,1.0331359830601444e+16,1167085871959337.8,1525688603577217.5,16162440297.237823,39902855030.67955,842778085189.0485,23338429787507.55
3.879223451487029,7791838221136168.0,1.0573380572359098e+16,1194290595422130.5,1561252341899587.0,17337492415.378788,42803898890.42994,904050398736.4545,25035222111169.156
4.0568079205167695,7968760306981609.0,1.081470935535792e+16,1221408250749515.5,1596702259238715.5,18563879276.479652,45831681336.281204,967999533137.9594,26806143294323.453
4.237944078927105,8145215744101945.0,1.1055485672603796e+16,1248454380697754.0,1632058674070442.0,19843085968.13061,48989868856.59032,1034702927597.9122,28653337851247.875
4.422702960505647,8321298438271614.0,1.129583894625742e+16,1275443378633345.2,1667340402315502.8,21176650918.927826,52282259631.98849,1104240802773.3088,30579027323664.46
4.61115701971576,8497095641935857.0,1.1535889673571838e+16,1302388618136680.8,1702564926765584.2,22566166793.863583,55712785746.013985,1176696207464.16,32585511573711.637
4.803380160110075,8672688683183772.0,1.1775750415158482e+16,1329302564735038.2,1737748543147822.8,24013281491.63309,59285515647.36168,1252155070618.2466,34675170224096.848
4.9994477633122765,8848153597127583.0,1.2015526651287852e+16,1356196872677000.5,1772906486634436.0,25519699236.27584,63004656845.0361,1330706258255.075,36850464234483.43
5.199436718578522,9023561675140066.0,1.2255317527131018e+16,1383082469116545.5,1808053041893502.8,27087181757.061565,66874558821.37021,1412441634991.261,39113937605313.836
5.403425452950093,9198979944595824.0,1.2495216504053494e+16,1409969627645191.0,1843201639214850.8,28717549551.741695,70899716150.86372,1497456129913.1626,41468219202024.51
5.611493962009095,9374471589528734.0,1.2735311931049826e+16,1436868032768116.2,1878364938797297.5,30412683229.28223,75084771815.2529,1585847806593.9888,43916024694042.75
5.823723841249277,9550096320826226.0,1.2975687547983092e+16,1463786836645460.5,1913554904924517.5,32174524929.014233,79434520707.24724,1677717937095.82,46460158604140.19
6.040198318074262,9725910703135098.0,1.3216422930338776e+16,1490734709198732.0,1948782871467279.5,34005079813.824245,83953913317.06262,1773171079832.4136,49103516464710.27
6.261002284435747,9901968444480960.0,1.3457593883614342e+16,1517719882502067.8,1984059599914517.8,35906417635.57633,88648059597.28815,1872315161198.6343,51849087078357.7
6.486222330124463,1.0078320653645624e+16,1.3699272794170486e+16,1544750190231642.2,2019395330944108.5,37880674371.44666,93522233002.82812,1975261560897.5996,54699954880894.68
6.715946776726952,1.0255016069560184e+16,1.3941528942307456e+16,1571833102825820.8,2054799830386462.5,39930053930.255455,98581874703.66255,2082125200917.965,57659302405423.98
6.950265712261491,1.043210126632518e+16,1.418442878245174e+16,1598975758909476.0,2090282430304363.8,42056829928.24276,103832597969.05553,2193024638132.304,60730412846705.7
7.18927102650672,1.060962083692952e+16,1.4428036194614098e+16,1626184993453496.2,2125852065804853.5,44263347534.02884,109280192722.57648,2308082160503.2583,63916672725438.36
7.433056447036854,1.0787617558295656e+16,1.467241271067199e+16,1653467363071957.0,2161517308109317.2,46552025382.770355,114930630267.9581,2427423886897.962,67221574652468.06
7.681717575977592,1.0966132539902006e+16,1.491761771852674e+16,1680829168802180.8,2197286394333021.2,48925357559.75285,120790068186.38843,2551179870523.2,70648720193271.75
7.935351927497144,1.1145205357921652e+16,1.5163708646759372e+16,1708276476664797.5,2233167254362512.5,51385915653.86234,126864855406.32744,2679484206004.6177,74201822833357.2
8.194058966047088,1.132487417655089e+16,1.5410741132051372e+16,1735815136260309.5,2269167535166235.0,53936350881.56328,133161537447.39691,2812475140142.406,77884711045484.31
8.45794014536803,1.150517585797734e+16,1.5658769171334946e+16,1763450797624394.0,2305294622828863.5,56579396282.168236,139686861840.28748,2950295186384.674,81701331459840.55
8.72709894827539,1.1686146062247476e+16,1.5907845260378672e+16,1791188926535089.2,2341555662561796.5,59317868985.33497,146447783724.98697,3093091243067.208,85655752138526.72
9.0016409272409,1.186781933813154e+16,1.6158020520296888e+16,1819034818440046.8,2377957576909744.0,62154672551.85871,153451471629.96915,3241014715475.238,89752165955888.47
9.281673745785717,1.2050229205945122e+16,1.640934481328286e+16,1846993611150971.2,2414507082345750.5,65092799388.94789,160705313435.277,3394221641789.2324,93994894086415.28
9.567307220701432,1.2233408233167688e+16,1.666186684870547e+16,1875070296434050.2,2451210704422897.5,68135333241.287025,168216922522.7235,3552872822982.7925,98388389602088.83
9.85865336511546,1.2417388103597154e+16,1.691563428057129e+16,1903269730609548.0,2488074791630753.0,71285451759.2942,175994144116.67075,3717133956745.9204,102937241181211.02
10.155826432417769,1.2602199680690016e+16,1.7170693797234582e+16,1931596644260265.5,2525105528086941.5,74546429146.07988,184045061819.128,3887175775512.2266,107646176930889.83
10.458942961066125,1.2787873065661472e+16,1.7427091204134264e+16,1960055651136802.5,2562308945178603.0,77921638884.7047,192378004343.09818,4063174188673.5503,112520068325491.17
10.768121820287448,1.297443765085331e+16,1.7684871500248154e+16,1988651256337499.5,2599690932255760.0,81414556547.42604,201001552448.34717,4245310429069.966,117563934263497.22
11.083484256693197,1.3161922168819618e+16,1.794407894887619e+16,2017387863832012.5,2637257246466636.5,85028762688.70352,209924546083.9733,4433771203847.484,122782945245323.9
11.405153941827061,1.3350354737530408e+16,1.8204757143297596e+16,2046269783389911.2,2675013521815111.5,88767945823.81749,219156091742.3508,4628748849780.252,128182427674782.34
11.733257020663602,1.3539762902049702e+16,1.8466949067785984e+16,2075301236968833.2,2712965277511756.5,92635905495.03224,228705570029.21094,4830441493157.97,133767868286968.9
12.067922161076874,1.3730173673005056e+16,1.8730697154416644e+16,2104486364610910.0,2751117925681991.5,96636555427.312,238582643454.83,5039053214343.0,139544918705484.48
12.409280604298411,1.3921613562133078e+16,1.8996043336052784e+16,2133829229890985.8,2789476778488363.0,100773926775.67055,248797264451.45233,5254794217106.138,145519400131994.5
12.75746621638438,1.4114108615154972e+16,1.9263029095857532e+16,2163333824955586.2,2828047054717796.5,105052171466.31311,259359683622.28455,5477881002853.17,151697308171236.22
13.112615540712067,1.4307684442209892e+16,1.9531695513645456e+16,2193004075187600.0,2866833885879542.0,109475565633.79282,270280458227.54492,5708536549858.352,158084817794696.47
13.474867851526309,1.4502366246051268e+16,1.980208330935214e+16,2222843843528020.8,2905842321854895.5,114048513156.48334,281570460913.25006,5946990497624.943,164688288446272.88
13.844365208556836,1.4698178848189862e+16,2.0074232883876268e+16,2252856934483100.0,2945077336135478.0,118775549292.73448,293240888688.5833,6193479336495.6875,171514269293342.9
14.221252512727972,1.4895146713150486e+16,2.0348184357522096e+16,2283047097842141.5,2984543830683540.0,123661344420.14381,305303272157.85065,6448246602640.974,178569504626755.56
14.605677562982532,1.5093293970991188e+16,2.062397760624944e+16,2313418032129282.0,3024246640444170.5,128710707880.45741,317769485013.2448,6711543078554.882,185860939413370.38
14.997791114242183,1.5292644438221276e+16,2.0901652295917204e+16,2343973387809537.0,3064190537536630.5,133928591932.66693,330651753794.7158,6983626999193.631,193395725004858.25
15.397746936527026,1.5493221637240228e+16,2.1181247914692228e+16,2374716770268439.5,3104380235149315.0,139320095816.95074,343962667923.5426,7264764263894.034,201181225006582.22
15.805701875257567,1.569504881440902e+16,2.1462803803776188e+16,2405651742581794.5,3144820391160751.5,144890469932.1695,357715190016.24414,7555228654213.812,209225021310481.0
16.221815912762718,1.5898148956854174e+16,2.1746359186592536e+16,2436781828091367.0,3185515611506567.0,150645120129.69525,371922666485.72363,7855302057838.087,217534920295959.53
16.64625223101797,1.6102544808096484e+16,2.2031953196560036e+16,2468110512800361.5,3226470453311074.0,156589612126.4233,386598838436.6756,8165274698701.274,226118959202907.7
17.079177275638333,1.6308258882587574e+16,2.2319624903572544e+16,2499641247601539.5,3267689427799974.0,162729676039.88376,401757852862.4496,8485445373475.979,234985412681064.22
17.5207608211511,1.6515313479230338e+16,2.260941333928897e+16,2531377450349475.0,3309177003009373.5,169071211048.43814,417414274150.74817,8816121694584.86,244142799520031.34
17.97117603757412,1.672373069395183e+16,2.2901357521334976e+16,2563322507787726.0,3350937606305093.0,175620290179.61795,433583095905.70825,9157620339895.018,253599889564352.97
18.430599558325603,1.693353243139232e+16,2.319549647650337e+16,2595479777340471.0,3392975626724785.5,182383165229.72687,450279753094.0603,9510267309256.975,263365710818176.78
18.899211549492115,1.714474041576769e+16,2.3491869263038056e+16,2627852588777404.5,3435295417154414.0,189366271817.90106,467520134523.27936,9874398188056.09,273449556744108.3
19.37719578048196,1.735737620095802e+16,2.379051499207695e+16,2660444245760062.0,3477901296349726.0,196576234577.8898,485320595659.76,10250358417945.43,283860993760966.9
19.864739696091597,1.7571461179870316e+16,2.4091472848324e+16,2693258027276927.5,3520797550812265.0,204019872490.8958,503697971795.2594,10638503574934.393,294609868945262.75
20.36203449001343,1.7787016593119644e+16,2.4394782110014744e+16,2726297188974008.5,3563988436528819.0,211704204362.86722,522669591570.0003,11039199655010.973,305706317941318.25
20.869275179813698,1.800406353706928e+16,2.4700482168236644e+16,2759564964387142.0,3607478180582372.5,219636454449.72733,542253290861.0391,11452823367478.018,317160773085032.9
21.38666068340997,1.8222622971266136e+16,2.5008612545657756e+16,2793064566081738.5,3651270982642020.0,227824058234.07898,562467427044.6053,11879762436188.998,328983971746436.7
21.91439389707817,1.8442715725306348e+16,2.5319212914717092e+16,2826799186705048.5,3695371016338610.5,236274668356.99908,583330893641.3893,12320415908871.586,341186964896224.7
22.452681775019734,1.8664362505162028e+16,2.563232311532264e+16,2860771999955879.0,3739782430532361.5,244996160708.61505,604863135353.8341,12775194474731.293,353781125901630.2
23.00173541052013,1.8887583898996896e+16,2.5947983172102984e+16,2894986161476065.0,3784509350478263.0,253996640681.2161,627084163504.7517,13244520790531.16,366778159557036.0
23.561770118730532,1.9112400382499068e+16,2.6266233311253044e+16,2929444809667741.5,3829555878894507.5,263284449588.72195,650014571886.6781,13728829815346.963,380190111354869.7
24.133005521105144,1.93388323237529e+16,2.6587113977012644e+16,2964151066440136.0,3874926096938677.0,272868171256.42926,673675553031.6228,14228569154201.824,394029377002414.4
24.715665631527248,1.9566899987674068e+16,2.691066584781463e+16,2999108037889336.0,3920624065096483.5,282756638784.9722,698088914911.0046,14744199410786.656,408308712190256.2
25.309978944157795,1.979662354002728e+16,2.723692985213538e+16,3034318814914137.0,3966653823986700.5,292958941492.57416,723277098075.7485,15276194549477.377,423041242618230.8
25.91617852304095,2.0028023051046068e+16,2.7565947184080356e+16,3069786473770817.0,4013019395086526.0,303484432039.67786,749263193246.7095,15825042266864.027,438240474284778.94
26.53450209350177,2.026111849867171e+16,2.7897759318733692e+16,3105514076569588.0,4059724781380519.5,314342733740.14636,776070959365.7352,16391244373008.611,453920304045785.06
27.165192135371807,2.0495929771427244e+16,2.8232408027300684e+16,3141504671715141.0,4106773967936475.0,325543748063.2852,803724842117.8971,16975317182654.805,470095030449004.56
27.808495978079243,2.0732476670941776e+16,2.856993539206879e+16,3177761294293528.5,4154170922411278.5,337097662331.00946,832249992935.5004,17577791916613.896,486779364850354.5
28.464665897640828,2.0970778914137948e+16,2.8910383821212548e+16,3214286966407449.0,4201919595489120.0,349014957614.54126,861672288494.8081,18199215113556.688,503988442818384.8
29.133959215593645,2.121085613509567e+16,2.9253796063466084e+16,3251084697461952.0,4250023921255015.0,361306416835.1105,892018350716.3889,18840149052443.49,521737835833389.6
29.816638399905518,2.145272788660359e+16,2.9600215222685148e+16,3288157484402148.0,4298487817505593.5,373983133073.1629,923315567280.36,19501172185828.26,540043563287678.0
30.51297116790363,2.1696413641408228e+16,2.9949684772321132e+16,3325508311904772.0,4347315185999442.0,387056518090.6965,955592112667.8046,20182879584277.45,558922104793645.9
31.223230591261704,2.1941932793171576e+16,3.0302248569824748e+16,3363140152524900.5,4396509912648986.5,400538311071.36993,988876969739.901,20885883392144.82,578390412806380.6
31.947695203086937,2.21893046571455e+16,3.0657950871002476e+16,3401055966799339.0,4446075867655593.5,414440587583.10785,1023199951866.4279,21610813294950.742,598465925567591.6
32.686649107148675,2.2438548470571508e+16,3.1016836344339776e+16,3439258703307857.5,4496016905589635.0,428775768768.0025,1058591725615.4603,22358316998613.668,619166580377819.6
33.44038208929165,2.2689683392813144e+16,3.1378950085313244e+16,3477751298693558.5,4546336865417120.0,443556630764.3464,1095083834016.2556,23129060720788.086,640510827203860.5
34.20918973107749,2.294272850522882e+16,3.174433763070411e+16,3516536677643312.5,4597039570474113.0,458796314365.7248,1132708720407.4119,23923729694564.934,662517642628541.6
34.993373525699035,2.3197702810790868e+16,3.2113044972933332e+16,3555617752829412.0,4648128828390472.0,474508334922.1257,1171499752882.6538,24743028684793.027,685206544149970.0
35.793240996213015,2.345462523345713e+16,3.248511857443083e+16,3594997424813226.5,4699608430963870.0,490706592488.0956,1211491249346.5427,25587682517283.78,708597604837513.0
36.60910581613728,2.3713514617300256e+16,3.2860605382055836e+16,3634678581911786.0,4751482153985422.0,507405382223.03156,1252718503192.8086,26458436621164.727,732711468351828.0
37.44128793246003,2.39743897254007e+16,3.3239552841582092e+16,3674664100028031.5,4803753757017765.0,524619405048.742,1295217809617.8179,27356057584649.336,757569364336287.0
38.29011369110923,2.4237269238506564e+16,3.362200891226168e+16,3714956842445508.5,4856426983126625.0,542363778569.44434,1339026492582.1475,28281333724492.93,783193124187318.0
39.15591596493141,2.4502171753466136e+16,3.400802208148195e+16,3755559659587982.5,4909505558566674.0,560654048259.4686,1384182932433.0525,29235075669407.99,809605197211102.0
40.03903428423004,2.4769115781435692e+16,3.439764137952811e+16,3796475388744878.5,4962993192422467.0,579506198923.9028,1430726594200.9514,30218116957713.844,836828667174224.5
40.93981496991464,2.5038119745867492e+16,3.479091639446407e+16,3837706853762810.5,5016893576205321.0,598936666437.5405,1478698056583.0044,31231314649497.875,864887269255913.0
41.85861126931294,2.530920198028011e+16,3.5187897287144812e+16,3879256864703807.5,5071210383406454.0,618962349767.4348,1528139041627.0576,32275549953567.043,893805407409476.1
42.7957834946992,2.558238072581452e+16,3.5588634806371336e+16,3921128217470808.5,5125947269007395.0,639600623284.5138,1579092445129.2166,33351728869471.0,923608172140683.2
43.751699164593184,2.585767412857889e+16,3.5993180304200284e+16,3963323693400615.0,5181107868947943.0,660869349369.6138,1631602367758.4707,34460782844878.652,954321358710783.1
