t(s),Total solute volume 1,Total retention volume 1,Total 1 volume 1,Total 2 volume 1,Total 3 volume 1,Total 4 volume 1,Total 5 volume 1,Total 6 volume 1
0.1,1373795654025336.8,3540173632894849.0,759959875137435.1,1406418103732074.5,0.0,0.0,0.0,-1.66771727949885e-108
0.202,2003860512336998.8,5393372348822597.0,1108500888422346.8,2051445576981945.0,35893077532.37402,151194166496.4804,6888237771785.104,222490046065496.38
0.30604000000000003,2445797129737991.0,6883262674587099.0,1352972575789008.0,2503876882270702.5,88493815618.55573,372781488412.8164,17025512859322.893,563129298626044.8
0.41216080000000005,2789620478522310.0,8204123118205901.0,1543169699355890.2,2855864998656351.0,152919063516.24667,644184793179.9047,29452403038418.023,985218434776235.8
0.5204040160000001,3070919864530555.0,9429807111590502.0,1698779649465893.5,3143844399016401.0,226709856774.4735,955044503307.8215,43692101745340.71,1471389342472226.5
0.6308120963200001,3308034726146336.0,1.0596916849759244e+16,1829947486261562.2,3386590032082504.5,308349107387.5584,1298969388706.3171,59451166395511.4,2011286120377234.2
0.7434283382464002,3511936926314110.5,1.1726560683899936e+16,1942742654334175.8,3595334309208995.0,396803377813.52295,1671605816665.2683,76529865723752.39,2597948519124419.5
0.8582969050113283,3689832776698888.0,1.2832167994415058e+16,2041151560433664.8,3777454669198956.0,491327396159.5855,2069814150943.6187,94784202511877.97,3226383644024564.5
0.9754628431115548,3846765444127107.5,1.3922897997144368e+16,2127963997035373.0,3938114037820434.0,591364011248.5233,2491247267958.511,114106531744209.62,3892865375138038.5
1.094972099973786,3986429561010926.5,1.5005333846872324e+16,2205223770737780.2,4081094782940979.0,696486706179.4084,2934108374959.4683,134414439946401.3,4594540697155104.0
1.2168715419732616,4111626756659483.0,1.6084407504383326e+16,2274480694298712.0,4209265063355144.5,806363805346.901,3397000221608.4214,155643827285358.72,5329187798757670.0
1.3412089728127268,4224539292515073.0,1.7163941828602488e+16,2336941956908766.5,4324858962015820.0,920734839569.3761,3878825532090.5103,177744342249487.78,6095057714541679.0
1.4680331522689813,4326903859071896.0,1.8246986510876504e+16,2393568265635531.5,4429654410081907.5,1039394226210.9479,4378718253947.6484,200676230587912.16,6890765633019107.0
1.597393815314361,4420127000750600.0,1.933603581094004e+16,2445137696463652.5,4525091352763105.0,1162179599211.8936,4895994395935.1045,224408082696287.3,7715213504271260.0
1.729341691620648,4505364623835538.0,2.04331750003392e+16,2492289676707460.0,4612353145312037.0,1288963227153.3694,5430115874981.404,248915177387014.12,8567533297995008.0
1.863928525453061,4583578452259097.0,2.1540181961258228e+16,2535556215371980.0,4692424349447835.0,1419645556346.3328,5980663315284.881,274178235910749.62,9447044399396936.0
2.001207095962122,4655577154933902.0,2.265859956201663e+16,2575384654079918.5,4766132837326065.0,1554150259864.5312,6547315191507.152,300182466629105.1,1.0353220983596268e+16
2.1412312378813647,4722046968852652.0,2.3789788405294976e+16,2612154607239415.0,4834181141835058.0,1692420380416.267,7129831579970.852,326916820755360.1,1.1285666614652096e+16
2.284055862638992,4783574934939784.0,2.4934966045733268e+16,2646190815714145.5,4897170244221054.0,1834415284511.4456,7728041327585.565,354373404618168.25,1.2244094189628018e+16
2.4297369798917723,4840666820475420.0,2.609523666503836e+16,2677773061197394.5,4955617922109430.0,1980108229256.751,8341831801576.725,382547010106133.0,1.3228309911119148e+16
2.578331719489608,4893761143654556.0,2.727161388102942e+16,2707143924354911.0,5009973107099724.0,2129484399009.904,8971140618576.584,411434735745602.1,1.4238200345157034e+16
2.7298983538794,4943240288566265.0,2.8465038527804844e+16,2734514933438578.5,5060627263688022.0,2282539307328.24,9615948912580.291,441035678239429.75,1.5273721875652622e+16
2.884496320956988,4989439414511526.0,2.9676392693737972e+16,2760071492766517.5,5107923510150940.0,2439277486342.2305,10276275813729.492,471350679446703.3,1.6334892043562194e+16
3.0421862473761276,5032653670064186.0,3.090651093484799e+16,2783976873416416.0,5152164003915939.0,2599711404705.752,10952173890016.926,502382117453709.44,1.742178238470302e+16
3.2030299723236504,5073144087938418.0,3.2156189328549336e+16,2806375474164001.5,5193615976412061.0,2763860569065.3687,11643725362099.066,534133733046828.25,1.853451247105685e+16
3.3670905717701234,5111142441774652.0,3.3426192856884548e+16,2827395508172686.0,5232516705187956.0,2931750774144.5654,12351038944179.031,566610484856567.1,1.9673244927174356e+16
3.5344323832055258,5146855277742896.0,3.471726148382038e+16,2847151233206674.5,5269077641252140.0,3103413474119.8213,13074247195857.219,599818427903993.1,2.0838181243044676e+16
3.7051210308696363,5180467284130846.0,3.603011520170708e+16,2865744815628597.5,5303487858677559.0,3278885253696.4824,13813504293990.127,633764611385961.5,2.202955824233644e+16
3.879223451487029,5212144125333072.0,3.736545825682815e+16,2883267898113189.0,5335916955888288.0,3458207381674.4946,14568984152058.451,668456992380490.0,2.3247645093579412e+16
4.0568079205167695,5242034839162024.0,3.872398271589731e+16,2899802925798137.0,5366517509898693.0,3641425433179.316,15340878828805.736,703904362806337.2,2.4492740773970132e+16
4.237944078927105,5270273875596459.0,4.0106371499496856e+16,2915424274084383.5,5395427163475301.0,3828588969373.1206,16129397179030.352,740116287479754.5,2.5765171912712572e+16
4.422702960505647,5296982839174391.0,4.151330098140758e+16,2930199212497658.5,5422770408905735.0,4019751265537.928,16934763708159.725,777103051511709.6,2.7065290954344364e+16
4.61115701971576,5322271984955517.0,4.294544323218431e+16,2944188732228957.0,5448660119485258.0,4214969080068.0513,17757217599170.477,814875615606201.8,2.8393474593229104e+16
4.803380160110075,5346241508410657.0,4.44034679695027e+16,2957448259679007.0,5473198870036779.0,4414302458224.138,18597011885955.805,853445578073722.2,2.975012243895834e+16
4.9994477633122765,5368982662080857.0,4.588804426553012e+16,2970028274174738.0,5496480080086954.0,4617814565557.534,19454412751692.414,892825142577648.2,3.1135655879292616e+16
5.199436718578522,5390578725900231.0,4.739984205198599e+16,2981974844735018.5,5518589007230966.0,4825571546768.884,20329698934362.418,933027090796190.6,3.2550517112842456e+16
5.403425452950093,5411105853334137.0,4.893953345600676e+16,2993330098139650.0,5539603613363696.0,5037642406460.414,21223161224514.465,974064759316662.2,3.3995168328221628e+16
5.611493962009095,5430633811677399.0,5.050779399394334e+16,3004132628449497.5,5559595322557631.0,5254098908810.464,22135102042747.207,1015952020188562.6,3.5470091010118708e+16
5.823723841249277,5449226631782573.0,5.210530364544466e+16,3014417856424943.0,5578629686220093.0,5475015493666.96,23065835086369.332,1058703264652225.2,3.697578535578475e+16
6.040198318074262,5466943179990155.0,5.373274782633999e+16,3024218345907673.5,5596766968604815.0,5700469206943.009,24015685036318.617,1102333389634355.4,3.851276978795967e+16
6.261002284435747,5483837662990624.0,5.539081827573683e+16,3033564083101713.0,5614062663662979.0,5930539643518.718,24984987316775.344,1146857786663655.2,4.0081580552357496e+16
6.486222330124463,5499960074672507.0,5.708021387023023e+16,3042482723761956.0,5630567952502389.0,6165308901120.8545,25974087901030.645,1192292332911354.2,4.168277138957984e+16
6.715946776726952,5515356592626183.0,5.8801641376065816e+16,3050999812533225.5,5646330109306977.0,6404861543875.602,26983343158114.516,1238653384104580.0,4.331691327279292e+16
6.950265712261491,5530069930825673.0,6.05558161484088e+16,3059138978047744.0,5661392862393749.0,6649284574417.543,28013119735477.9,1285957769096822.5,4.498459420373498e+16
7.18927102650672,5544139654055158.0,6.2343462785482104e+16,3066922106860414.0,5675796716105848.0,6898667413596.684,29063794473693.062,1334222785910287.8,4.668641906066307e+16
7.433056447036854,5557602458847047.0,6.416531574418312e+16,3074369498858883.0,5689579238422035.0,7153101886958.999,30135754349698.438,1383466199090769.0,4.842300949272768e+16
7.681717575977592,5570492425027295.0,6.602211992283057e+16,3081500006414079.5,5702775318475472.0,7412682217289.768,31229396445595.008,1433706238237697.2,5.0195003856013096e+16
7.935351927497144,5582841241397925.0,6.791463121589238e+16,3088331159223854.5,5715417397595425.0,7677505022605.863,32345127940407.61,1484961597590596.2,5.200305718712157e+16
8.194058966047088,5594678408607709.0,6.9843617044874536e+16,3094879276537547.0,5727535676995584.0,7947669319065.648,33483366122573.594,1537251436569224.8,5.38478412107228e+16
8.45794014536803,5606031421855934.0,7.180985686898552e+16,3101159568224531.0,5739158304816415.0,8223276528335.805,34644538421218.633,1590595381178314.0,5.5730044377960696e+16
8.72709894827539,5616925935728014.0,7.381414267871653e+16,3107186225958411.0,5750311544875104.0,8504430489015.346,35829082454535.234,1645013526199514.0,5.76503719330119e+16
9.0016409272409,5627385913166055.0,7.585727947507102e+16,3112972505624978.0,5761019929173790.0,8791237471769.171,37037446093800.88,1700526438103295.2,5.9609546005437304e+16
9.281673745785717,5637433760324489.0,7.794008573683622e+16,3118530801922009.5,5771306395957551.0,9083806197868.727,38270087541760.7,1757155158622283.8,6.16083057262703e+16
9.567307220701432,5647090448842946.0,8.006339387799547e+16,3123872715998506.0,5781192414890931.0,9382247860876.32,39527475424267.15,1814921208935012.2,6.364740736604289e+16
9.85865336511546,5656375626881424.0,8.222805069713142e+16,3129009116877378.0,5790698100729775.0,9686676151243.57,40810088894207.59,1873846594415651.2,6.572762449318174e+16
10.155826432417769,5665307720100307.0,8.44349178204557e+16,3133950197315949.5,5799842316699377.0,9997207283623.863,42118417746880.086,1933953809910963.5,6.784974815139853e+16
10.458942961066125,5673904023628377.0,8.668487213991562e+16,3138705524680955.0,5808642768646289.0,10313960026724.262,43452962546080.09,1995265845510691.5,7.001458705487666e+16
10.768121820287448,5682180785939169.0,8.897880624767314e+16,3143284087347549.0,5817116090906623.0,10637055735545.105,44814234760260.14,2057806192781926.5,7.222296780020192e+16
11.083484256693197,5690153285450958.0,9.13176288681077e+16,3147694337073099.0,5825277924725020.0,10966618385874.291,46202756908203.76,2121598851441791.2,7.447573509412278e+16
11.405153941827061,5697835900572817.0,9.370226528838906e+16,3151944227745418.0,5833142989964052.0,11302774610921.697,47619062713729.23,2186668336446106.8,7.677375199633606e+16
11.733257020663602,5705242173838393.0,9.613365778854605e+16,3156041250860482.5,5840725150761057.0,11645653739993.266,49063697269002.01,2253039685474683.5,7.91179001766024e+16
12.067922161076874,5712384870698669.0,9.861276607188658e+16,3159992468045571.0,5848037475717038.0,11995387839117.77,50537217206091.45,2320738466796351.0,8.150908018558378e+16
12.409280604298411,5719276033482588.0,1.0114056769653248e+17,3163804540909334.0,5855092293138659.0,12352111753551.994,52040190876455.09,2389790787499279.5,8.394821173887259e+16
12.75746621638438,5725927030979900.0,1.0371805850877408e+17,3167483758470192.5,5861901241798627.0,12715963152099.016,53573198538081.18,2460223302074009.5,8.643623401376106e+16
13.112615540712067,5732348604052847.0,1.063462530788871e+17,3171036062387893.0,5868475317630423.0,13087082573184.83,55136832550055.695,2532063221338516.5,8.897410595835426e+16
13.474867851526309,5738550907640222.0,1.0902618514000338e+17,3174467070199462.0,5874824916729936.0,13465613472645.857,56731697574356.89,2605338321696184.0,9.156280661269053e+16
13.844365208556836,5744543549480670.0,1.117589080305826e+17,3177782096740269.5,5880959874998271.0,13851702273188.074,58358410784710.414,2680076954718954.0,9.420333544158646e+16
14.221252512727972,5750335625848075.0,1.1454549514099493e+17,3180986173912190.5,5886889504725774.0,14245498415483.94,60017602082366.18,2756308057049288.0,9.689671267896163e+16
14.605677562982532,5755935754563043.0,1.1738704036468573e+17,3184084068945015.0,5892622628387449.0,14647154410880.33,61709914318682.55,2834061160615550.5,9.964397968344496e+16
14.997791114242183,5761352105517870.0,1.2028465855436693e+17,3187080301282327.5,5898167609892795.0,15056825895695.188,63436003524425.266,2913366403156642.0,1.024461993050971e+17
15.397746936527026,5766592428929461.0,1.2323948598365538e+17,3189979158210530.5,5903532383509675.0,15474671687085.475,65196539145709.695,2994254539052469.0,1.0530445626312042e+17
15.805701875257567,5771664081513540.0,1.2625268081454685e+17,3192784709337979.0,5908724480660074.0,15900853840473.463,66992204286531.6,3076756950457779.5,1.0821985753445058e+17
16.221815912762718,5776574050755361.0,1.2932542357110763e+17,3195500820021080.0,5913751054767190.0,16335537708522.268,68823695957849.03,3160905658737510.0,1.1119353275316006e+17
16.64625223101797,5781328977435127.0,1.324589176197332e+17,3198131163825023.5,5918618904315769.0,16778892001654.662,70691725333191.69,3246733336202669.5,1.1422663462061976e+17
17.079177275638333,5785935176552002.0,1.3565438965632258e+17,3200679234098511.0,5923334494272980.0,17231088850112.785,72597018010789.22,3334273318146214.5,1.1732033932639184e+17
17.5207608211511,5790398656776787.0,1.3891309020069134e+17,3203148354734711.5,5927903976003082.0,17692303867559.28,74540314282220.14,3423559615179019.0,1.2047584697984802e+17
17.97117603757412,5794725138551941.0,1.422362940985439e+17,3205541690183838.0,5932333205797243.0,18162716216222.652,76522369407595.55,3514626925866598.0,1.236943820525205e+17
18.430599558325603,5798920070946445.0,1.456253010313091e+17,3207862254776981.5,5936627762128662.0,18642508673592.504,78543953897302.67,3607510649667635.5,1.2697719383121861e+17
18.899211549492115,5802988647363758.0,1.4908143603414122e+17,3210112921415474.5,5940792961733584.0,19131867700672.26,80605853800340.78,3702246900175861.5,1.3032555688195147e+17
19.37719578048196,5806935820192148.0,1.5260605002237114e+17,3212296429675199.0,5944833874609500.0,19630983511799.594,82708870999293.3,3798872518667243.0,1.3374077152471621e+17
19.864739696091597,5810766314479008.0,1.5620052032670166e+17,3214415393370997.0,5948755338014185.0,20140050146045.34,84853823511985.4,3897425087954722.5,1.3722416431922478e+17
20.36203449001343,5814484640703670.0,1.598662512374158e+17,3216472307622367.5,5952561969541910.0,20659265540205.83,87041545799887.52,3997942946553270.5,1.4077708856165445e+17
20.869275179813698,5818095106716907.0,1.6360467455788208e+17,3218469555458143.5,5956258179346342.0,21188831603402.4,89272889083327.77,4100465203158149.5,1.4440092479251597e+17
21.38666068340997,5821601828909180.0,1.6741725016762454e+17,3220409413994679.5,5959848181574141.0,21728954293305.7,91548721663586.62,4205031751439742.5,1.480970813157499e+17
21.91439389707817,5825008742665217.0,1.713054665952253e+17,3222294060219008.0,5963336005067744.0,22279843694003.06,93869929251952.38,4311683285158484.5,1.5186699472916883e+17
22.452681775019734,5828319612156715.0,1.7527084160132886e+17,3224125576406132.0,5966725503390610.0,22841714095527.695,96237415305820.38,4420461313603794.5,1.5571213046636995e+17
23.00173541052013,5831538039521679.0,1.7931492277201098e+17,3225905955196776.0,5970020364224615.0,23414784075071.906,98652101371927.81,4531408177361072.0,1.5963398335025994e+17
23.561770118730532,5834667473474244.0,1.8343928812278e+17,3227637104360222.5,5973224118184215.0,23999276579905.04,101114927436815.5,4644567064411157.0,1.6363407815833357e+17
24.133005521105144,5837711217385656.0,1.876455467134662e+17,3229320851264589.0,5976340147089460.0,24595419012020.945,103626852284621.98,4759982026566805.0,1.6771397019986333e+17
24.715665631527248,5840672436873662.0,1.9193533927427283e+17,3230958947075113.0,5979371691735540.0,25203443314538.14,106188853862309.6,4877697996251079.0,1.7187524590516067e+17
25.309978944157795,5843554166934771.0,1.9631033884324275e+17,3232553070699626.5,5982321859194413.0,25823586059879.48,108801929652435.69,4997760803622451.0,1.7611952342707926e+17
25.91617852304095,5846359318650970.0,2.0077225141541226e+17,3234104832498584.0,5985193629680823.0,26456088539756.516,111467097053582.42,5120217194052260.0,1.8044845325493613e+17
26.53450209350177,5849090685500081.0,2.0532281660391216e+17,3235615777775843.0,5987989863012511.0,27101196856987.867,114185393768562.12,5245114845959489.0,1.8486371884103872e+17
27.165192135371807,5851750949296859.0,2.099638083132875e+17,3237087390065184.0,5990713304692400.0,27759162019178.684,116957878200523.33,5372502389008886.0,1.8936703724000435e+17
27.808495978079243,5854342685789586.0,2.1469703542529837e+17,3238521094226217.5,5993366591638034.0,28430240034291.746,119785629857082.1,5502429422677972.0,1.939601597610748e+17
28.464665897640828,5856868369935183.0,2.1952434249747677e+17,3239918259362533.0,5995952257582068.0,29114692008140.305,122669749762611.05,5634946535199179.0,1.9864487263362685e+17
29.133959215593645,5859330380874240.0,2.244476104747105e+17,3241280201573769.0,5998472738165367.0,29812784243834.273,125611360878820.84,5770105322883061.0,2.034229976860916e+17
29.816638399905518,5861731006625616.0,2.2946875741412637e+17,3242608186552588.5,6000930375743075.0,30524788343211.76,128611608533770.05,5907958409829153.0,2.0829639303849898e+17
30.51297116790363,5864072448518801.0,2.345897392235522e+17,3243903432036596.0,6003327423922333.0,31250981310289.58,131671660859451.14,6048559468030916.0,2.1326695380887373e+17
31.223230591261704,5866356825381094.0,2.3981255041383725e+17,3245167110124597.5,6005666051848771.0,31991645656766.45,134792709238092.94,6191963237881425.0,2.1833661283370624e+17
31.947695203086937,5868586177495206.0,2.4513922486531222e+17,3246400349465894.5,6007948348258234.0,32747069509613.902,137975968757333.83,6338225549086943.0,2.2350734140273917e+17
32.686649107148675,5870762470341936.0,2.5057183660867782e+17,3247604237330654.0,6010176325308164.0,33517546720790.695,141222678674417.38,6487403341994962.0,2.2878115000830656e+17
33.44038208929165,5872887598141346.0,2.5611250062060618e+17,3248779821568826.0,6012351922203031.0,34303376979117.184,144534102889566.7,6639554689344528.0,2.341600891094795e+17
34.20918973107749,5874963387205180.0,2.6176337363435606e+17,3249928112464660.0,6014477008626286.0,35104865924347.1,147911530428700.66,6794738818445628.0,2.396462499112611e+17
34.993373525699035,5876991599112099.0,2.675266549656863e+17,3251050084493174.0,6016553387990997.0,35922325263475.3,151356275935655.5,6953016133795788.0,2.4524176515909526e+17
35.793240996213015,5878973933716713.0,2.7340458735438086e+17,3252146677984686.0,6018582800520352.0,36756072889319.945,154869680174077.0,7114448240141001.0,2.509488099489547e+17
36.60910581613728,5880912032002436.0,2.7939945782167824e+17,3253218800703021.0,6020566926168308.0,37606433001419.06,158453110539160.53,7279097965989385.0,2.5676960255327478e+17
37.44128793246003,5882807478787841.0,2.8551359854392154e+17,3254267329342536.0,6022507387390122.0,38473736229283.45,162107961579409.2,7447029387585293.0,2.6270640526300714e+17
38.29011369110923,5884661805295053.0,2.9174938774273274e+17,3255293110948989.5,6024405751771804.0,39358319758044.99,165835655528589.0,7618307853352208.0,2.6876152524607814e+17
39.15591596493141,5886476491588614.0,2.9810925059203885e+17,3256296964268629.5,6026263534526886.0,40260527456545.03,169637642848068.4,7793000008812817.0,2.749373154225375e+17
40.03903428423004,5888252968892371.0,3.0459566014225824e+17,3257279681029874.0,6028082200868355.0,41180710007904.83,173515402779721.12,7971173821994716.0,2.812361753566856e+17
40.93981496991464,5889992621791677.0,3.112111382619823e+17,3258242027161535.5,6029863168263090.0,42119225042621.75,177470443909587.34,8152898609330553.0,2.8766055216648326e+17
41.85861126931294,5891696790327463.0,3.1795825659747386e+17,3259184743951206.5,6031607808575703.0,43076437274237.26,181504304742482.7,8338245062061408.0,2.942129414505413e+17
