t(s),Total solute volume 1,Total retention volume 1,Total 1 volume 1,Total 2 volume 1,Total 3 volume 1,Total 4 volume 1,Total 5 volume 1,Total 6 volume 1
0.1,878184692305091.0,1002349173156223.1,60489917771387.09,63674563079745.664,0.0,0.0,0.0,0.0
0.202,1322525128027019.2,1510802014070925.2,91096368527939.22,95892368498647.03,2702641575.208633,4781366010.631989,61276476044.12159,1219388533688.194
0.30604000000000003,1660415592031689.0,1898444689053301.5,114370477731003.08,120391802407856.06,6853965384.579075,12125677015.235102,155399125925.156,3092438114429.876
0.41216080000000005,1945782019377004.8,2226691488243763.8,134026698010322.48,141082874407915.72,12168445657.570477,21527804241.38384,275894251093.7051,5490305947528.76
0.5204040160000001,2198813603640597.2,2518525312310967.5,151455673814056.03,159429442976444.5,18518533836.471874,32762102937.846222,419870040103.15204,8355441202994.971
0.6308120963200001,2429569545281775.5,2785394655101242.0,167350289243074.22,176160870863740.47,25835092532.071125,45706265956.73136,585759038382.9238,11656649315781.762
0.7434283382464002,2643896143119937.0,3033953237107142.0,182113241063757.06,191701055832889.12,34077895644.647087,60289134430.41505,772649296790.1411,15375780763701.967
0.8582969050113283,2845538007272338.5,3268463937782557.5,196002460393125.75,206321508441088.34,43223502030.36648,76469244664.72296,980009432806.6776,19502259496501.6
0.9754628431115548,3037060348641135.0,3491848635508425.5,209194640583092.44,220208224511394.6,53259276522.00908,94224250545.98141,1207553070463.49,24030385175277.527
1.094972099973786,3220309364875424.0,3706212106607166.0,221816948897210.28,233495066351506.8,64180075427.33177,113545059771.85187,1455163691668.6968,28957837656158.184
1.2168715419732616,3396665017676471.0,3913129591574282.5,233964437971597.5,246282090885392.78,75986252026.49739,134432305339.26459,1722849415673.875,34284777067781.176
1.3412089728127268,3567190139103711.5,4113816375432668.0,245710316351751.53,258646360908663.88,88682381515.97105,156894089830.36975,2010714090425.1606,40013268506771.11
1.4680331522689813,3732723457535109.0,4309233559520279.5,257112356179632.25,270648690124653.62,102276407330.73155,180944475173.77698,2318937937748.148,46146896860630.125
1.597393815314361,3893940313523261.5,4500157079378382.5,268217075340289.0,282338045470798.06,116779048573.00479,206602434338.88705,2647764118555.5747,52690499442558.92
1.729341691620648,4051393785748249.5,4687224443669098.0,279062570243545.12,293754529039320.75,132203376756.44557,233891102572.7413,2997489136918.6255,59649975021733.445
1.863928525453061,4205543427186100.0,4870967385878110.0,289680495189487.06,304931461651451.7,148564506539.3671,262837230299.74216,3368455828600.275,67032144285625.805
2.001207095962122,4356775881764074.0,5051835286256122.0,300097482456740.1,315896877709864.44,165879365659.77997,293470776141.12463,3761048145329.1074,74844646038315.27
2.1412312378813647,4505420016038442.0,5230212360222769.0,310336184582013.7,326674622351685.2,184166521407.22943,325824599956.8889,4175687220936.768,83095858908318.31
2.284055862638992,4651758247155982.0,5406430524947829.0,320416054637272.5,337285172805329.44,203446048409.10864,359934228979.9932,4612828374228.693,91794841697630.89
2.4297369798917723,4796035171929809.0,5580779200147715.0,330353940605937.4,347746264059163.75,223739427236.04184,395837678475.1975,5072958810629.925,100951287636461.84
2.578331719489608,4938464241937535.0,5753512889796460.0,340164545167883.8,358073372853038.3,245069466422.41235,433575313824.093,5556595854740.261,110575489203018.62
2.7298983538794,5079232998393962.0,5924857128601998.0,349860786280782.5,368280097243367.25,267460242572.61255,473189744608.0456,6064285592967.645,120678311103727.02
2.884496320956988,5218507228346207.0,6095013204052037.0,359454083461453.56,378378457956479.25,290937054647.64215,514725743779.9886,6596601837695.743,131271169651788.89
3.0421862473761276,5356434301264754.0,6264161948347463.0,368954587612376.8,388379140314934.94,315526389524.11725,558230186780.6892,7154145347056.605,142366017232033.5
3.2030299723236504,5493145855348366.0,6432466815656262.0,378371366058085.5,398291689020789.1,341255895495.1057,603752005400.827,7737543402059.31,153975353926079.1
3.3670905717701234,5628760089862941.0,6600076397360192.0,387712560434761.25,408124674336854.0,368154368812.7667,651342161258.3396,8347448795095.845,166112127400464.0
3.5344323832055258,5763383474258340.0,6767126505764347.0,396985504427667.7,417885816054286.1,396251735072.915,701053617057.5194,8984540466436.953,178789865205481.38
3.7051210308696363,5897112347314591.0,6933741903939217.0,406196833912994.25,427582099411858.44,425579046891.752,752941329783.2627,9649522748890.078,192022580174202.47
3.879223451487029,6030034169650118.0,7100037757105124.0,415352573233536.6,437219865919218.3,456168480258.47974,807062244993.8721,10343125461359.098,205824792115643.56
4.0568079205167695,6162228596528674.0,7266120857651890.0,424458209094323.2,446804891142933.6,488053335633.76807,863475298826.3303,11066103934599.984,220211528316896.2
4.237944078927105,6293768387685265.0,7432090665617211.0,433518753231987.94,456342450675264.0,521268042160.82733,922241425511.153,11819239107588.059,235198325449434.94
4.422702960505647,6424720183265072.0,7598040197632916.0,442538795861944.0,465837376395189.1,555848164570.9482,983423569657.214,12603337685018.531,250801232691459.22
4.61115701971576,6555145169034726.0,7764056790609862.0,451522551498551.3,475294104700902.0,591830412442.2828,1047086702703.0131,13419232348206.7,267036815912334.8
4.803380160110075,6685099649441990.0,7930222761230784.0,460473898427845.1,484716718060667.56,629252651531.5962,1113297843038.711,14267782013033.912,283922162792678.56
4.9994477633122765,6814635543533002.0,8096615978271504.0,469396412866606.4,494108980970302.1,668153916947.2482,1182126079389.1196,15149872129688.941,301474888775559.7
5.199436718578522,6943800815934437.0,8263310361592403.0,478293398648705.1,503474371202415.75,708574427970.8434,1253642597117.0972,16066415019839.834,319713143761915.2
5.403425452950093,7072639852894024.0,8430376319129663.0,487167913127001.7,512816107071987.25,750555604366.4216,1327920707162.575,17018350247586.557,338655619477547.44
5.611493962009095,7201193791607859.0,8597881131213580.0,496022789857623.25,522137171314918.9,794140084041.9548,1405035877377.9922,18006645021129.562,358321557450645.06
5.823723841249277,7329500809648887.0,8765889289937362.0,504860658535977.44,531440332073625.0,839371741948.8007,1485065766058.1946,19032294622565.152,378730757548305.06
6.040198318074262,7457596380168728.0,8934462800004411.0,513683962575219.7,540728161400963.75,886295710122.1422,1568090257493.2778,20096322863611.414,399903587028276.5
6.261002284435747,7585513497619118.0,9103661446432074.0,522494974654087.0,550003051626628.8,934958398779.739,1654191499398.4504,21199782565392.88,421860990068675.6
6.486222330124463,7713282877982750.0,9273543033631864.0,531295810508923.75,559267229875291.5,985407518408.1366,1743453942095.7158,22343756060680.805,444624497743705.6
6.715946776726952,7840933136882448.0,9444163599682454.0,540088441201959.7,568522770980767.6,1037692102775.4727,1835964379339.8584,23529355717211.188,468216238417945.2
6.950265712261491,7968490948426015.0,9615577609031888.0,548874704062638.06,577771609003388.0,1091862532818.1359,1931811990695.8152,24757724480889.77,492658948535439.25
7.18927102650672,8095981187220037.0,9787838126384266.0,557656312469615.0,587015547526992.8,1147970561355.6677,2031088385386.8364,26030036437850.53,517975983783018.8
7.433056447036854,8223427055632072.0,9960996974125566.0,566434864616671.9,596256268886339.6,1206069338593.9758,2133887647543.0713,27347497394468.37,544191330609870.44
7.681717575977592,8350850198086735.0,1.0135104875309948e+16,575211851385488.1,605495342454371.5,1266213438381.9763,2240306382789.163,28711345474536.35,571329618087632.6
7.935351927497144,8478270803931886.0,1.0310211583945138e+16,583988663431130.8,614734232100736.5,1328458885190.865,2350443766116.6484,30122851732914.75,599416130097163.2
8.194058966047088,8605707700203180.0,1.0486366004080326e+16,592766597571745.9,623974302917875.2,1392863181788.8545,2464401590993.249,31583320785038.508,628476817829717.5
8.45794014536803,8733178435438248.0,1.0663616298998722e+16,601546862561722.4,633216827298127.1,1459485337587.0957,2582284319666.5947,33094091451737.33,658538312591640.9
8.72709894827539,8860699355541582.0,1.0842009991647376e+16,610330584317318.2,642462990434482.2,1528385897635.1724,2704199134624.284,34656537418882.223,689627938902852.6
9.0016409272409,8988285672573370.0,1.1021594057291622e+16,619118810654875.9,651713895308247.9,1599626972246.6113,2830255991176.0693,36272067911420.11,721773727880288.9
9.281673745785717,9115951527226594.0,1.1202415009258152e+16,627912515594289.0,660970567219071.2,1673272267236.8289,2960567671127.3564,37942128381400.195,755004430898453.0
9.567307220701432,9243710045662274.0,1.1384518978523722e+16,636712603273844.0,670233957905908.9,1749387114757.332,3095249837515.791,39668201209633.94,789349533519779.6
9.85865336511546,9371573391293112.0,1.1567951787815906e+16,645519911517117.0,679504949301694.6,1828038504711.5066,3234421090385.3086,41451806420655.81,824839269688216.8
10.155826432417769,9499552812035266.0,1.1752759020813332e+16,654335215087697.2,688784356959420.2,1909295116738.3206,3378203023573.759,43294502410685.49,861504636179933.5
10.458942961066125,9627658683488564.0,1.193898608696405e+16,663159228663474.1,698072933183019.9,1993227352751.3293,3526720282492.299,45197886688305.35,899377407305445.4
10.768121820287448,9755900548453078.0,1.2126678282382628e+16,671992609558567.9,707371369892590.9,2079907370021.1086,3680100622875.882,47163596627593.945,938490149857887.5
11.083484256693197,9884287153144742.0,1.2315880847234058e+16,680835960217871.1,716680301250277.1,2169409114790.0095,3838474970485.5654,49193310233465.94,978876238302419.2
11.405153941827061,1.0012826480432622e+16,1.250663901996847e+16,689689830506462.6,726000306070207.4,2261808356408.6235,4001977481744.4287,51288746918986.9,1020569870202066.2
11.733257020663602,1.0141525780386654e+16,1.2698998088731016e+16,698554719813760.2,735331910033430.5,2357182721983.965,4170745605289.6753,53451668294439.63,1063606081875464.8
12.067922161076874,1.0270391598394548e+16,1.2893003440237448e+16,707431078990213.0,744675587726571.6,2455611731529.619,4344920144424.3687,55683878967930.234,1108020764282235.0
12.409280604298411,1.039942980107827e+16,1.3088700606374884e+16,716319312132462.6,754031764520973.1,2557176833608.701,4524645320452.779,57987227357328.98,1153850679131788.2
12.75746621638438,1.0528645600219896e+16,1.3286135308762052e+16,725219778231360.5,763400818307479.2,2661961441460.3667,4710068836884.017,60363606513349.32,1201133475211620.8
13.112615540712067,1.0658043574883442e+16,1.348535350147833e+16,734132792695738.1,772783081100431.1,2770050969601.4976,4901341944488.698,62814954953573.305,1249907704931078.0
13.474867851526309,1.0787627691902866e+16,1.3686401412151972e+16,743058628763637.6,782178840523185.9,2881532870894.5767,5098619507194.559,65343257507237.69,1300212841076938.0
13.844365208556836,1.091740132488956e+16,1.3889325581577796e+16,751997518811548.2,791588341186285.6,2996496674073.766,5302060068806.237,67950546170597.18,1352089293776926.5
14.221252512727972,1.1047367271897824e+16,1.4094172902020016e+16,760949655571225.8,801011785968354.8,3115034021720.7036,5511825920535.644,70638900972688.42,1405578427667655.5
14.605677562982532,1.1177527771876082e+16,1.4300990654340452e+16,769915193262856.1,810449337208893.0,3237238708682.125,5728083169329.122,73410450851319.67,1460722579263306.2
14.997791114242183,1.1307884520017518e+16,1.4509826544079882e+16,778894248652426.5,819901117821338.5,3363206720921.281,5951001806978.057,76267374539113.84,1517565074521578.8
15.397746936527026,1.143843868211641e+16,1.472072873660862e+16,787886902040583.4,829367212333976.1,3493036274795.3237,6180755779999.572,79211901459438.2,1576150246603417.2
15.805701875257567,1.1569190908025338e+16,1.4933745891452822e+16,796893198189590.0,838847667865697.4,3626827856751.0806,6417523060274.671,82246312632052.98,1636523453823125.0
16.221815912762718,1.1700141344301776e+16,1.514892719589279e+16,805913147194419.5,848342495042957.2,3764684263431.34,6661485716430.7295,85372941588320.11,1698731097785457.8
16.64625223101797,1.183128964612458e+16,1.5366322397922378e+16,814946725303570.9,857851668863807.8,3906710642184.6094,6912829985956.173,88594175295807.48,1762820641706464.5
17.079177275638333,1.1962634988554698e+16,1.5585981838650726e+16,823993875694729.5,867375129514376.5,4053014531970.5635,7171746348035.121,91912455092140.56,1828840628914785.0
17.5207608211511,1.209417607720818e+16,1.5807956484220734e+16,833054509209907.2,876912783142739.4,4203705904654.363,7438429597089.679,95330277627941.31,1896840701530220.5
17.97117603757412,1.2225911202209848e+16,1.6032297955879608e+16,842128508071011.0,886464505768010.1,4358897222128.11,7713078942633.149,98850195730194.17,1966871567935796.0
18.430599558325603,1.2357838072350946e+16,1.6259058565547348e+16,851215714459761.1,896030131267329.9,4518703416864.267,7995897982208.896,102474819715200.58,2038985226355042.8
18.899211549492115,1.248995408818112e+16,1.6488291342118434e+16,860315949323556.5,905609471159332.8,4683242026184.254,8287094929312.039,106206817832778.84,2113234678666157.2
19.37719578048196,1.2622256174615834e+16,1.6720050063674786e+16,869429000848628.5,915202302478783.1,4852633174047.369,8586882588497.64,110048917591616.03,2189674152377369.2
19.864739696091597,1.2754740833730872e+16,1.6954389287910748e+16,878554628095743.8,924808371601595.4,5026999629382.098,8895478457498.97,114003906659468.3,2268359069736177.5
20.36203449001343,1.2887404153079632e+16,1.7191364382421862e+16,887692561573102.6,934427394847892.0,5206466849571.674,9213104804786.371,118074633857698.4,2349346067409197.0
20.869275179813698,1.3020241813778e+16,1.743103155489578e+16,896842503793234.2,944059059068224.8,5391163024283.472,9539988747761.734,122264010163982.9,2432693016320281.5
21.38666068340997,1.3153249098393832e+16,1.7673447883244188e+16,906004129816430.0,953703022215612.0,5581219119637.399,9876362331579.932,126575009723076.27,2518459041643988.5
21.91439389707817,1.3286420898675254e+16,1.791867134571336e+16,915177087783058.0,963358913905885.5,5776768922707.851,10222462608589.648,131010670865541.58,2606704542952313.0
22.452681775019734,1.3419751723149332e+16,1.8166760851006644e+16,924360999436998.2,973026335968669.9,5977949086354.578,10578531718385.846,135574097134342.86,2697491214512542.0
23.00173541052013,1.3553235704622036e+16,1.8417776268451996e+16,933555460642201.5,982704862991150.5,6184899174378.191,10944816968468.254,140268458319233.38,2790882065734512.5
23.561770118730532,1.3686866607605568e+16,1.8671778458243396e+16,942760041894325.2,992394042856642.0,6397761706996.64,11321570915499.307,145096991498855.03,2886941441765522.5
24.133005521105144,1.3820637835700098e+16,1.8928829301784804e+16,951974288829169.9,1002093397279790.6,6616682206638.545,11709051447157.49,150063002090494.56,2985735044231450.5
24.715665631527248,1.3954542438952612e+16,1.9188991732161304e+16,961197722729573.8,1011802422340152.2,6841809244051.046,12107521864581.27,155169864907441.6,3087329952122865.5
25.309978944157795,1.408857312121513e+16,1.9452329764761932e+16,970429841032239.6,1021520589015711.8,7073294484718.749,12517250965400.236,160421025223905.8,3191794642824821.5
25.91617852304095,1.4222722247521884e+16,1.9718908528075612e+16,979670117835888.5,1031247343717779.8,7311292735592.011,12938513127351.428,165819999847458.72,3299199013289662.0
26.53450209350177,1.4356981851503896e+16,1.9988794294680024e+16,988918004411985.1,1040982108828613.8,7555961992122.2295,13371588392477.91,171370378198981.75,3409614401351968.0
27.165192135371807,1.4491343642857252e+16,2.026205451244193e+16,998172929719143.8,1050724283242907.2,7807463485602.818,13816762551909.352,177075823400099.2,3523113607184981.5
27.808495978079243,1.4625799014879828e+16,2.053875783594469e+16,1007434300922269.0,1060473242914245.6,8065961730814.385,14274327231222.969,182940073368091.4,3639770914898224.0
28.464665897640828,1.4760339052088988e+16,2.0818974158158276e+16,1016701503917268.9,1070228341407470.0,8331624573973.19,14744579976385.424,188966941918288.06,3759662114275916.0
29.133959215593645,1.4894954537932284e+16,2.1102774642363416e+16,1025973903862171.6,1079988910457734.4,8604623240982.227,15227824340275.55,195160319873948.56,3882864522655996.0
29.816638399905518,1.5029635962599906e+16,2.1390231754341104e+16,1035250845715253.4,1089754260536974.9,8885132385983.963,15724369969788.941,201524176183634.03,4009457006949568.5
30.51297116790363,1.5164373530947246e+16,2.1681419294836904e+16,1044531654780748.6,1099523681428352.4,9173330140214.38,16234532693524.396,208062559046084.66,4139520005800712.0
31.223230591261704,1.529915717053356e+16,2.1976412432305636e+16,1053815637262555.6,1109296442809093.8,9469398161157.492,16758634610053.88,214779597042618.28,4273135551886621.0
31.947695203086937,1.5433976539780902e+16,2.227528773594267e+16,1063102080826236.5,1119071794842101.5,9773521681999.797,17297004176776.072,221679500277051.62,4410387294357622.0
32.686649107148675,1.556882103625665e+16,2.257812320900362e+16,1072390255169509.8,1128848968776460.0,10085889561383.355,17849976299353.68,228766561523150.88,4551360521417115.0
33.44038208929165,1.5703679805080262e+16,2.288499832241428e+16,1081679412601322.9,1138627177557019.5,10406694333456.424,18417892421734.832,236045157379618.97,4696142183040868.0
34.20918973107749,1.583854174745377e+16,2.319599404866863e+16,1090968788629442.4,1148405616442894.0,10736132258219.346,19001100616755.973,243519749432589.7,4844820913834917.0
34.993373525699035,1.597339552931439e+16,2.351119289601213e+16,1100257602556434.6,1158183463634838.5,11074403372163.54,19599955677326.06,251194885425615.4,4997487056031393.0
35.793240996213015,1.6108229590104874e+16,2.3830678942905064e+16,1109545058083794.5,1167959880911175.8,11421711539200.256,20214819208186.953,259075200437106.03,5154232682620763.0
36.60910581613728,1.624303215165731e+16,2.41545378727574e+16,1118830343923845.4,1177734014271911.5,11778264501874.707,20846059718245.695,267165418065147.25,5315151620619054.0
37.44128793246003,1.6377791227183356e+16,2.4482857008926788e+16,1128112634419013.0,1187504994590610.0,12144273932860.7,21494052713472.39,275470351619633.34,5480339474467836.0
38.29011369110923,1.6512494630363678e+16,2.481572534996814e+16,1137391090167886.8,1197271938273424.5,12519955486729.498,22159180790354.848,283994905321590.5,5649893649564509.0
39.15591596493141,1.6647129984527296e+16,2.5153233605120684e+16,1146664858657532.8,1207033947924688.2,12905528851985.13,22841833729899.164,292744075509572.0,5823913375919731.0
40.03903428423004,1.6781684731912074e+16,2.5495474230018496e+16,1155933074901324.0,1216790113018337.8,13301217803357.887,23542408592164.836,301722951852958.0,6002499731938283.0
40.93981496991464,1.691614614299463e+16,2.584254146260741e+16,1165194862081624.5,1226539510574418.0,13707250254345.379,24261309811317.21,310936718571973.8,6185755668319108.0
41.85861126931294,1.7050501325879766e+16,2.6194531359251356e+16,1174449332196517.5,1236281205839864.0,14123858309990.188,24998949291182.277,320390655664200.2,6373786032069822.0
42.7957834946992,1.7184737235736956e+16,2.6551541831007844e+16,1183695586709792.8,1246014252972724.8,14551278319880.805,25755746501283.16,330090140137344.1,6566697590629898.0
43.751699164593184,1.7318840684272782e+16,2.6913672680054576e+16,1192932717203448.8,1255737695728985.0,14989750931362.035,26532128573335.504,340040647247972.94,6764599056096697.0
44.72673314788505,1.7452798349227772e+16,2.7281025636245428e+16,1202159806031794.2,1265450568151143.0,15439521142939.348,27328530398179.63,350247751745912.75,6967601109547688.0
