t(s),Total solute volume 1,Total retention volume 1,Total 1 volume 1,Total 2 volume 1,Total 3 volume 1,Total 4 volume 1,Total 5 volume 1,Total 6 volume 1
0.1,858476762157242.6,970941579421749.6,55300119698977.766,57164697565528.79,0.0,0.0,0.0,0.0
0.202,1293524876392909.2,1462986868834090.8,83324422683122.88,86133908270643.58,8454852.096135253,14546008.152854696,178772457.29437172,3459714095.1067276
0.30604000000000003,1624835514685591.2,1837706513095134.0,104666314274001.52,108195393681251.17,21452679.962907787,36907905.51388588,453603894.86536974,8778489809.958462
0.41216080000000005,1905071060549218.5,2154661551617329.5,122718124106619.61,126855864206398.69,38106537.92961964,65559760.00992368,805740083.6380662,15593348710.724056
0.5204040160000001,2153939657620480.5,2436141824582051.0,138749383001233.11,143427655998499.06,58022904.19734071,99824543.48721637,1226860193.3841062,23743254194.01108
0.6308120963200001,2381259113369659.0,2693251230736128.0,153392520342116.22,158564522339930.38,80990755.00726357,139339203.629513,1712502235.269889,33141852231.3818
0.7434283382464002,2592735274033862.0,2932443058939021.0,167015087115639.75,172646407093697.28,106889495.4637954,183896264.99215895,2260116293.893937,43739793770.81886
0.8582969050113283,2792023247424994.5,3157851225253451.5,179852532793311.06,185916698483430.66,135651137.12927958,233378758.0545757,2868264790.085586,55509257031.81993
0.9754628431115548,2981627670482892.5,3372308472053020.5,192066197470696.84,198542176578708.2,167241664.61601177,287728161.6767357,3536228486.7758045,68436322411.46344
1.094972099973786,3163352017800146.5,3577854533778313.5,203772254776978.25,210642932085338.47,201650717.45176524,346926651.4335595,4263788317.3647194,82516750158.2595
1.2168715419732616,3338545252963018.5,3776015098171909.5,215057600305849.03,222308790493406.44,238885390.70119262,410986433.995873,5051094303.12371,97753443507.01447
1.3412089728127268,3508247296793893.5,3967966329887122.0,225989222179279.72,233608998592413.1,278966280.2859445,479942943.3666484,5898581933.598882,114154830376.50182
1.4680331522689813,3673279769089967.5,4154637498712176.0,236620046318167.72,244598266829454.28,321924843.09015614,553850299.1182145,6806916347.463522,131733783094.5815
1.597393815314361,3834305204766453.0,4336777952538730.5,246992750942577.4,255320712424622.34,367801571.9617806,632778166.6036781,7776953743.912146,150506871588.74588
1.729341691620648,3991867158429388.0,4515002475276049.0,257142349970355.2,265812529875190.6,416644699.39128464,716809526.7226532,8809713972.654945,170493832917.64844
1.863928525453061,4146418223355771.5,4689822976052819.0,267097997903447.47,276103856698072.3,468509257.40563285,806039058.5317348,9906360655.893171,191717186569.9349
2.001207095962122,4298340131386799.0,4861671221998687.0,276884284593873.6,286220111851970.1,523456385.2797814,900571948.208574,11068186550.262037,214201951172.7065
2.1412312378813647,4447958503957798.5,5030915521510970.0,286522185454331.9,296182977986652.8,581552814.47314,1000523002.9197091,12296602656.099392,237975433722.31512
2.284055862638992,4595553894299727.0,5197873212873858.0,296029772758831.2,306011136726816.25,642870483.4066439,1106015988.070597,13593130072.123549,263067071947.2793
2.4297369798917723,4741370198431337.0,5362820177008564.0,305422757449879.44,315720828747614.8,707486249.4342295,1217183131.772153,14959393905.23401,289508316444.14294
2.578331719489608,4885621161371018.0,5525998196001719.0,314714908248372.6,325326287021029.06,775481675.1805652,1334164759.0142655,16397119169.379545,317332595680.3949
2.7298983538794,5028495479874974.0,5687620724011069.0,323918380345881.56,334840076569917.25,846942871.6274264,1457109014.6669648,17908125805.68348,346575042609.01074
2.884496320956988,5170160853430878.0,5847877469286203.0,333043976368728.2,344273364262863.06,921960388.5358226,1586171685.4928155,19494328852.260162,377272762799.2772
3.0421862473761276,5310767237164748.0,6006938072940986.0,342101355910268.1,353636135389904.44,1000629139.6346731,1721516064.4336102,21157735208.359688,409464595660.7234
3.2030299723236504,5450449479794565.0,6164955092535974.0,351099205461023.3,362937369327721.7,1083048358.4831824,1863312876.4229856,22900443113.751965,443191148311.55304
3.3670905717701234,5589329482909074.0,6322066444224922.0,360045377501983.8,372185183322803.4,1169321578.7732723,2011740244.4986691,24724641732.23894,478494787518.98596
3.5344323832055258,5727517983351733.0,6478397418640744.0,368947005319664.06,381386951177769.25,1259556635.2709205,2166983691.4226775,26632611171.56684,515419640084.302
3.7051210308696363,5865116035933906.0,6634062357859448.0,377810598517370.1,390549401983034.25,1353865682.300988,2329236171.4839325,28626722874.28442,554011600406.8405
3.879223451487029,6002216255700034.0,6789166060423048.0,386642123037663.44,399678702837427.75,1452365227.347758,2498698128.3065104,30709440328.21646,594318344233.5154
4.0568079205167695,6138903865637374.0,6943804966324811.0,395447068652205.06,408780528613612.56,1555176177.8539007,2675577575.364844,32883320056.00978,636389347809.2383
4.237944078927105,6275257585734492.0,7098068162564284.0,404230506231855.6,417860121159199.5,1662423899.6949453,2860090196.586064,35151012851.553566,680275911805.0789
4.422702960505647,6411350391729905.0,7252038241325747.0,412997136622647.8,426922339820677.6,1774238286.114222,3052459464.948837,37515265237.579956,726031189526.9564
4.61115701971576,6547250166107544.0,7405792036291215.0,421751332580672.3,435971704792248.75,1890753836.1458244,3252916777.4057164,39978921123.884125,773710219006.9015
4.803380160110075,6683020259430350.0,7559401257549470.0,430497174931261.25,445012434494197.7,2012109741.7459445,3461701604.7877703,42544923649.679375,823369958657.8647
4.9994477633122765,6818719976627099.0,7712933041630089.0,439238483893915.06,454048477954014.56,2138449983.007565,3679061655.6161766,45216317196.870605,875069326236.3335
5.199436718578522,6954405000118698.0,7866450430106032.0,447978846338634.1,463083542981751.1,2269923430.958676,3905253052.960716,47996249563.677505,928869240908.1688
5.403425452950093,7090127759512151.0,8020012787766884.0,456721639600338.1,472121120787388.25,2406683957.545878,4140540523.66036,50887974290.189445,984832668254.7712
5.611493962009095,7225937755871674.0,8173676169421919.0,465470052367297.06,481164507573578.0,2548890552.4890137,4385197599.365153,53894853129.206726,1043024668090.9684
5.823723841249277,7361881847198641.0,8327493642832655.0,474227103070762.2,490216823545323.44,2696707446.7618384,4639506828.977597,57020358657.18436,1103512444994.2705
6.040198318074262,7498004500639655.0,8481515574017881.0,482995656131345.9,499281029704147.6,2850304242.511269,4903760002.171442,60268077021.31704,1166365401468.911
6.261002284435747,7634348016039882.0,8635789880152546.0,491778436359560.8,508359942734175.7,3009856049.276413,5178258383.748768,63641710819.83247,1231655193687.7898
6.486222330124463,7770952724722228.0,8790362254449733.0,500578041760484.75,517456248238549.1,3175543626.409662,5463312958.667625,67145082113.42279,1299455789772.3718
6.715946776726952,7907857166768186.0,8945276366730425.0,509396954953585.2,526572512544289.2,3347553531.637211,5759244687.631734,70782135566.49115,1369843530584.8345
6.950265712261491,8045098249577821.0,9100574042822780.0,518237553386608.2,535711193260574.94,3526078275.726219,6066384773.186892,74556941717.52359,1442897193019.21
7.18927102650672,8182711390073235.0,9256295425464530.0,527102118495840.06,544874648747868.44,3711316483.2523756,6385074936.31247,78473700378.44835,1518698055788.7788
7.433056447036854,8320730642566079.0,9412479118994024.0,535992843942887.6,554065146632412.75,3903473059.4841104,6715667703.53624,82536744163.3315,1597329967716.4785
7.681717575977592,8459188814021760.0,9569162319789640.0,544911843039602.75,563284871481514.1,4102759363.419797,7058526704.635469,86750542147.17549,1678879418543.2073
7.935351927497144,8598117568212133.0,9726380934144554.0,553861155457238.4,572535931738898.4,4309393387.032481,7414026981.017188,91119703655.97047,1763435612276.2363
8.194058966047088,8737547520044095.0,9884169685033364.0,562842753302786.7,581820366005943.1,4523599940.792,7782555304.899047,95648982189.48416,1851090543106.4595
8.45794014536803,8877508321180911.0,1.0042562209033116e+16,571858546634385.6,591140148743046.5,4745610845.549719,8164510509.436067,100343279478.58144,1941939073929.2083
8.72709894827539,9018028737924772.0,1.0201591144494898e+16,580910388478262.1,600497195455717.9,4975665130.8832245,8560303829.962041,105207649679.1417,2036079017508.6301
9.0016409272409,9159136722206408.0,1.036128821192227e+16,590000079401641.0,609893367421691.1,5214009240.011442,8970359256.534527,110247303704.9026,2133611220330.6287
9.281673745785717,9300859476420250.0,1.0521684287391672e+16,599129371689190.6,619330476008172.9,5460897241.401008,9395113897.9922,115467613701.7915,2234639649194.0674
9.567307220701432,9443223512752148.0,1.0682809469746954e+16,608299973164719.4,628810286622404.5,5716591047.195818,9835018357.750843,120874117666.52751,2339271480593.958
9.85865336511546,9586254707568576.0,1.084469314221156e+16,617513550694734.8,638334522333354.9,5981360638.61124,10290537121.582146,126472524212.49196,2447617192954.7207
10.155826432417769,9729978351368060.0,1.1007364028984642e+16,626771733406156.4,647904867197921.8,6255484298.444065,10762148957.634153,132268717486.05573,2559790661775.2285
10.458942961066125,9874419194737478.0,1.1170850247321362e+16,636076115646644.5,657522969321069.9,6539248850.857856,11250347328.969372,138268762236.74704,2675909257751.0537
10.768121820287448,1.0019601490703984e+16,1.1335179355540488e+16,645428259712776.6,667190443676012.8,6832949908.612504,11755640818.909946,144478909044.8214,2796093947942.969
11.083484256693197,1.0165549033830406e+16,1.1500378397351796e+16,654829698368432.8,676908874707488.9,7136892127.915034,12278553569.49474,150905599709.98032,2920469400063.9937
11.405153941827061,1.0312285196362076e+16,1.1666473942852056e+16,664281937173254.4,686679818738749.1,7451389471.076357,12819625733.366583,157555472805.1505,3049164089960.9126
11.733257020663602,1.0459832961700324e+16,1.1833492126500878e+16,673786456638891.2,696504806200495.0,7776765477.1673765,13379413939.421873,164435369399.39792,3182310412369.065
12.067922161076874,1.0608214955447646e+16,1.2001458682353872e+16,683344714228820.5,706385343698128.2,8113353540.875513,13958491772.568377,171552338954.24585,3320044795022.8066
12.409280604298411,1.0757453474243934e+16,1.21703989768008e+16,692958146215883.9,716322915931925.2,8461497199.769956,14557450267.950378,178913645397.78842,3462507816206.9673
12.75746621638438,1.0907570512590284e+16,1.2340338039031702e+16,702628169410179.8,726318987483182.2,8821550430.19265,15176898420.013699,186526773381.1945,3609844325838.0083
13.112615540712067,1.1058587787836668e+16,1.2511300589430024e+16,712356182768680.1,736375004478110.9,9193877951.998783,15817463706.79604,194399434722.33304,3762203570166.389
13.474867851526309,1.1210526763491776e+16,1.2683311066071972e+16,722143568896779.2,746492396140007.6,9578855542.378904,16479792629.84179,202539575041.42657,3919739320195.3174
13.844365208556836,1.1363408670998036e+16,1.2856393649494354e+16,731991695450962.9,756672576239222.1,9976870359.002193,17164551270.153902,210955380593.79507,4082610003913.633
14.221252512727972,1.1517254530100548e+16,1.3030572285875834e+16,741901916450897.9,766916944449495.9,10388321272.728165,17872425860.607136,219655285304.92914,4250978842444.292
14.605677562982532,1.1672085167926024e+16,1.3205870708763646e+16,751875573508440.4,777226887618383.6,10813619210.142021,18604123375.26323,228647978013.27335,4425013990212.563
14.997791114242183,1.1827921236876958e+16,1.338231245946492e+16,761913996980314.2,787603780958823.6,11253187506.176537,19360372136.039257,237942409926.2927,4604888679241.753
15.397746936527026,1.198478323143682e+16,1.3559920906210324e+16,772018507050642.0,798048989168164.6,11707462267.09149,20141922437.19579,247547802295.54498,4790781367687.291
15.805701875257567,1.2142691503972032e+16,1.3738719262188248e+16,782190414748849.2,808563867480375.4,12176892744.089449,20949547188.12435,257473654316.65616,4982875892723.011
16.221815912762718,1.2301666279609768e+16,1.391873060253805e+16,792431022908058.2,819149762656760.4,12661941717.855215,21784042574.928673,267729751260.26773,5181361627897.423
16.64625223101797,1.2461727670262942e+16,1.4099977880383886e+16,802741627068510.2,829808013919857.0,13163085894.313162,22646228741.306652,278326172840.1983,5386433645080.481
17.079177275638333,1.2622895687867148e+16,1.4282483941982028e+16,813123516330253.5,840539953834852.8,13680816311.907541,23536950489.255672,289273301825.2327,5598292881125.006
17.5207608211511,1.2785190256888826e+16,1.4466271541049236e+16,823577974158868.6,851346909142499.8,14215638760.715591,24457078000.137497,300581832901.13403,5817146309370.283
17.97117603757412,1.2948631226158606e+16,1.465136335233311e+16,834106279147750.5,862230201547068.8,14768074213.715225,25407507576.653194,312262781789.6423,6043207116118.887
18.430599558325603,1.3113238380078754e+16,1.4837781984479966e+16,844709705740027.2,873191148462646.8,15338659270.534687,26389162406.294662,324327494631.4132,6276694882220.978
18.899211549492115,1.3279031449249426e+16,1.5025549992250706e+16,855389524913087.2,884231063720708.2,15927946614.022041,27402993346.849804,336787657640.0129,6517835769903.94
19.37719578048196,1.3446030120553934e+16,1.521468988813107e+16,866147004828228.4,895351258241694.4,16536505479.979256,28449979734.5595,349655307034.285,6766862714988.654
19.864739696091597,1.3614254046740072e+16,1.5405224153377192e+16,876983411447856.1,906553040673008.0,17164922140.414995,29531130215.53153,362942839256.56085,7024015624637.139
20.36203449001343,1.3783722855530048e+16,1.5597175248534278e+16,887900009122308.0,917837717995638.1,17813800400.67825,30647483601.036133,376663021484.3603,7289541580779.31
20.869275179813698,1.3954456158288546e+16,1.5790565623461784e+16,898898061148233.9,929206596101345.8,18483762110.84176,31800109747.318882,390829002443.4173,7563695049370.366
21.38666068340997,1.4126473558275006e+16,1.598541772689468e+16,909978830300169.1,940660980342177.4,19175447691.71391,32990110460.580414,405454323530.0035,7846738095633.057
21.91439389707817,1.4299794658502476e+16,1.6181754015565792e+16,921143579336775.8,952202176053769.0,19889516675.86312,34218620427.784534,420552930250.6698,8138940605441.891
22.452681775019734,1.4474439069221906e+16,1.6379596962911986e+16,932393571482955.1,963831489053723.1,20626648264.04502,35486808173.96789,436139183987.6977,8440580513009.344
23.00173541052013,1.4650426415047686e+16,1.6578969067380708e+16,943730070888854.6,975550226116067.8,21387541897.43078,36795877046.73352,452227874098.6266,8751944035036.299
23.561770118730532,1.4827776341735654e+16,1.6779892860350688e+16,955154343066476.6,987359695422618.4,22172917846.036594,38147066228.61836,468834230358.3538,9073325911490.457
24.133005521105144,1.5006508522621086e+16,1.6982390913675672e+16,966667655304393.9,999261206991653.4,22983517813.759396,39541651778.0321,485973935752.34955,9405029653178.55
24.715665631527248,1.5186642664720204e+16,1.7186485846854398e+16,978271277060799.1,1011256073084223.6,23820105560.424744,40980947699.46443,503663139629.5983,9747367796277.682
25.309978944157795,1.5368198514493536e+16,1.739220033382597e+16,989966480334742.1,1023345608587906.4,24683467541.25369,42466307043.66092,521918471223.8178,10100662163992.85
25.91617852304095,1.55511958632643e+16,1.7599557109382734e+16,1001754540015173.1,1035531131377619.2,25574413564.15106,43999123038.460915,540757053551.51495,10465244135504.1
26.53450209350177,1.5735654552279744e+16,1.7808578975187114e+16,1013636734206975.9,1047813962652642.1,26493777465.21315,45580830250.98111,560196517695.2611,10841454922367.03
27.165192135371807,1.5921594477396776e+16,1.801928880537178e+16,1025614344532800.0,1060195427248631.1,27442417802.844833,47212905781.81637,580255017480.44,11229645852525.12
27.808495978079243,1.6109035593366934e+16,1.8231709551694664e+16,1037688656409086.5,1072676853922940.0,28421218570.861626,48896870491.903175,600951244553.4154,11630178662087.87
28.464665897640828,1.6297997917687772e+16,1.844586424821211e+16,1049860959294150.4,1085259575611082.0,29431089930.937763,50634290262.669044,622304443868.7433,12043425795021.988
29.133959215593645,1.6488501533980532e+16,1.8661776015424692e+16,1062132546905769.5,1097944929651647.2,30472968964.738148,52426777290.04527,644334429592.5581,12469770710893.533
29.816638399905518,1.66805665948444e+16,1.8879468063839896e+16,1074504717405045.2,1110734257976356.6,31547820446.044693,54275991412.8823,667061601428.7346,12909608200788.3
30.51297116790363,1.6874213324129898e+16,1.90989636968862e+16,1086978773542836.6,1123628907261443.6,32656637633.155846,56183641476.24263,690506961373.6832,13363344711523.662
31.223230591261704,1.7069462018562404e+16,1.932028631310152e+16,1099556022764351.4,1136630229035771.0,33800443081.79591,58151486729.98203,714692130904.7859,13831398678248.822
31.947695203086937,1.7266333048638338e+16,1.954345940750754e+16,1112237777266874.4,1149739579740493.0,34980289478.72439,60181338262.9437,739639368606.5248,14314200865511.248
32.686649107148675,1.746484685870441e+16,1.9768506572069628e+16,1125025354004866.1,1162958320734336.5,36197260496.17966,62275060472.99913,765371588237.0948,14812194716843.277
33.44038208929165,1.7665023966120426e+16,1.9995451495128704e+16,1137920074636037.0,1176287818237857.2,37452471667.22759,64434572573.054,791912377237.0256,15325836712898.504
34.20918973107749,1.7866884959394136e+16,2.022431795967981e+16,1150923265401202.0,1189729443209239.0,38747071282.01046,66661850133.01462,819286015679.7074,15855596738135.088
34.993373525699035,1.8070450495166052e+16,2.045512984035919e+16,1164036256930051.2,1203284571143508.0,40082241304.81104,68958926657.56557,847517495662.0181,16401958456011.258
35.793240996213015,1.827574129391015e+16,2.0687911098987852e+16,1177260383964208.8,1216954581786269.0,41459198311.750725,71327895199.44933,876632541131.2054,16965419692618.75
36.60910581613728,1.848277813420726e+16,2.092268577850913e+16,1190596984988326.2,1230740858752350.0,42879194448.83998,73770910007.76135,906657628142.1,17546492828638.66
37.44128793246003,1.8691581845434884e+16,2.115947799514477e+16,1204047401759214.2,1244644789039059.8,44343518409.98226,76290188210.57607,937620005536.1987,18145705199456.113
38.29011369110923,1.8902173298711024e+16,2.1398311928583804e+16,1217612978722446.0,1258667762423117.2,45853496434.409096,78888011531.003,969547716031.5796,18763599503220.367
39.15591596493141,1.9114573395917828e+16,2.1639211810008588e+16,1231295062305323.0,1272811170729777.2,47410493322.888695,81566728035.54599,1002469617709.7533,19400734216580.734
40.03903428423004,1.9328803056626016e+16,2.188220190775377e+16,1245095000074574.0,1287076406962129.5,49015913471.90336,84328753913.37602,1036415405882.4161,20057684017769.016
40.93981496991464,1.9544883202733004e+16,2.2127306510387196e+16,1259014139746800.2,1301464864278193.8,50671201924.83401,87176575284.86566,1071415635317.8145,20735040216635.207
41.85861126931294,1.9762834740625224e+16,2.237454990699724e+16,1273053828039434.0,1315977934803113.8,52377845439.0258,90112750037.45049,1107501742802.8484,21433411191175.047
42.7957834946992,1.9982678540670932e+16,2.2623956364467636e+16,1287215409349744.8,1330617008263621.8,54137373567.4329,93139909686.57031,1144706070013.425,22153422830017.137
43.751699164593184,2.020443541385111e+16,2.287555010152043e+16,1301500224249463.0,1345383470431918.0,55951359753.35387,96260761259.13878,1183061886661.605,22895718980260.47
44.72673314788505,2.042812608533646e+16,2.312935525931087e+16,1315909607782716.0,1360278701366224.5,57821422436.58245,99478089196.65253,1222603413884.0999,23660961899977.1
