t(s),Total solute volume 1,Total retention volume 1,Total 1 volume 1,Total 2 volume 1,Total 3 volume 1,Total 4 volume 1,Total 5 volume 1,Total 6 volume 1
0.1,1090211262672958.4,1436790320131653.8,152346489675587.4,194232567783107.2,0.0,0.0,0.0,0.0
0.202,1641586238947273.8,2163906097383302.8,229395816150389.84,292465807869297.4,348904882.2844948,828850100.8592552,16523982943.059986,440532678413.575
0.30604000000000003,2061559820631935.0,2718094026716465.5,288083066627645.56,367288507568745.1,885083014.6438338,2102583606.9157355,41918016740.87917,1117726204773.739
0.41216080000000005,2416695578563129.0,3187030102666622.5,337709857605240.6,430559668413724.3,1571918524.1007345,3734216034.867123,74447550922.30905,1985244399047.8462
0.5204040160000001,2731974560694772.0,3603615465775629.5,381767049229606.44,486729926440699.25,2393129929.5257306,5685069387.699148,113341417727.89359,3022509793502.3613
0.6308120963200001,3019848817910901.0,3984249178724536.5,421994695316419.6,538017745206104.5,3339963290.6942067,7934347995.164994,158184999311.3324,4218460980510.9644
0.7434283382464002,3287556873144849.0,4338464293727033.0,459404309513287.0,585712743525971.4,4407394304.846883,10470116253.264782,208740328850.01703,5566749703518.199
0.8582969050113283,3539736072372390.5,4672368620089916.0,494643916117298.9,630641113241240.6,5592567474.837821,13285590735.556923,264872161486.24402,7063768039288.946
0.9754628431115548,3779564114061190.0,4990148135783169.0,528157567788057.2,673368994672487.1,6894026919.687543,16377312919.804329,326511542383.5275,8707676379204.043
1.094972099973786,4009328929485890.0,5294817473191483.0,560264980816227.25,714304006778996.9,8311290298.249452,19744137008.787415,393635626257.23016,10497865056801.324
1.2168715419732616,4230741583688091.5,5588631954972366.0,591205260009748.2,753750993748282.0,9844592704.339191,23386621532.457153,466255547436.7209,12434630764575.973
1.3412089728127268,4445120842692800.0,5873330620522924.0,621162690179171.6,791944907582296.1,11494723200.91057,27306641021.774395,544408677643.33966,14518970026791.344
1.4680331522689813,4653508317961123.0,6150287831441614.0,650282826462497.0,829071322289793.5,13262915616.11993,31507126586.107883,628153453788.9774,16752441232207.596
1.597393815314361,4856743614196815.0,6420612209572337.0,678682995505078.9,865279822256481.2,15150772968.895529,35991886380.26681,717565798571.1238,19137069156035.5
1.729341691620648,5055515227647531.0,6685213645273545.0,706459408005487.2,900693070311387.8,17160213709.485928,40765477894.7932,812736574288.9037,21675277043244.25
1.863928525453061,5250396108339851.0,6944850113584514.0,733692128194272.2,935413143512127.2,19293432655.355022,45833115156.246994,913769732671.8965,24369837257765.906
2.001207095962122,5441869172549670.0,7200161259228253.0,760448638955185.4,969526078459118.4,21552872146.988865,51200600205.72704,1020780948751.715,27223834843167.81
2.1412312378813647,5630346026775558.0,7451693044648187.0,786786458319581.1,1003105207167898.1,23941200508.63576,56874271930.858315,1133896600714.581,30240640311982.582
2.284055862638992,5816180984349161.0,7699916201234516.0,812755098152279.2,1036213654275293.4,26461295856.993492,62860967602.27009,1253253003046.5527,33423889191266.73
2.4297369798917723,5999681742222670.0,7945240284250759.0,838397556129467.9,1068906239221108.9,29116233909.23604,69167993910.83704,1378995829097.7703,36777466620600.41
2.578331719489608,6181117639920343.0,8188024545298243.0,863751469847379.6,1101230947666996.2,31909278839.64134,75803105247.1291,1511279678036.137,40305495801410.59
2.7298983538794,6360726136500434.0,8428586459402419.0,888850021915141.1,1133230085435147.8,34843876501.055115,82774487598.73299,1650267753805.7188,44012329433791.71
2.884496320956988,6538717952971092.0,8667208495749727.0,913722658557707.8,1164941194683648.0,37923649510.69089,90090746876.46587,1796131632384.774,47902543508526.35
3.0421862473761276,6715281200765588.0,8904143554112160.0,938395666530407.4,1196397789437654.8,41152393828.13436,97760900785.45676,1949051099718.4902,51980932984190.58
3.2030299723236504,6890584729769827.0,9139619374310882.0,962892640973407.2,1227629952075582.0,44534076544.99135,105794373574.59665,2109214047038.2466,56252508994902.34
3.3670905717701234,7064780868477712.0,9373842145875650.0,987234868321977.8,1258664821516567.5,48072834672.00638,114200993155.58083,2276816413423.805,60722497318155.37
3.5344323832055258,7238007685550363.0,9606999488055464.0,1011441642337534.5,1289526996140952.8,51772974758.34374,122990990198.83015,2452062167778.961,65396337893900.22
3.7051210308696363,7410390870814468.0,9839262929211614.0,1035530526958970.4,1320238868909860.8,55638973214.16459,132174998900.1739,2635163324117.297,70279685232082.836
3.879223451487029,7582045310885731.0,1.0070789984548024e+16,1059517576480832.1,1350820908079060.5,59675477235.16771,141764059177.5573,2826339985358.7324,75378409580624.25
4.0568079205167695,7753076417681211.0,1.030172590885922e+16,1083417521200070.5,1381291893887367.2,63887306248.7846,151769620107.00668,3025820411833.206,80698598752395.17
4.237944078927105,7923581255405660.0,1.0532205184288194e+16,1107243924901491.4,1411669119341085.5,68279453817.962,162203544445.64758,3233841111457.242,86246560530245.16
4.422702960505647,8093649501994635.0,1.076235279044833e+16,1131009319210153.0,1441968561505172.8,72857089951.12149,173078114119.65076,3450646949148.3823,92028825585149.55
4.61115701971576,8263364273654494.0,1.0992285294599992e+16,1154725318812844.8,1472205028403708.5,77625563776.84619,184406036578.6425,3676491273514.506,98052150855105.22
4.803380160110075,8432802835469558.0,1.1222111792110272e+16,1178402720758593.5,1502392285621992.2,82590406549.75397,196200451936.89688,3911636059229.35,104323523342411.66
4.9994477633122765,8602037216633763.0,1.1451934721616166e+16,1202051590431323.8,1532543165916535.0,87757334960.33655,208474940836.651,4156352063805.1865,110850164294947.28
5.199436718578522,8771134745398637.0,1.1681850574752904e+16,1225681336303691.2,1562669664521649.5,93132254726.6485,221243532981.00262,4410918997715.048,117639533743505.58
5.403425452950093,8940158516090535.0,1.191195051670244e+16,1249300775198201.8,1592783022353456.0,98721264449.8655,234520716293.6807,4675625707013.117,124699335372479.11
5.611493962009095,9109167798366838.0,1.2142320930946456e+16,1272918189476828.8,1622893798923186.2,104530659719.12126,248321446671.02136,4950770367762.101,132037521705456.36
5.823723841249277,9278218397131544.0,1.237304389930549e+16,1296541377335750.0,1653011936459911.5,110566937453.81471,262661158298.1144,5236660691708.418,139662299590822.06
6.040198318074262,9447362970118694.0,1.2604197626487664e+16,1320177697184527.2,1683146816491355.5,116836800473.88885,277555774506.5426,5533614142755.579,147582135975358.66
6.261002284435747,9616651309005812.0,1.2835856816863672e+16,1343834106929029.2,1713307309927214.5,123347162290.51045,293021719155.7262,5841958163876.683,155805763956285.06
6.486222330124463,9786130588984480.0,1.3068093009952742e+16,1367517198846491.2,1743501821522768.0,130105152111.17926,309075928523.7183,6162030414183.822,164342189104197.06
6.715946776726952,9955845590947410.0,1.3300974880096062e+16,1391233230634015.2,1773738329463841.5,137118120054.6678,325735863696.49194,6494179015936.3955,173200696051093.88
6.950265712261491,1.0125838899818196e+16,1.353456850495921e+16,1414988153123228.0,1804024420701313.0,144393642572.33868,343019523447.5348,6838762811324.753,182390855339136.34
7.18927102650672,1.0296151082025246e+16,1.376893760681743e+16,1438787635080579.2,1834367322569998.2,151939528073.36798,360945457601.8866,7196151628912.2295,191922530527009.78
7.433056447036854,1.046682084468551e+16,1.4004143770001134e+16,1462637085451673.0,1864773931148825.8,159763822752.24353,379532780880.74164,7566726559658.475,201805885551841.66
7.681717575977592,1.0637885178696216e+16,1.4240246637399332e+16,1486541673357027.5,1895250836754238.8,167874816617.63934,398801187224.4732,7950880242481.391,212051392345529.03
7.935351927497144,1.0809379487629644e+16,1.4477304088516272e+16,1510506346103794.8,1925804346904040.0,176281049722.38654,418770964593.43524,8349017159344.539,222669838705134.97
8.194058966047088,1.098133770406364e+16,1.471537240123493e+16,1534535845441898.8,1956440507042974.8,184991318594.8117,439463010247.1796,8761553939882.93,233672336417689.12
8.45794014536803,1.1153792394765334e+16,1.4954506399155364e+16,1558634722262409.2,1987165119282275.5,194014682872.18677,460898846503.8564,9188919675602.652,245070329640344.5
8.72709894827539,1.1326774855957782e+16,1.5194759586130482e+16,1582807349910115.8,2017983759372405.5,203360472137.46783,483100636982.5955,9631556243709.71,256875603537365.88
9.0016409272409,1.150031519974124e+16,1.543618426941414e+16,1607057936260112.2,2048901792099958.8,213038292960.8486,506091203332.5098,10089918640640.996,269100293175893.22
9.281673745785717,1.167444243260695e+16,1.567883167265872e+16,1631390534689294.5,2079924385275656.5,223058036148.0052,529894042452.7617,10564475325385.723,281756892682846.2
9.567307220701432,1.1849184526863156e+16,1.592275203984713e+16,1655809054057494.8,2111056522459702.5,233429884197.18738,554533344208.8356,11055708572700.184,294858264665690.06
9.85865336511546,1.2024568485695334e+16,1.616799473111232e+16,1680317267798998.0,2142303014552895.8,244164318967.57684,580034009650.75,11564114836329.775,308417649900135.25
10.155826432417769,1.2200620402495026e+16,1.6414608311284678e+16,1704918822213167.5,2173668510366701.0,255272129561.57535,606421669739.5608,12090205122365.197,322448677288130.25
10.458942961066125,1.2377365515017894e+16,1.6662640631910164e+16,1729617244032528.5,2205157506272096.5,266764420423.88663,633722704588.9268,12634505372867.705,336965374089752.7
10.768121820287448,1.2554828254867262e+16,1.6912138907396066e+16,1754415947337593.8,2236774355015532.5,278652619660.4506,661964263229.0688,13197556859909.625,351982176432909.3
11.083484256693197,1.2733032292741854e+16,1.716314978586862e+16,1779318239879838.0,2268523273780367.0,290948487580.47455,691174283900.7516,13779916590182.348,367513940104883.0
11.405153941827061,1.2912000579839966e+16,1.7415719415261586e+16,1804327328867471.0,2300408351563373.5,303664125464.9429,721381514887.4016,14382157720333.46,383575951630062.5
11.733257020663602,1.3091755385766044e+16,1.7669893505098798e+16,1829446326262565.8,2332433555928242.5,316811984565.14624,752615535893.7351,15004869983199.969,400183939638298.1
12.067922161076874,1.3272318333251386e+16,1.79257173843847e+16,1854678253632912.5,2364602739191458.0,330404875334.91284,784906779979.6423,15648660125111.99,417354086528526.4
12.409280604298411,1.3453710429965858e+16,1.818323605597297e+16,1880026046597424.5,2396919644089803.5,344455976900.302,818286556058.3118,16314152354446.256,435103040432464.25
12.75746621638438,1.363595209766882e+16,1.8442494247746196e+16,1905492558899668.5,2429387908974014.0,358978846770.68823,852787071967.8784,17001988801614.264,453447927483294.2
13.112615540712067,1.3819063198922376e+16,1.8703536460905096e+16,1931080566140802.2,2462011072567944.0,373987430795.2227,888441458126.1149,17712829990674.848,472406364394390.0
13.474867851526309,1.4003063061566936e+16,1.8966407015637096e+16,1956792769199793.8,2494792578329171.0,389496073368.7729,925283791777.8433,18447355322764.703,491996471353289.5
13.844365208556836,1.4187970501139528e+16,1.9231150094406204e+16,1982631797366178.2,2527735778443066.5,405519527891.50104,963349121845.0785,19206263571545.62,512236885236143.8
14.221252512727972,1.437380384139745e+16,1.949780978308547e+16,2008600211207989.2,2560843937479257.5,422072967486.3601,1002673494389.9412,19990273390869.074,533146773148073.25
14.605677562982532,1.4560580933093302e+16,1.9766430110129796e+16,2034700505195458.5,2594120235736656.0,439171995978.8085,1043293978700.6523,20800123834864.004,554745846294862.1
14.997791114242183,1.4748319171135514e+16,2.0037055083970616e+16,2060935110098991.8,2627567772300736.0,456832659143.1472,1085248694011.0383,21636574890654.574,577054374191541.8
15.397746936527026,1.493703551025328e+16,2.03097287287964e+16,2087306395178183.0,2661189567834425.5,475071456219.90106,1128576836864.061,22500408023920.266,600093199213497.8
15.805701875257567,1.5126746479275684e+16,2.0584495118869064e+16,2113816670177212.8,2694988567122089.0,493905351708.7595,1173318709130.1536,23392426737508.59,623883751495759.8
16.221815912762718,1.5317468194124034e+16,2.086139841151238e+16,2140468187140402.2,2728967641384240.5,513351787441.60095,1219515746690.9841,24313457143318.234,648448064186207.9
16.64625223101797,1.5509216369607986e+16,2.114048287889765e+16,2167263142060577.5,2763129590379152.0,533428694940.1581,1267210548799.6904,25264348547666.902,673808789058499.2
17.079177275638333,1.5702006330106818e+16,2.142179293874135e+16,2194203676371691.0,2797477144305804.5,554154508062.9707,1316446908128.41,26245974050364.01,699989212490504.0
17.5207608211511,1.5895853019211596e+16,2.170537318401901e+16,2221291878296242.5,2832012965521800.5,575548175946.202,1367269841514.1494,27259231157706.73,727013271814153.0
17.97117603757412,1.6090771008397018e+16,2.1991268411792096e+16,2248529784057034.2,2866739650088286.0,597629176243.0107,1419725621414.0803,28305042409619.56,754905572042502.5
18.430599558325603,1.6286774504784554e+16,2.2279523651237588e+16,2275919378962055.0,2901659729153078.5,620417528666.126,1473861808081.2695,29384356021159.586,783691402979986.4
18.899211549492115,1.64838773580561e+16,2.2570184190960628e+16,2303462598370544.5,2936775670182358.5,643933808838.2817,1529727282472.022,30498146538606.992,813396756721729.8
19.37719578048196,1.6682093066569358e+16,2.2863295605667748e+16,2331161328547595.0,2972089878050256.0,668199162455.1946,1587372279895.8975,31647415510364.438,844048345547798.0
19.864739696091597,1.6881434782724798e+16,2.3158903782269308e+16,2359017407414116.0,3007604695994961.0,693235319765.7601,1646848424419.5059,32833192172884.547,875673620218342.6
20.36203449001343,1.7081915317628166e+16,2.345705494547769e+16,2387032625198364.5,3043322406449437.0,719064610374.0977,1708208764035.1255,34056534151846.86,908300788675490.0
20.869275179813698,1.728354714509003e+16,2.3757795682960524e+16,2415208724994884.0,3079245231753995.0,745709978368.0812,1771507806605.218,35318528178804.69,941958835157819.0
21.38666068340997,1.748634240500096e+16,2.4061172970105828e+16,2443547403236094.5,3115375334757583.0,773194997778.9873,1836801556593.7227,36620290823518.945,976677539733308.8
21.91439389707817,1.7690312906116846e+16,2.436723419445214e+16,2472050310081566.5,3151714819314026.5,801543888376.8213,1904147552595.1,37962969242198.27,1012487498256508.6
22.452681775019734,1.7895470128287806e+16,2.4676027179831456e+16,2500719049729448.5,3188265730679161.0,830781531805.8585,1973604905671.8474,39347741941857.05,1049420142755679.0
23.00173541052013,1.8101825224160744e+16,2.4987600210272428e+16,2529555180654415.5,3225030055814109.5,860933488064.8909,2045234338511.2517,40775819561009.9,1087507762255584.2
23.561770118730532,1.830938902038407e+16,2.530200205370627e+16,2558560215775991.0,3262009723599971.5,892026012336.6659,2119098225411.8489,42248445666907.26,1126783524041584.0
24.133005521105144,1.851817201834092e+16,2.5619281985515668e+16,2587735622561036.5,3299206604968419.5,924086072170.7942,2195260633110.096,43766897569524.516,1167281495370502.0
24.715665631527248,1.872818439443583e+16,2.5939489811966148e+16,2617082823063784.0,3336622512952776.5,957141365024.5718,2273787362457.466,45332487152506.85,1209036665633796.0
25.309978944157795,1.893943599995752e+16,2.6262675893554536e+16,2646603193906674.0,3374259202663596.5,991220336165.831,2354745990958.0527,46946561721270.766,1252084968978340.0
25.91617852304095,1.915193636054056e+16,2.658889116831001e+16,2676298066205114.0,3412118371192690.0,1026352196942.0616,2438205916176.5156,48610504868460.86,1296463307390076.8
26.53450209350177,1.9365694675245056e+16,2.6918187175079336e+16,2706168725438909.5,3450201657449252.0,1062566943419.7837,2524238400026.2188,50325737356952.83,1342209574245689.2
27.165192135371807,1.958071981527535e+16,2.7250616076827244e+16,2736216411273166.0,3488510641931498.0,1099895375398.2231,2612916613946.6426,52093718020591.1,1389362678337304.2
27.808495978079243,1.979702032235458e+16,2.758623068398157e+16,2766442317331197.5,3527046846437139.0,1138369115801.037,2704315684979.619,53915944682844.74,1437962568375036.2
28.464665897640828,2.0014604406773964e+16,2.792508447785053e+16,2796847590921892.5,3565811733715789.5,1178020630449.916,2798512742752.9766,55793955093557.516,1488050257972180.5
29.133959215593645,2.02334799451321e+16,2.8267231634139256e+16,2827433332723838.0,3604806707066274.5,1218883248223.6003,2895586967380.3457,57729327883963.93,1539667851117537.0
29.816638399905518,2.0453654477781924e+16,2.861272704659141e+16,2858200596428507.5,3644033109881646.5,1260991181605.8457,2995619638285.3667,59723683540136.59,1592858568139293.2
30.51297116790363,2.067513520599834e+16,2.8961626350778868e+16,2889150388344546.0,3683492225144751.5,1304379547625.5652,3098694183958.173,61778685395021.88,1647666772164620.0
31.223230591261704,2.089792898888376e+16,2.9313985948065828e+16,2920283666965251.0,3723185274876728.5,1349084389192.4756,3204896232651.7686,63896040639216.25,1704137996079043.8
31.947695203086937,2.112204234002371e+16,2.966986302976711e+16,2951601342501281.0,3763113419541316.5,1395142696831.103,3314313664025.474,66077501350624.02,1762318969989311.0
32.686649107148675,2.13474814239076e+16,3.002931560152429e+16,2983104276380520.0,3803277757407113.0,1442592430816.0942,3427036661742.179,68324865543134.01,1822257649193366.5
33.44038208929165,2.1574252052127556e+16,3.039240250792064e+16,3014793280716831.5,3843679323870339.0,1491472543711.4326,3543157767025.778,70639978234439.69,1884003242660774.8
34.20918973107749,2.180235967936825e+16,3.0759183457354692e+16,3046669117749720.0,3884319090740446.5,1541823003316.0671,3662771933184.6353,73024732533120.33,1947606242026645.2
34.993373525699035,2.203180939920133e+16,3.1129719047192812e+16,3078732499256654.5,3925197965490780.0,1593684816018.198,3785976581106.6123,75481070745092.39,2013118451101847.8
35.793240996213015,2.2262605939695812e+16,3.1504070789220108e+16,3110984085939619.0,3966316790476614.5,1647100050560.28,3912871655730.3306,78010985499526.33,2080593015902217.5
36.60910581613728,2.2494753658858692e+16,3.1882301135408224e+16,3143424486787997.5,4007676342122705.5,1702111862216.5796,4043559683497.3496,80616520894318.83,2150084455198784.8
37.44128793246003,2.2728256539915716e+16,3.2264473504018036e+16,3176054258419140.5,4049277330082661.0,1758764517384.8804,4178145830788.875,83299773661194.95,2221648691591161.5
38.29011369110923,2.296311818644656e+16,3.2650652306055416e+16,3208873904398531.0,4091120396372183.0,1817103418593.7383,4316737963350.3994,86062894350505.33,2295343083105657.0
39.15591596493141,2.3199341817385816e+16,3.304090297209713e+16,3241883874541184.0,4133206114478338.0,1877175129926.351,4459446706706.9,88908088535773.56,2371226455319375.5
40.03903428423004,2.3436930261900964e+16,3.343529197950392e+16,3275084564195949.5,4175534988447150.5,1939027402861.9087,4606385507570.681,91837618038029.44,2449359134011421.5
40.93981496991464,2.3675885954160456e+16,3.3833886880036556e+16,3308476313514406.0,4218107451951422.0,2002709202535.0215,4757670696243.19,94853802169962.39,2529802978341524.0
41.85861126931294,2.3916210928003704e+16,3.42367563278917e+16,3342059406705951.5,4260923867341093.5,2068270734413.4934,4913421550011.622,97959018999901.58,2612621414556638.5
42.7957834946992,2.415790681152365e+16,3.4643970108172292e+16,3375834071280895.5,4303984524678170.5,2135763471394.4468,5073760357540.331,101155706635629.92,2697879470225061.5
43.751699164593184,2.440097482157542e+16,3.505559916580787e+16,3409800477282989.0,4347289640758287.0,2205240181318.4355,5238812484256.202,104446364528008.03,2785643808997616.0
