t(s),Total solute volume 1,Total retention volume 1,Total 1 volume 1,Total 2 volume 1,Total 3 volume 1,Total 4 volume 1,Total 5 volume 1,Total 6 volume 1
0.1,1384269013029218.2,1.039366397781807e+16,2531887414418598.5,6477507550370256.0,0.0,0.0,0.0,0.013903653951609765
0.202,2000658961485614.5,1.5026799984321334e+16,3659294725459682.0,9361902123567960.0,3464496836.985316,23655902124.532562,822108844243.7762,4094944564878.3096
0.30604000000000003,2488246294970181.5,1.869657701848773e+16,4551114262080402.0,1.1643533350600748e+16,8704263246.151245,59506303387.36504,2185632036840.341,11429268232927.588
0.41216080000000005,2904622858927378.0,2.1834872667675412e+16,5312685914006524.0,1.3591935941083638e+16,15394381298.07637,105294018851.73486,3974493487018.22,21532771770710.645
0.5204040160000001,3275585536076167.5,2.4635089491956932e+16,5991193457400539.0,1.5327826702213766e+16,23380453973.26639,159958451847.13397,6135541594142.885,34164915766505.418
0.6308120963200001,3614815035678715.0,2.719978846020434e+16,6611659559973987.0,1.6915224092338116e+16,32578064870.06939,222920321196.9204,8640724821828.472,49193549005627.73
0.7434283382464002,3930471603255627.5,2.959014851644634e+16,7189009691641220.0,1.8392313577686788e+16,42938172181.33244,293843191509.6589,11473972375631.113,66542890123380.21
0.8582969050113283,4227852525442446.0,3.1845892101620172e+16,7732932834443370.0,1.978388349751148e+16,54432410084.27213,372532454424.13684,14625910805908.156,86170368552457.9
0.9754628431115548,4510616416050932.0,3.3994463606414144e+16,8250120761099269.0,2.110705409719382e+16,67045777835.71923,458885138494.35144,18091362481174.082,108055038672632.55
1.094972099973786,4781411083017866.0,3.6055735882710456e+16,8745416433481275.0,2.2374215611763412e+16,80772571338.90215,552861995808.6721,21868002271692.332,132191117609075.44
1.2168715419732616,5042223775530620.0,3.804463534434396e+16,9222454621040934.0,2.359466723187184e+16,95613929307.0186,654470672535.083,25955567564133.473,158584063734601.84
1.3412089728127268,5294589948730672.0,3.997270643323723e+16,9684043741166606.0,2.4775594007312004e+16,111576262361.18095,763754937647.404,30355361791609.195,187248043036314.2
1.4680331522689813,5539724475835976.0,4.1849094771857496e+16,1.0132405852226472e+16,2.5922680846545988e+16,128670200576.66121,880787467749.4546,35069926409405.54,218204213171335.34
1.597393815314361,5778607761760411.0,4.368119230990799e+16,1.0569334159346304e+16,2.70405154800477e+16,146909862945.08704,1005664839429.6318,40102815607187.62,251479518443996.28
1.729341691620648,6012044323332685.0,4.547507613872291e+16,1.099630016032066e+16,2.813286258262496e+16,166312335946.30133,1138503955322.6392,45458436802089.79,287105819351280.0
1.863928525453061,6240703862313049.0,4.723581612563354e+16,1.141452877004243e+16,2.9202855971830868e+16,186897293117.93106,1279439436751.566,51141934963473.7,325119249753817.6
2.001207095962122,6465150816133669.0,4.896769622440959e+16,1.1825052370158444e+16,3.0253136888605084e+16,208686712736.62424,1428621688879.0454,57159107135893.93,365559733974910.7
2.1412312378813647,6685866097780070.0,5.067437727548354e+16,1.2228750572305372e+16,3.1285955727509116e+16,231704665638.06046,1586215446582.362,63516338368475.51,408470619408270.9
2.284055862638992,6903263403239431.0,5.235901911828346e+16,1.262638004517627e+16,3.230324834625554e+16,255977154371.68588,1752398672144.1924,70220553197401.57,453898394588304.44
2.4297369798917723,7117701654928919.0,5.4024373767114e+16,1.301859727411796e+16,3.3306694293821628e+16,281531990716.00195,1927361715824.5884,77279178676030.67,501892471862915.3
2.578331719489608,7329494641680563.0,5.567285759620537e+16,1.3405976193102114e+16,3.4297761920045628e+16,308398702396.8026,2111306676546.0042,84700116145319.77,552505019852789.3
2.7298983538794,7538918588585111.0,5.730660802711957e+16,1.3789022030313896e+16,3.527774379814575e+16,336608462413.9585,2304446917494.9297,92491719735225.31,605790834959678.0
2.884496320956988,7746218173869965.0,5.8927528592284824e+16,1.4168182313295296e+16,3.624778488024764e+16,366194036143.1411,2507006703513.4023,100662780131938.6,661807244000335.2
3.0421862473761276,7951611364107443.0,6.053732515546768e+16,1.454385571276061e+16,3.720890512337445e+16,397189742613.03,2719220935613.017,109222512524780.2,720614032022172.8
3.2030299723236504,8155293338633658.0,6.213753531771555e+16,1.4916399220536772e+16,3.8162017853465496e+16,429631427239.30817,2941334963980.704,118180547915489.6,782273390772898.5
3.3670905717701234,8357439703699160.0,6.372955251023854e+16,1.5286134028390764e+16,3.9107944805747736e+16,463556443935.6415,3173604465224.2314,127546927166727.34,846849884325006.0
3.5344323832055258,8558209146772002.0,6.531464590042389e+16,1.5653350382870316e+16,4.0047428545341816e+16,499003644992.16504,3416295372828.5913,137332097308835.75,914410429113110.1
3.7051210308696363,8757745645209898.0,6.689397696601337e+16,1.6018311625065452e+16,4.0981142802572696e+16,536013377462.9368,3669683852199.491,147546909729613.72,985024286206067.4
3.879223451487029,8956180317001395.0,6.846861339387894e+16,1.6381257575698052e+16,4.1909701133368984e+16,574627485068.923,3934056313486.75,158202619951442.44,1058763064060528.6
4.0568079205167695,9153632981611776.0,7.003954081256872e+16,1.6742407389979634e+16,4.283366422311933e+16,614889314825.6401,4209709456768.5815,169310888760722.0,1135700730325614.2
4.237944078927105,9350213484219158.0,7.1607672757341256e+16,1.7101961979699334e+16,4.375354608333179e+16,656843727760.9941,4496950345249.429,180883784501287.12,1215913631516649.2
4.422702960505647,9546022825444346.0,7.317385918267523e+16,1.7460106079550822e+16,4.466981933811556e+16,700537113210.8132,4796096502959.7705,192933786379811.94,1299480519568548.0
4.61115701971576,9741154130116780.0,7.473889377314216e+16,1.7817010019049232e+16,4.558291975744528e+16,746017406275.5391,5107476034103.961,205473788659792.06,1386482584430689.8
4.803380160110075,9935693482004714.0,7.630352025400835e+16,1.8172831249290344e+16,4.649325016321477e+16,793334108097.722,5431427761723.962,218517105643339.94,1477003491985349.0
4.9994477633122765,1.0129720646282776e+16,7.78684378643453e+16,1.8527715664376544e+16,4.740118380996664e+16,842538308680.871,5768301383764.467,232077477358171.56,1571129426668792.8
5.199436718578522,1.0323309697460894e+16,7.943430612511688e+16,1.8881798749927188e+16,4.830706732323612e+16,893682712019.3411,6118457644961.23,246169075881773.72,1668949138253841.8
5.403425452950093,1.0516529567293446e+16,8.10017490107238e+16,1.923520658522931e+16,4.9211223263448376e+16,946821663348.7764,6482268523247.695,260806512246627.6,1770553992319516.5
5.611493962009095,1.0709444524632594e+16,8.257135861337557e+16,1.958805672091094e+16,5.011395237135339e+16,1002011178359.1697,6860117429597.805,276004843880094.56,1876038023990649.8
5.823723841249277,1.0902114597139286e+16,8.414369837431434e+16,1.9940458950269724e+16,5.10155355413895e+16,1059308974239.3677,7252399420406.346,291779582540568.4,1985497994580611.2
6.040198318074262,1.1094595943109894e+16,8.57193059435446e+16,2.029251598936067e+16,5.191623556161639e+16,1118774502443.8904,7659521421659.309,308146702718136.7,2099033450815395.8
6.261002284435747,1.1286941180330906e+16,8.729869571966045e+16,2.0644324078486164e+16,5.281629865256388e+16,1180468983091.3022,8081902464272.51,325122650473510.75,2216746786358648.0
6.486222330124463,1.14791996777749e+16,8.888236111315677e+16,2.099597351572122e+16,5.3715955832200296e+16,1244455440918.599,8519973930081.075,342724352693583.06,2338743305395630.5
6.715946776726952,1.1671417815048302e+16,9.047077656986749e+16,2.1347549131455016e+16,5.461542412999719e+16,1310798742728.859,8974179808050.174,360969226745830.5,2465131288070371.5
6.950265712261491,1.1863639213755248e+16,9.20643993856175e+16,2.169913071156595e+16,5.55149076695782e+16,1379565636280.0847,9444976960350.246,379875190517017.94,2596022057604527.5
7.18927102650672,1.2055904944323898e+16,9.366367133855813e+16,2.205079337571634e+16,5.641459863654592e+16,1450824790572.1519,9932835398001.883,399460672824354.9,2731530048959020.5
7.433056447036854,1.2248253711325198e+16,9.526902016182378e+16,2.2402607916308756e+16,5.7314678145666536e+16,1524646837496.276,10438238565846.826,419744624189532.9,2871772878930345.5
7.681717575977592,1.2440722019882632e+16,9.688086087593224e+16,2.27546411028571e+16,5.821531701957088e+16,1601104414817.8315,10961683636645.36,440746527967973.5,3016871417602222.5
7.935351927497144,1.2633344325408818e+16,9.849959699765694e+16,2.3106955955861388e+16,5.9116676489434696e+16,1680272210468.606,11503681814136.475,462486411827183.6,3166949861100256.5
8.194058966047088,1.2826153168597922e+16,1.0012562163982261e+17,2.3459611993715264e+16,6.001890882666526e+16,1762227008129.0737,12064758644928.277,484984859569435.8,3322135805621698.0
8.45794014536803,1.3019179297344344e+16,1.0175931851455754e+17,2.381266545570059e+16,6.092215791340978e+16,1847047734085.0176,12645454339111.195,508263023295075.1,3482560322734552.5
8.72709894827539,1.3212451777037016e+16,1.0340106285089536e+17,2.416616950372084e+16,6.18265597586693e+16,1934815505345.9426,13246324099508.514,532342635903627.7,3648358035959724.5
9.0016409272409,1.3405998090491622e+16,1.0505122223623221e+17,2.4520174405081544e+16,6.273224296592329e+16,2025613679015.3552,13867938459496.217,557246023930632.44,3819667198666615.5
9.281673745785717,1.3599844228621718e+16,1.0671015738994938e+17,2.487472769833191e+16,6.363932915741849e+16,2119527902905.0864,14510883629339.023,582996120718694.2,3996629773326326.5
9.567307220701432,1.3794014772813024e+16,1.0837822287649502e+17,2.522987434393129e+16,6.45479333596327e+16,2216646167387.6914,15175761851001.8,609616479921732.0,4179391512177870.0
9.85865336511546,1.398853296984637e+16,1.1005576776433627e+17,2.5585656861286372e+16,6.545816435387088e+16,2317058858482.343,15863191761405.332,637131289341796.0,4368102039370998.5
10.155826432417769,1.4183420800113172e+16,1.1174313623643805e+17,2.5942115453520644e+16,6.637012499547471e+16,2420858812170.912,16573808764103.877,665565385098111.1,4562914934655101.0
10.458942961066125,1.4378699039779672e+16,1.1344066815726475e+17,2.6299288121175444e+16,6.728391250471498e+16,2528141369941.783,17308265409368.186,694944266128287.4,4763987818687119.0
10.768121820287448,1.4574387317479892e+16,1.1514869960073915e+17,2.665721076590406e+16,6.819961873208238e+16,2639004435559.842,18067231782663.16,725294109021806.4,4971482440032797.0
11.083484256693197,1.4770504166051612e+16,1.1686756334308838e+17,2.701591728509901e+16,6.911733040038184e+16,2753548533061.5073,18851395901513.227,756641783186082.6,5185564763935262.0
11.405153941827061,1.496706706977212e+16,1.1859758932408528e+17,2.737543965828866e+16,7.0037129325769064e+16,2871876865974.317,19661464120751.598,789014866345522.1,5406405062923178.0
11.733257020663602,1.5164092507501186e+16,1.203391050798092e+17,2.773580802604749e+16,7.0959092619634856e+16,2994095377760.704,20498161546151.953,822441660374103.9,5634178009327694.0
12.067922161076874,1.5361595992094532e+16,1.2209243614972326e+17,2.809705076208511e+16,7.188329287303753e+16,3120312813485.9326,21362232456442.08,856951207462123.0,5869062769773987.0
12.409280604298411,1.5559592106413558e+16,1.2385790646057442e+17,2.8459194539109804e+16,7.28097983252081e+16,3250640782710.248,22254440733700.38,892573306617776.0,6111243101708752.0
12.75746621638438,1.5758094536223304e+16,1.2563583868936875e+17,2.8822264389000496e+16,7.37386730174942e+16,3385193823605.2104,23175570302135.477,929338530504362.8,6360907452020640.0
13.112615540712067,1.595711610024177e+16,1.2742655460744672e+17,2.9186283757767924e+16,7.46699769339732e+16,3524089468294.246,24126425575249.19,967278242613885.6,6618249057806312.0
13.474867851526309,1.615666877757707e+16,1.2923037540748842e+17,2.9551274555739016e+16,7.560376612984342e+16,3667448309417.1484,25107831911381.76,1006424614777892.5,6883466049330153.0
13.844365208556836,1.6356763732766942e+16,1.3104762201510008e+17,2.991725720335491e+16,7.654009284859437e+16,3815394067918.12,26120636077636.777,1046810645016387.0,7156761555221940.0
14.221252512727972,1.6557411338614218e+16,1.3287861538647877e+17,3.0284250672938136e+16,7.74790056288638e+16,3968053662056.5728,27165706722180.844,1088470175725673.6,7438343809952698.0
14.605677562982532,1.6758621196994156e+16,1.3472367679351406e+17,3.065227252675032e+16,7.842054940180485e+16,4125557277639.479,28243934854910.566,1131437912205945.2,7728426263626092.0
14.997791114242183,1.6960402157793558e+16,1.3658312809756158e+17,3.1021338951632708e+16,7.936476557971072e+16,4288038439473.7266,29356234336476.094,1175749441529421.5,8027227694119265.0
15.397746936527026,1.7162762336127366e+16,1.3845729201301542e+17,3.139146479049585e+16,8.031169213657752e+16,4455634084036.251,30503542375647.203,1221441251749778.0,8334972321605304.0
15.805701875257567,1.7365709127965382e+16,1.4034649236170598e+17,3.17626635709019e+16,8.126136368123006e+16,4628484633359.125,31686820035002.895,1268550751453571.5,8651889925486691.0
16.221815912762718,1.7569249224290868e+16,1.4225105431906571e+17,3.2134947530961416e+16,8.221381152357598e+16,4806734070126.304,32907052744922.426,1317116289654252.8,8978215963768145.0
16.64625223101797,1.777338862390231e+16,1.4417130465292522e+17,3.250832764274787e+16,8.316906373451064e+16,4990530013977.643,34165250825848.676,1367177176029276.2,9314191694895454.0
17.079177275638333,1.7978132644960174e+16,1.461075719557325e+17,3.288281363341784e+16,8.412714519995005e+16,5180023799015.398,35462450018791.46,1418773701500717.8,9660064302086004.0
17.5207608211511,1.8183485935372948e+16,1.4806018687092387e+17,3.3258414004207164e+16,8.508807766943142e+16,5375370552507.215,36799712024030.875,1471947159159690.0,1.0016087020176014e+16
17.97117603757412,1.8389452482108644e+16,1.500294823141246e+17,3.363513604746234e+16,8.605187979968742e+16,5576729274778.876,38178125047974.625,1526739865534636.8,1.0382519265008756e+16
18.430599558325603,1.8596035619511892e+16,1.5201579368979792e+17,3.4012985861852684e+16,8.701856719356395e+16,5784262920289.15,39598804358118.9,1583195182203550.5,1.0759626765387486e+16
18.899211549492115,1.880323803670011e+16,1.5401945910392262e+17,3.4391968365898452e+16,8.798815243463165e+16,5998138479877.783,41062892846051.086,1641357537749858.8,1.1147681697616768e+16
19.37719578048196,1.9011061784107508e+16,1.560408195732354e+17,3.4772087309940084e+16,8.89606451178082e+16,6218527064176.971,42571561598429.6,1701272450061651.2,1.1546962822655348e+16
19.864739696091597,1.9219508279240388e+16,1.5808021923153683e+17,3.515334528666491e+16,8.99360518762903e+16,6445603988175.178,44126010475865.94,1762986548973646.8,1.1957755625903574e+16
20.36203449001343,1.942857831170274e+16,1.6013800553352925e+17,3.5535743740299264e+16,9.091437640507109e+16,6679548856921.119,45727468699625.555,1826547599251115.0,1.2380352459648502e+16
20.869275179813698,1.963827204754778e+16,1.6221452945662003e+17,3.5919282974567616e+16,9.189561948130224e+16,6920545652354.598,47377195446058.016,1892004523914795.5,1.281505268818908e+16
21.38666068340997,1.9848589033006484e+16,1.6431014570110234e+17,3.630396215951219e+16,9.28797789817439e+16,7168782821249.394,49076480448656.67,1959407427905511.2,1.3262162835664386e+16
21.91439389707817,2.005952819764213e+16,1.6642521288909584e+17,3.668977933726299e+16,9.386684989752466e+16,7424453364252.261,50826644607638.195,2028807622087069.5,1.3721996736607128e+16
22.452681775019734,2.0271087856976012e+16,1.6856009376260944e+17,3.707673142684028e+16,9.485682434642978e+16,7687754926000.613,52629040606925.79,2100257647585677.8,1.419487568924486e+16
23.00173541052013,2.0483265714627384e+16,1.707151553810703e+17,3.746481422806835e+16,9.584969158291506e+16,7958889886300.258,54485053538407.586,2173811300463893.8,1.4681128611570972e+16
23.561770118730532,2.0696058864008176e+16,1.7289076931864192e+17,3.785402242467592e+16,9.6845438006038e+16,8238065452342.8125,56396101533334.375,2249523656726860.8,1.5181092200207418e+16
24.133005521105144,2.0909463789610988e+16,1.750873118616385e+17,3.824434958665129e+16,9.784404716548448e+16,8525493751941.366,58363636400708.16,2327451097658267.0,1.5695111092080904e+16
24.715665631527248,2.112347636792684e+16,1.7730516420632947e+17,3.863578817192121e+16,9.884549976586437e+16,8821391927761.08,60389144272506.53,2407651335483195.5,1.6223538028933584e+16
25.309978944157795,2.133809186802742e+16,1.7954471265741395e+17,3.90283295274162e+16,9.984977366943738e+16,9125982232520.246,62474146255573.69,2490183439354745.0,1.676673402468999e+16
25.91617852304095,2.1553304951845708e+16,1.818063488274299e+17,3.942196388958329e+16,1.008568438974247e+17,9439492125135.512,64620199090001.055,2575107861660993.5,1.7325068535700196e+16
26.53450209350177,2.1769109674186024e+16,1.840904698373589e+17,3.98166803844047e+16,1.0186668263005784e+17,9762154367783.607,66828895813810.0,2662486464648521.5,1.7898919633880176e+16
27.165192135371807,2.1985499482495016e+16,1.8639747851866675e+17,4.021246702697912e+16,1.0287925920550773e+17,10094207123850.428,69101866433735.35,2752382547358462.5,1.848867418276894e+16
27.808495978079243,2.2202467216423084e+16,1.8872778361702474e+17,4.060931072071913e+16,1.0389454011783131e+17,10435894056736.309,71440778601903.17,2844860872870728.0,1.909472801652195e+16
28.464665897640828,2.2420005107204376e+16,1.9108179999793376e+17,4.100719725621769e+16,1.0491248901407229e+17,10787464429485.484,73847338298179.33,2939987695851613.5,1.971748612186007e+16
29.133959215593645,2.263810477688407e+16,1.9345994885447846e+17,4.140611130983435e+16,1.0593306669064498e+17,11149173205205.531,76323290517960.25,3037830790399849.5,2.0357362822992116e+16
29.816638399905518,2.2856757237419316e+16,1.958626579174271e+17,4.180603644205149e+16,1.0695623108912795e+17,11521281148241.193,78870419965162.56,3138459478185632.0,2.1014781969529412e+16
30.51297116790363,2.3075952889680744e+16,1.982903616678817e+17,4.220695509564734e+16,1.0798193729159115e+17,11904054926065.883,81490551750160.36,3241944656877032.0,2.169017712740921e+16
31.223230591261704,2.329568152237994e+16,2.0074350155269005e+17,4.2608848593734776e+16,1.0901013751557922e+17,12297767211851.68,84185552092406.52,3348358828847640.0,2.2383991772844156e+16
31.947695203086937,2.351593231094899e+16,2.032225262028148e+17,4.3011697137711736e+16,1.1004078110886632e+17,12702696787678.475,86957329027466.53,3457776130159192.0,2.309667948931361e+16
32.686649107148675,2.3736693816395824e+16,2.0572789165485824e+17,4.341547980516783e+16,1.1107381454410325e+17,13119128648340.014,89807833118181.12,3570272359812405.5,2.382870416761242e+16
33.44038208929165,2.395795398416164e+16,2.082600615759303e+17,4.382017454779415e+16,1.1210918141346808e+17,13547354105704.393,92739058169664.78,3685925009259026.5,2.4580540208972036e+16
34.20918973107749,2.4179700143002876e+16,2.1081950749205594e+17,4.422575818933901e+16,1.1314682242343698e+17,13987670893584.518,95753041947840.62,3804813292167771.5,2.53526727312679e+16
34.993373525699035,2.440191900392321e+16,2.1340670902030045e+17,4.4632206423653656e+16,1.1418667538978602e+17,14440383273072.863,98851866901198.27,3927018174436468.0,2.6145597778326532e+16
35.793240996213015,2.4624596659178576e+16,2.1602215410479898e+17,4.5039493812873336e+16,1.152286752329355e+17,14905802138293.812,102037660885458.14,4052622404442466.5,2.695982253234528e+16
36.60910581613728,2.4847718581379256e+16,2.1866633925687494e+17,4.5447593785774264e+16,1.1627275397374858e+17,15384245122525.61,105312597890813.48,4181710543523076.0,2.7795865529436364e+16
37.44128793246003,2.5071269622712444e+16,2.213397697994185e+17,4.58564786363521e+16,1.1731884072989362e+17,15876036704642.889,108678898771417.73,4314368996677417.0,2.865425687830678e+16
38.29011369110923,2.529523401430873e+16,2.240429601157102e+17,4.626611952266307e+16,1.1836686171288011e+17,16381508315829.643,112138831976776.03,4450686043480992.5,2.953553848208445e+16
