t(s),Total solute volume 1,Total retention volume 1,Total 1 volume 1,Total 2 volume 1,Total 3 volume 1,Total 4 volume 1,Total 5 volume 1,Total 6 volume 1
0.1,839524706393360.9,941664656952722.2,50673114377222.37,51466836182138.266,0.0,0.0,0.0,0.0
0.202,1265002766930331.0,1418913262177250.5,76354667687582.81,77550654476993.7,13109475.620463511,21950830.82050327,259030646.6145995,4878991388.538309
0.30604000000000003,1589015806928839.5,1782354984095746.5,95911864443404.23,97414186806513.38,33263088.989281606,55696544.298160605,657247449.1170158,12379709907.350763
0.41216080000000005,1863076677763481.0,2089769392091456.0,112453983774824.44,114215414817071.2,59085489.69802329,98934218.12589327,1167474426.0317283,21990241945.140095
0.5204040160000001,2106460649417219.8,2362776622199018.5,127144467278906.06,129136003766067.94,89966464.72847036,150642096.37895423,1777654283.1156938,33483473978.16701
0.6308120963200001,2328769617646905.5,2612146646286956.5,140562878558323.97,142764595294473.97,125578781.06640705,210272252.0493654,2481321181.6200604,46737615039.841835
0.7434283382464002,2535583878844218.5,2844138608241460.0,153046040336466.34,155443287973317.28,165735422.0773733,277511539.9774867,3274779838.568004,61683060662.12322
0.8582969050113283,2730478089909081.5,3062762030481032.5,164809716362656.78,167391225183195.75,210330940.2629226,352183396.423431,4155946705.9902925,78280565053.60475
0.9754628431115548,2915901747630321.5,3270764404597161.0,176001756521737.75,178758572666374.84,259312564.4702953,434199460.25196064,5123779074.152551,96510487626.02736
1.094972099973786,3093618616063268.0,3470124074919930.5,186728620358229.62,189653457504162.3,312664200.67697823,523532783.44501495,6177958940.983825,116366838345.25352
1.2168715419732616,3264947951742939.5,3662320808367121.0,197069937258721.0,200156756363796.25,370396819.251158,620201735.2903315,7318703072.78865,137853700034.01672
1.3412089728127268,3430906771019106.0,3848495368175369.0,207087093607078.1,210330817159195.03,432542322.79672587,724259734.5483507,8546641838.287262,160982946092.3905
1.4680331522689813,3592298594770739.5,4029549054038043.0,216828589352324.12,220224899521827.4,499149452.673378,835788395.2279133,9862738325.09113,185772716978.7468
1.597393815314361,3749771361171334.0,4206208659653673.5,226333533581984.66,229878725127225.9,570280959.071786,954892788.0902464,11268232422.914923,212246366963.8795
1.729341691620648,3903856647453378.0,4379070465574759.5,235634011919907.4,239324882174715.38,646011590.8387022,1081698074.7628393,12764601104.322548,240431715981.40875
1.863928525453061,4054997072067638.5,4548630974648538.0,244756740501115.88,248590505269419.94,726426637.6354373,1216347066.6942098,14353529619.092384,270360507046.62604
2.001207095962122,4203565952060240.0,4715308960566094.0,253724252477117.75,257698480512485.47,811620856.3501221,1358998427.5128098,16036890281.095242,302068006687.50214
2.1412312378813647,4349881729328033.5,4879461648958577.0,262555768774422.25,266668329898783.53,901697672.3039644,1509825335.507991,17816726684.858303,335592707648.90076
2.284055862638992,4494218769635638.5,5041396830095842.0,271267849917448.2,275516873354180.8,996768582.0109643,1669014485.7643213,19695242378.40567,370976163121.9543
2.4297369798917723,4636815588627943.0,5201382085270608.0,279874892537016.25,284258733002947.44,1096952705.4744399,1836765331.8663602,21674790125.98649,408262594548.92944
2.578331719489608,4777881214485864.0,5359651923822366.0,288389513427558.9,292906723268337.94,1202376455.8291385,2013289545.6920288,23757868211.796223,447499106386.8852
2.7298983538794,4917600178318944.0,5516413380323420.0,296822850755659.9,301472156780400.5,1313173296.0399058,2198810601.403919,25947113748.137268,488735370781.1244
2.884496320956988,5056136476204079.0,5671850458653201.0,305184803207931.9,309965087274534.6,1429483567.3701098,2393563490.3860846,28245299756.598034,532023619840.2945
3.0421862473761276,5193636750240828.0,5826127700027898.0,313484221997252.2,318394504605221.8,1551454374.2885833,2597794528.5309267,30655332893.93611,577418602801.6453
3.2030299723236504,5330232868460267.0,5979393076764362.0,321729066584228.75,326768492906649.1,1679239515.5449557,2811761240.831591,33180252090.20602,624977560378.448
3.3670905717701234,5466044036544647.0,6131780360907872.0,329926532139094.9,335094360051114.9,1812999453.4063945,3035732309.8728967,35823227940.924095,674760213310.4015
3.5344323832055258,5601178540951419.0,6283411079432078.0,338083154755438.9,343378744510775.25,1952901314.8851185,3269987577.8884706,38587562731.34419,726828762820.3748
3.7051210308696363,5735735198964413.0,6434396140720538.0,346204898974262.75,351627704252645.7,2099118920.1563373,3514818094.346321,41476690997.99105,781247901190.9268
3.879223451487029,5869804573592066.0,6584837197294683.0,354297231114368.75,359846791217605.7,2251832834.4014926,3770526202.758411,44494180553.06005,838084831059.2804
4.0568079205167695,6003469998193532.0,6734827795128788.0,362365181118075.4,368041114134834.9,2411230440.103239,4037425661.735311,47643733912.9256,897409292324.0492
4.237944078927105,6136808445947454.0,6884454348937210.0,370413395031721.44,376215391824350.6,2577506027.4301677,4315841796.330725,50929190084.08624,959293595784.5859
4.422702960505647,6269891271879610.0,7033796974522417.0,378446179793936.7,384373998686822.3,2750860900.826316,4606111676.519951,54354526669.306564,1023812662811.4948
4.61115701971576,6402784849510229.0,7182930202927087.0,386467541663214.56,392521003733063.56,2931503500.2969966,4908584320.286359,57923862264.14315,1091044070486.7885
4.803380160110075,6535551119813447.0,7331923596235339.0,394481219352718.44,400660204237837.4,3119649536.18114,5223620919.289997,61641459119.95598,1161068101763.492
4.9994477633122765,6668248066782311.0,7480842281055164.0,402490712735047.06,408795154894246.2,3315522136.4402647,5551595085.494687,65511726054.237175,1233967800283.6729
5.199436718578522,6800930131223814.0,7629747412720026.0,410499307818606.8,416929193181326.06,3519352005.687968,5892893117.45374,69539221592.92516,1309829029566.1084
5.403425452950093,6933648572297782.0,7778696580881252.0,418510098569844.3,425065461528087.75,3731377595.3418226,6247914285.219503,73728657332.48813,1388740536333.4473
5.611493962009095,7066451784633033.0,7927744165277159.0,426526006054150.9,433206926754238.44,3951845284.409243,6617071133.058861,78084901512.1271,1470794017797.171
5.823723841249277,7199385577505999.0,8076941648952948.0,434549795286883.56,441356397185153.0,4181009570.526246,7000789799.336498,82612982788.56898,1556084192758.4631
6.040198318074262,7332493421479874.0,8226337894986488.0,442584090120331.2,449516537772019.44,4419133270.957522,7399510353.077988,87318094207.69037,1644708876416.5203
6.261002284435747,7465816667019687.0,8375979391783900.0,450631386439169.8,457689883493980.6,4666487733.341399,7813687146.850015,92205597368.68974,1736769058803.6772
6.486222330124463,7599394738878286.0,8525910471202449.0,458694063893450.7,465878851274905.9,4923353056.026993,8243789185.702157,97281026777.79886,1832368986790.6265
6.715946776726952,7733265309456944.0,8676173503093551.0,466774396362535.06,474085750611228.8,5190018317.905007,8690300512.005388,102550094389.5811,1931616249624.925
6.950265712261491,7867464453857035.0,8826809069313008.0,474874561313892.25,482312793077340.2,5466781817.680363,9153720606.100336,108018694334.79265,2034621867983.636
7.18927102650672,8002026788934850.0,8977856119792007.0,482996648196360.2,490562100850304.75,5753951322.575226,9634564802.736326,113692907834.58684,2141500386535.7512
7.433056447036854,8136985598335622.0,9129352112885134.0,491142665987103.0,498835714375047.0,6051844326.486355,10133364723.341146,119579008301.52533,2252369970023.335
7.681717575977592,8272372945201457.0,9281333141896472.0,499314549994584.3,507135599273873.0,6360788317.651663,10650668724.213398,125683466628.48997,2367352502881.8613
7.935351927497144,8408219774011652.0,9433834049419516.0,507514168005573.1,515463652589764.3,6681121055.908617,11187042360.776337,132012956667.12056,2486573692430.3843
8.194058966047088,8544556002815177.0,9586888530904382.0,515743325852237.2,523821708440668.5,7013190859.651638,11743068868.071756,138574360897.9021,2610163175671.5728
8.45794014536803,8681410606946497.0,9740529228675930.0,524003772465166.3,532211543151676.6,7357356902.618282,12319349657.7119,145374776294.46063,2738254629749.781
8.72709894827539,8818811695172983.0,9894787817466632.0,532297204469575.75,540634879923213.4,7713989520.653784,12916504831.539745,152421520385.02933,2870985886122.911
9.0016409272409,8956786579100460.0,1.0049695082391226e+16,540625270374577.3,549093393085932.8,8083470528.6228695,13535173712.28036,159722137514.41888,3008499048510.912
9.281673745785717,9095361836559046.0,1.0205280990173616e+16,548989574399100.44,557588711986560.56,8466193547.6545925,14176015391.494614,167284405310.15952,3150940614689.9937
9.567307220701432,9234563369602416.0,1.0361574754335862e+16,557391679972692.3,566122424543536.4,8862564342.922216,14839709295.172956,175116341356.81274,3298461602207.8677
9.85865336511546,9374416457676670.0,1.0518604894973076e+16,565833112944747.4,574696080506503.6,9273001172.175333,15526955767.334002,183226210082.74478,3451217678100.693
10.155826432417769,9514945806448452.0,1.0676399293664318e+16,574315364531739.0,583311194449716.2,9697935145.256197,16238476672.015244,191622529863.94058,3609369292698.2314
10.458942961066125,9656175592725106.0,1.083498524400412e+16,582839894028574.9,591969248525848.6,10137810594.845442,16975016014.067038,200314080349.70178,3773081817608.2915
10.768121820287448,9798129505849510.0,1.0994389498184368e+16,591408131307144.1,600671695003690.1,10593085458.696127,17737340579.183384,209309910015.3535,3942525687977.001
11.083484256693197,9940830785908898.0,1.11546383100074e+16,600021479122597.6,609419958610549.0,11064231673.62753,18526240593.624317,218619343947.31998,4117876549125.7744
11.405153941827061,1.0084302259059878e+16,1.1315757474668748e+16,608681315245511.4,618215438697814.8,11551735581.563316,19342530404.10537,228251991866.18488,4299315407671.0156
11.733257020663602,1.0228566370237708e+16,1.1477772365611298e+16,617388994436229.2,627059511246206.8,12056098347.9096,20187049178.35046,238217756393.59076,4487028787236.479
12.067922161076874,1.037364521349023e+16,1.164070796871986e+16,626145850275768.1,635953530725392.8,12577836392.582344,21060661626.825203,248526841569.0766,4681208888873.486
12.409280604298411,1.0519560560150826e+16,1.1804588914096776e+16,634953196866333.8,644898831821106.8,13117481834.003447,21964258746.1865,259189761623.18088,4882053756307.842
12.75746621638438,1.0666333885042056e+16,1.1969439505634282e+16,643812330412948.8,653896731041574.0,13675582946.39856,22898758585.00449,270217350013.37027,5089767446137.365
13.112615540712067,1.0813986390882982e+16,1.2135283748576934e+16,652724530696663.9,662948528213788.1,14252704630.739899,23865107032.333347,281620768729.59705,5304560203107.822
13.474867851526309,1.0962539031054862e+16,1.2302145375248674e+16,661691062448673.2,672055507879148.9,14849428899.690113,24864278629.726273,293411517876.509,5526648640599.814
13.844365208556836,1.1112012530864474e+16,1.2470047869100052e+16,670713176633762.5,681218940597022.0,15466355376.914423,25897277407.309353,305601445539.56903,5756255926463.026
14.221252512727972,1.1262427407431872e+16,1.2639014487218314e+16,679792111650710.1,690440084163928.4,16104101811.140285,26965137744.55038,318202757942.5853,5993611974339.45
14.605677562982532,1.1413803988314744e+16,1.2809068281426906e+16,688929094456447.0,699720184755332.6,16763304605.355665,28068925256.376263,331228029904.36774,6238953640620.603
14.997791114242183,1.1566162428973876e+16,1.2980232118090368e+16,698125341620260.4,709060477996338.6,17444619361.54883,29209737705.31475,344690215602.4889,6492524927188.891
15.397746936527026,1.171952272917156e+16,1.3152528696729264e+16,707382060313580.0,718462189966992.5,18148721441.404774,30388705940.35464,358602659652.3277,6754577190097.74
15.805701875257567,1.1873904748387794e+16,1.3325980567539898e+16,716700449240499.4,727926538147374.9,18876306543.38495,31606994863.2398,372979108509.85754,7025369354348.888
16.221815912762718,1.202932822033101e+16,1.350061014790469e+16,726081699513636.0,737454732307179.6,19628091296.62977,32865804422.932606,387833722206.83276,7305168134930.776
16.64625223101797,1.2185812766612978e+16,1.367643973797173e+16,735526995479516.6,747047975344034.6,20404813872.13513,34166370639.002075,403181086427.3121,7594248264285.509
17.079177275638333,1.2343377909650274e+16,1.3853491535374618e+16,745037515497338.0,756707464074443.8,21207234611.666985,35509966654.713875,419036224934.66864,7892892726377.2705
17.5207608211511,1.2502043084850972e+16,1.4031787649156732e+16,754614432674504.5,766434389980864.5,22036136674.88879,36897903820.61817,435414612358.4895,8201392997539.03
17.97117603757412,1.2661827652137228e+16,1.4211350112958648e+16,764258915562158.4,776229939918125.1,22892326705.191654,38331532809.45382,452332187351.0293,8520049294279.113
18.430599558325603,1.2822750906851944e+16,1.439220089752211e+16,773972128813479.6,786095296782025.9,23776635514.725975,39812244763.20543,469805366123.0658,8849170828233.887
18.899211549492115,1.298483209009144e+16,1.4574361922557696e+16,783755233807360.8,796031640142804.8,24689918789.14707,41341472473.17157,487851056369.31,9189076068456.84
19.37719578048196,1.3148090398502376e+16,1.4757855068020092e+16,793609389239748.6,806040146845718.0,25633057812.598785,42920691593.92153,506486671593.707,9540093011239.123
19.864739696091597,1.3312544993577212e+16,1.4942702184828428e+16,803535751684696.4,816121991580903.5,26606960213.470432,44551421892.0345,525730145845.18634,9902559457660.21
20.36203449001343,1.3478215010477656e+16,1.5128925105066118e+16,813535476126967.8,826278347424301.8,27612560731.47055,46235228530.53657,545599948874.65155,10276823299071.682
20.869275179813698,1.3645119566412542e+16,1.5316545651689342e+16,823609716467695.1,836510386351256.1,28650822006.574627,47973723389.96309,566115101724.1593,10663242810720.363
21.38666068340997,1.3813277768591872e+16,1.550558564776878e+16,833759626004482.6,846819279724127.4,29722735390.40827,49768566426.99052,587295192759.4305,11062186953720.508
21.91439389707817,1.3982708721774248e+16,1.5696066925284832e+16,843986357886981.5,857206198754995.0,30829321780.637703,51621467071.59225,609160394156.9491,11474035685586.822
22.452681775019734,1.4153431535422088e+16,1.5888011333491688e+16,854291065548748.2,867672314944305.6,31971632478.9418,53534185663.683,631731478857.0392,11899180279542.703
23.00173541052013,1.432546533047231e+16,1.6081440746860038e+16,864674903115942.8,878218800495944.2,33150750073.145393,55508534930.220375,655029837994.3364,12338023652818.602
23.561770118730532,1.4498829245727742e+16,1.6276377072603694e+16,875139025793090.5,888846828709055.1,34367789344.09141,57546381503.73149,679077498817.0767,12790980704155.574
24.133005521105144,1.467354244386646e+16,1.647284225778824e+16,885684590225813.9,899557574346451.0,35623898197.82849,59649647483.230736,703897143106.6158,13258478660728.39
24.715665631527248,1.4849624117063606e+16,1.6670858296014472e+16,896312754840153.5,910352213979249.8,36920258623.68236,61820312038.47866,729512126108.368,13740957434699.219
25.309978944157795,1.5027093492211334e+16,1.68704472336622e+16,907024680157643.9,921231926306878.1,38258087678.76709,64060413058.51699,755946495985.2042,14238869989609.275
25.91617852304095,1.5205969835717744e+16,1.707163117567195e+16,917821529084972.9,932197892451282.6,39638638499.479034,66372048845.382744,783225013803.9668,14752682716809.188
26.53450209350177,1.5386272457857432e+16,1.7274432290835016e+16,928704467176581.1,943251296223625.1,41063201340.48708,68757379853.86794,811373174065.3127,15282875822120.004
27.165192135371807,1.5568020716638874e+16,1.7478872816552144e+16,939674662868085.6,954393324361376.4,42533104641.70993,71218630478.14255,840417225786.558,15829943722906.66
27.808495978079243,1.5751234021145058e+16,1.7684975063012962e+16,950733287677924.4,965625166733108.6,44049716123.727196,73758090885.99002,870384194146.3136,16394395455729.97
28.464665897640828,1.5935931834295176e+16,1.789276141673731e+16,961881516374054.6,976948016507815.0,45614443912.02872,76378118901.33331,901301902698.9758,16976755094727.727
29.133959215593645,1.6122133674965636e+16,1.8102254343409156e+16,973120527101962.2,988363070284910.5,47228737690.447754,79081141935.62947,933198996165.8372,17577562180852.81
29.816638399905518,1.6309859119397792e+16,1.8313476389922744e+16,984451501469643.2,999871528180557.5,48894089884.05865,81869658968.60338,966104963808.3892,18197372162072.973
30.51297116790363,1.6499127801810986e+16,1.8526450185548236e+16,995875624584601.4,1011474593865230.1,50612036871.73918,84746242578.65399,1000050163387.7676,18836756844606.176
31.223230591261704,1.6689959414126786e+16,1.874119844211303e+16,1007394085037203.1,1023173474546824.4,52384160228.50827,87713541023.12352,1035065845712.5343,19496304855232.914
31.947695203086937,1.6882373704701222e+16,1.895774395308113e+16,1019008074824157.6,1034969380892920.5,54212087997.646164,90774280368.4353,1071184179774.9371,20176622114687.58
32.686649107148675,1.7076390475948922e+16,1.917610959140242e+16,1030718789205108.0,1046863526885142.0,56097495992.48518,93931266669.9172,1108438278473.3975,20878332322086.625
33.44038208929165,1.7272029580734128e+16,1.939631830598937e+16,1042527426484800.6,1058857129597903.8,58042109127.6271,97187388200.90138,1146862224916.4702,21602077450304.008
34.20918973107749,1.7469310917390998e+16,1.9618393116668612e+16,1054435187712510.6,1070951408893137.5,60047702779.196236,100545617730.44623,1186491099300.5164,22348518252146.316
34.993373525699035,1.7668254423227392e+16,1.984235710744185e+16,1066443276289934.8,1083147587022034.2,62116104173.5737,104009014848.75047,1227361006350.1223,23118334777122.875
35.793240996213015,1.7868880066354902e+16,2.0068233417881156e+16,1078552897478056.8,1095446888124189.6,64249193803.88225,107580728339.0378,1269509103306.8562,23912226898537.145
36.60910581613728,1.8071207835681396e+16,2.0296045232473096e+16,1090765257793110.1,1107850537614099.8,66448906873.29433,111263998594.36157,1312973628448.0154,24730914850555.414
37.44128793246003,1.827525772889339e+16,2.0525815767718772e+16,1103081564281195.5,1120359761444426.2,68717234764.029724,115062160077.4246,1357793930113.0063,25575139774830.477
38.29011369110923,1.8481049738250548e+16,2.0757568256789224e+16,1115503023660849.6,1132975785235131.0,71056226530.68427,118978643821.1496,1404010496210.453,26445664276174.06
39.15591596493141,1.8688603834010012e+16,2.0991325931531096e+16,1128030841322550.0,1145699833257297.5,73467990416.29512,123016979967.3193,1451664984174.6023,27343272986685.46
40.03903428423004,1.8897939945295548e+16,2.12271120016146e+16,1140666220173992.0,1158533127260334.8,75954695389.29434,127180800340.20396,1500800251334.45,28268773137647.926
40.93981496991464,1.910907793822631e+16,2.1464949630615244e+16,1153410359319946.8,1171476885131157.5,78518572699.24393,131473841051.6343,1551460385653.9768,29222995138407.973
41.85861126931294,1.9322037591121284e+16,2.1704861908821696e+16,1166264452565626.2,1184532319374098.0,81161917448.96536,135899945133.54095,1603690736796.3916,30206793161352.598
42.7957834946992,1.953683856660001e+16,2.1946871822568148e+16,1179229686732722.2,1197700635400570.5,83887090180.40468,140463065193.48944,1657537947459.739,31221045731989.473
43.751699164593184,1.975350038040702e+16,2.219100221989497e+16,1192307239777620.8,1210983029617812.8,86696518471.27179,145167266088.26898,1713049984925.435,32266656323033.324
44.72673314788505,1.9972042366794464e+16,2.2437275772353356e+16,1205498278701974.5,1224380687306743.8,89592698539.20735,150016727610.08643,1770276172755.607,33344553951287.656
