t(s),Total solute volume 1,Total retention volume 1,Total 1 volume 1,Total 2 volume 1,Total 3 volume 1,Total 4 volume 1,Total 5 volume 1,Total 6 volume 1
0.1,1323473711248431.8,2617890617675497.5,487117646595586.6,807299259831480.0,0.0,0.0,0.0,-8.892789209081686e-83
0.202,1988400701910970.0,3933283345996050.5,731850655055330.2,1212895041280625.0,28520557.26330136,101416508.3226786,3673548799.2811513,133144263260.88516
0.30604000000000003,2496180723033262.5,4937907866891828.0,918744145184382.8,1522633375969985.5,72323276.58091934,257177862.92515737,9320901780.164389,339972301273.59894
0.41216080000000005,2925907108477181.0,5788199076025555.0,1076909216826952.5,1784760132623391.5,128435687.94939406,456712776.46446717,16556462184.46828,605476487381.5543
0.5204040160000001,3307605360520425.0,6543542175978713.0,1217397055799183.2,2017590433411641.2,195534547.01380217,695315634.6981684,25209262410.54076,923226134872.0967
0.6308120963200001,3656279108341752.0,7233611513154954.0,1345729897319418.5,2230276272824140.5,272909803.48519033,970461445.2871696,35187621572.49478,1289803676820.316
0.7434283382464002,3980659263975248.0,7875675224223052.0,1465121240498330.5,2428143379045506.5,360155543.9719208,1280706754.9170752,46439138686.60614,1703260702975.3408
0.8582969050113283,4286342689683403.5,8480803026699360.0,1577631066202326.5,2614605755732412.0,457042858.48415196,1625237545.4194753,58934262840.34943,2162498537972.7993
0.9754628431115548,4577166267407162.0,9056583879775326.0,1684671577014352.5,2792003844366338.5,563457170.2620429,2003646372.913775,72658199389.11217,2666965684554.7197
1.094972099973786,4855893557903245.0,9608484055728056.0,1787259928970489.0,2962023376282576.0,679363520.8218585,2415808919.0371013,87606428032.91643,3216490971270.1675
1.2168715419732616,5124592055889452.0,1.01405932648837e+16,1886157084073156.2,3125925492775825.5,804785707.7454389,2861809803.76308,103782009900.78606,3811183539852.067
1.3412089728127268,5384855810853352.0,1.0656064944171518e+16,1981949748096126.0,3284682540522945.0,939792974.172421,3341895252.6113386,121193869636.62245,4451369141220.861
1.4680331522689813,5637944353571334.0,1.1157391016395302e+16,2075101503872756.8,3439062814716297.0,1084491122.367351,3856441496.1285877,139855648577.74323,5137547653721.719
1.597393815314361,5884873385475764.0,1.164658124773545e+16,2165986190420181.8,3589685878242837.0,1239016369.6702778,4405932921.424245,159784911897.02902,5870363735480.337
1.729341691620648,6126476214146029.0,1.2125284748509408e+16,2254910514883153.0,3737060036428766.0,1403530983.7923875,4990946551.136186,181002585386.84155,6650585988541.648
1.863928525453061,6363446683824258.0,1.2594874876144658e+16,2342129853537589.5,3881608524021569.5,1578220117.0981343,5612140786.040008,203532546972.8918,7479091853363.461
2.001207095962122,6596369977514527.0,1.3056510151690414e+16,2427859588809662.5,4023688294016532.5,1763289475.0623078,6270247114.014314,227401325872.87216,8356856487248.904
2.1412312378813647,6825745225374940.0,1.3511178971733482e+16,2512283430519457.5,4163603808442526.5,1958963581.302847,6966063940.448921,252637878735.71066,9284944490299.227
2.284055862638992,7052002430712010.0,1.395973308241781e+16,2595559645661608.0,4301617362968999.0,2165484479.692278,7700451972.917797,279273422178.1842,10264503716570.44
2.4297369798917723,7275515364022834.0,1.4402913079684728e+16,2677825804185821.5,4437956952081515.5,2383110763.652405,8474330769.3248825,307341307537.42084,11296760645496.178
2.578331719489608,7496611537934197.0,1.4841368136618762e+16,2759202450372460.0,4572822353647464.0,2612116855.1769824,9288676174.088995,336876927844.45435,12383016943777.422
2.7298983538794,7715580030587189.0,1.5275671475872184e+16,2839795982307040.5,4706389901065219.0,2852792477.8961124,10144518444.346058,367917649833.29486,13524646951982.207
2.884496320956988,7932677697634233.0,1.5706332655442944e+16,2919700938267583.5,4838816272490702.0,3105442283.4405074,11042940921.288769,400502765728.49225,14723095901487.818
3.0421862473761276,8148134159919871.0,1.6133807433302116e+16,2999001832490160.5,4970241533249051.0,3370385600.832588,11985079138.99276,434673460905.0933,15979878717386.092
3.2030299723236504,8362155848761182.0,1.6558505768401372e+16,3077774644074534.5,5100791603395969.0,3647956286.1002097,12972120289.636204,470472794478.6355,17296579298621.36
3.3670905717701234,8574929317204623.0,1.6980798370154094e+16,3156088035725247.5,5230580277535535.0,3938502654.7249656,14005302983.280788,507945690581.6934,18674850192473.67
3.5344323832055258,8786623973360307.0,1.7401022105099352e+16,3234004359782441.0,5359710892113745.0,4242387483.5238132,15085917254.558899,547138938597.9285,20116412599519.004
3.7051210308696363,8997394354196447.0,1.781948449486387e+16,3311580495114564.0,5488277712399613.0,4559988071.538008,16215304779.191635,588101201008.4603,21623056659384.35
3.879223451487029,9207382030588344.0,1.823646748497754e+16,3388868548290578.0,5616367094536889.0,4891696351.751156,17394859271.256298,630883027795.4392,23196641978335.156
4.0568079205167695,9416717213983240.0,1.8652230623688604e+16,3465916444928936.5,5744058465585893.0,5237919047.176912,18626027038.232655,675536876569.4048,24839098367923.137
4.237944078927105,9625520119732216.0,1.9067013759647212e+16,3542768431485494.5,5871425155135956.0,5599077866.184156,19910307675.578506,722117137758.3296,26552426770250.348
4.422702960505647,9833902130546346.0,1.9481039344397e+16,3619465503475045.5,5998535104996324.0,5975609732.964328,21249254886.271145,770680164329.9742,28338700350343.863
4.61115701971576,1.0041966794665554e+16,1.989451440807759e+16,3696045772857374.5,6125451478064553.0,6367967049.861893,22644477413.654476,821284305624.4999,30200065740025.62
4.803380160110075,1.0249810686483676e+16,2.030763226320138e+16,3772544784798824.5,6252233183295059.0,6776617988.938014,24097640078.2399,873989944958.076,32138744420755.375
4.9994477633122765,1.0457524152042098e+16,2.0720573980827856e+16,3848995792058681.5,6378935330439249.0,7202046810.658278,25610464910.960667,928859540725.3408,34157034235400.57
5.199436718578522,1.066519195762098e+16,2.113350967518535e+16,3925429993709570.0,6505609625676502.0,7644754208.015836,27184732376.874672,985957670782.8718,36257311020895.945
5.403425452950093,1.0872893856347214e+16,2.1546599626242936e+16,4001876743683230.5,6632304717236807.0,8105257674.744368,28822282684.531265,1045351079940.0708,38442030355383.16
5.611493962009095,1.1080705085104084e+16,2.1959995264529532e+16,4078363733662976.5,6759066498508204.0,8584091896.556757,30525017177.217346,1107108730420.1863,40713729414765.08
5.823723841249277,1.1288696801912736e+16,2.237384003831098e+16,4154917154066368.0,6885938374833035.0,9081809164.578426,32294899803.128174,1171301855184.2246,43075028934716.555
6.040198318074262,1.1496936472251308e+16,2.2788270179869684e+16,4231561836233769.5,7012961499156970.0,9598979810.338133,34133958662.19685,1238004014035.5894,45528635275117.82
6.261002284435747,1.1705488211393538e+16,2.320341538489089e+16,4308321378429476.5,7140174980850476.0,10136192661.842836,36044287627.898415,1307291152444.3228,48077342584654.484
6.486222330124463,1.191441308871819e+16,2.3619399416727772e+16,4385218257845893.5,7267616071333044.0,10694055520.400202,38028048042.83365,1379241663047.5923,50724035063983.31
6.715946776726952,1.2123769399014618e+16,2.4036340645482652e+16,4462273930460103.0,7395320329565591.0,11273195657.971355,40087470487.31771,1453936449798.3477,53471689326423.8
6.950265712261491,1.2333612905043572e+16,2.4454352530330852e+16,4539508920310956.0,7523321770008991.0,11874260334.936047,42224856620.556564,1531458994746.9197,56323376855617.42
7.18927102650672,1.254399705498098e+16,2.48735440522597e+16,4616942899531287.0,7651652995261553.0,12497917338.241623,44442581094.30719,1611895427451.9255,59282266560011.71
7.433056447036854,1.2754973177842432e+16,2.5294020103353948e+16,4694594760275927.0,7780345315265100.0,13144855539.982082,46743093539.18834,1695334597026.3782,62351627424390.63
7.681717575977592,1.2966590659546908e+16,2.5715881837883652e+16,4772482679523619.0,7909428854701174.0,13815785476.52191,49128920624.048775,1781868146833.867,65534831258994.71
7.935351927497144,1.3178897101906958e+16,2.6139226989721868e+16,4850624177595030.0,8038932649972798.0,14511439948.338491,51602668189.01037,1871590591857.1677,68835355547053.47
8.194058966047088,1.3391938466520886e+16,2.65641501599997e+16,4929036171113657.0,8168884736976507.0,15232574640.810696,54167023452.99611,1964599398768.6182,72256786391814.1
8.45794014536803,1.3605759205277884e+16,2.699074307838507e+16,5007735021039505.0,8299312230708546.0,15979968766.2288,56824757296.722374,2060995068737.863,75802821564372.25
8.72709894827539,1.3820402378963458e+16,2.7419094840928264e+16,5086736576323094.0,8430241397612520.0,16754425727.345768,59578726622.29133,2160881223018.1294,79477273653824.98
9.0016409272409,1.4035909765260784e+16,2.784929212703908e+16,5166056213656311.0,8561697721458554.0,17556773802.829212,62431876790.66313,2264364691357.458,83284073321455.66
9.281673745785717,1.4252321957280594e+16,2.8281419397838012e+16,5245708873737360.0,8693705963444979.0,18387866855.011566,65387244138.42002,2371555603286.089,87227272660836.62
9.567307220701432,1.4469678453611472e+16,2.8715559077846068e+16,5325709094414757.0,8826290217127961.0,19248585060.36947,68447958575.35759,2482567482335.745,91311048665904.12
9.85865336511546,1.4688017740763542e+16,2.9151791721739972e+16,5406071041031413.0,8959473958710630.0,20139835663.198223,71617246264.55557,2597517343250.741,95539706809213.08
10.155826432417769,1.490737736877185e+16,2.959019616769451e+16,5486808534251296.0,9093280093160186.0,21062553752.975605,74898432386.69032,2716525792254.7583,99917684732727.83
10.458942961066125,1.5127794020638426e+16,3.0030849678654336e+16,5567935075618234.0,9227730996566530.0,22017703065.941124,78294943990.45616,2839717130441.1914,104449556053646.44
10.768121820287448,1.5349303576212022e+16,3.04738280727254e+16,5649463871067500.0,9362848555107882.0,23006276811.44396,81810312931.06569,2967219460358.3525,109140034287890.4
11.083484256693197,1.557194117103779e+16,3.0919205843739412e+16,5731407852586052.0,9498654200948286.0,24029298523.641132,85448178898.89612,3099164795864.6187,113993976894024.97
11.405153941827061,1.5795741250649198e+16,3.136705627293057e+16,5813779698195163.0,9635168945354900.0,25087822939.153667,89212292540.44064,3235689175331.8135,119016389440499.28
11.733257020663602,1.6020737620723098e+16,3.1817451532558344e+16,5896591850410507.0,9772413409291704.0,26182936901.314972,93106518673.82396,3376932778278.8735,124212429899224.52
12.067922161076874,1.6246963493473268e+16,3.2270462782224228e+16,5979856533317819.0,9910407851719076.0,27315760291.671844,97134839601.22798,3523040045520.6064,129587413068626.3
12.409280604298411,1.6474451530618294e+16,3.2726160258547104e+16,6063585768387501.0,1.0049172195803418e+16,28487446989.42267,101301358520.66292,3674159802920.3584,135146815129433.86
12.75746621638438,1.670323388322363e+16,3.3184613358797372e+16,6147791389139114.0,1.018872605322032e+16,29699185859.504654,105610303039.61276,3830445388837.89,140896278336586.5
13.112615540712067,1.6933342228688356e+16,3.3645890719025384e+16,6232485054754530.0,1.032908874671578e+16,30952201770.06475,110066028793.17395,3992054785367.644,146841615850749.8
13.474867851526309,1.7164807805118062e+16,3.4110060287167124e+16,6317678262729304.0,1.047027933107342e+16,32247756640.075756,114673023169.38556,4159150753465.4404,152988816713072.84
13.844365208556836,1.7397661443302128e+16,3.457718939156277e+16,6403382360642181.0,1.0612316612619832e+16,33587150517.88316,119435909144.55432,4331900972064.954,159344050966913.47
14.221252512727972,1.7631933596492094e+16,3.504734480528032e+16,6489608557115375.0,1.0755219167389234e+16,34971722691.49397,124359449231.45142,4510478181288.68,165913674930396.3
14.605677562982532,1.7867654368158248e+16,3.552059280659931e+16,6576367932030629.0,1.0899005358054396e+16,36402852831.44392,129448549543.35904,4695060329861.228,172704236623778.4
14.997791114242183,1.8104853537885028e+16,3.5996999235976556e+16,6663671446060291.0,1.1043693349722572e+16,37881962167.10357,134708263977.02899,4885830726836.097,179722481355725.28
15.397746936527026,1.8343560585550452e+16,3.647662954978538e+16,6751529949566743.0,1.1189301124684446e+16,39410514697.31319,140143798517.7116,5082978197750.444,186975357472720.6
15.805701875257567,1.8583804713921028e+16,3.695954887109214e+16,6839954190918798.0,1.1335846496196916e+16,40990018436.257835,145760515669.4996,5286697245325.717,194470022275950.47
16.221815912762718,1.882561486978216e+16,3.744582203771366e+16,6928954824268765.0,1.1483347121372088e+16,42622026695.52192,151563939014.33286,5497188214835.321,202213848110139.75
16.64625223101797,1.9069019763711908e+16,3.793551364777195e+16,7018542416830540.0,1.1631820513239032e+16,44308139403.293175,157559757903.09424,5714657464264.003,210214428628936.8
17.079177275638333,1.931404788859734e+16,3.8428688102948664e+16,7108727455694779.0,1.1781284052038816e+16,46050004461.70285,163753832282.33554,5939317539387.049,218479585241570.75
17.5207608211511,1.956072753698434e+16,3.892540964962224e+16,7199520354214414.0,1.1931754995807036e+16,47849319143.330086,170152197660.25745,6171387353901.07,227017373745644.84
17.97117603757412,1.9809086817341084e+16,3.942574241805441e+16,7290931457990903.0,1.2083250490294876e+16,49707831527.91319,176761070215.67355,6411092374741.428,235836091151048.78
18.430599558325603,2.0059153669312084e+16,3.9929750459780696e+16,7382971050488315.0,1.2235787578273334e+16,51627341980.34644,183586852053.784,6658664812725.475,244944282700117.2
18.899211549492115,2.0310955878029948e+16,4.043749778334413e+16,7475649358301217.0,1.238938320826375e+16,53609704671.06746,190636136612.69412,6914343818663.728,254350749089296.47
19.37719578048196,2.0564521087548572e+16,4.094904838850468e+16,7568976556098688.0,1.2544054242731226e+16,55656829139.96984,197915714224.70386,7178375685085.862,264064553897717.1
19.864739696091597,2.081987681345415e+16,4.14644662990396e+16,7662962771265985.0,1.2699817465777756e+16,57770681905.00287,205432577836.51202,7451014053731.088,274095031228213.66
20.36203449001343,2.107705045470726e+16,4.1983815594248264e+16,7757618088263207.0,1.2856689590365316e+16,59953288116.65478,213193928892.57745,7732520128957.372,284451793566472.8
20.869275179813698,2.1336069304763964e+16,4.25071604392601e+16,7852952552718424.0,1.3014687265099722e+16,62206733259.54172,221207183385.99515,8023162897227.395,295144739864149.7
21.38666068340997,2.1596960562020224e+16,4.303456511424125e+16,7948976175271844.0,1.3173827080601436e+16,64533164902.35873,229479978081.34354,8323219352832.797,306184063851913.75
21.91439389707817,2.1859751339619996e+16,4.356609404258469e+16,8045698935185950.0,1.3334125575488694e+16,66934794497.48014,238020176914.08963,8632974730023.388,317580262588579.4
22.452681775019734,2.212446867466472e+16,4.41018118181656e+16,8143130783734918.0,1.3495599241994804e+16,69413899231.52765,246835877571.2356,8952722741711.121,329344145252570.06
23.00173541052013,2.2391139536858212e+16,4.4641783231735816e+16,8241281647386639.0,1.365826453124162e+16,71972823928.25992,255935418258.0191,9282765824923.326,341486842182190.1
23.561770118730532,2.2659790836618876e+16,4.518607329652697e+16,8340161430788313.0,1.3822137858187624e+16,74613983005.16505,265327384655.58835,9623415393183.873,354019814171281.9
24.133005521105144,2.2930449432687296e+16,4.573474727312547e+16,8439780019566742.0,1.3987235606268778e+16,77339862485.17911,275020617074.70276,9974992096005.502,366954862027030.8
24.715665631527248,2.320314213925757e+16,4.6287870693680984e+16,8540147282952827.0,1.4153574131748274e+16,80153022064.98163,285024217810.6229,10337826085680.797,380304136396854.1
25.309978944157795,2.3477895732655096e+16,4.68455093855039e+16,8641273076239599.0,1.4321169767790102e+16,83056097241.35765,295347558704.4847,10712257291563.39,394080147871436.3
25.91617852304095,2.3754736957585476e+16,4.740772949410173e+16,8743167243082114.0,1.4490038828270548e+16,86051801497.14543,306000288916.57214,11098635702036.64,408295777371216.44
26.53450209350177,2.40336925329734e+16,4.797459750570927e+16,8845839617646456.0,1.4660197611339864e+16,89142928548.33926,316992342917.0412,11497321654370.656,422964286823719.9
27.165192135371807,2.431478915741223e+16,4.8546180269349944e+16,8949300026615583.0,1.4831662402746748e+16,92332354653.93156,328333948699.76624,11908686132673.46,438099330139357.8
27.808495978079243,2.4598053514241576e+16,4.9122545018479576e+16,9053558291058162.0,1.5004449478935086e+16,95623040990.13855,340035636225.1231,12333111074147.68,453714964493493.3
28.464665897640828,2.488351227626836e+16,4.970375939224785e+16,9158624228166296.0,1.5178575109924342e+16,99018036090.67325,352108246097.64087,12770989683867.764,469825661922724.94
29.133959215593645,2.5171192110148456e+16,5.028989145641683e+16,9264507652867972.0,1.5354055561981682e+16,102520478354.78018,364562938484.62054,13222726758298.523,486446321243544.2
29.816638399905518,2.546111968043989e+16,5.088100972397423e+16,9371218379319144.0,1.5530907100094764e+16,106133598624.77765,377411202281.9208,13688739017780.877,503592280301707.4
30.51297116790363,2.5753321653342896e+16,5.147718317547225e+16,9478766222280156.0,1.570914599025284e+16,109860722834.89703,390664864533.2778,14169455448215.158,521279328560847.3
31.223230591261704,2.604782470013692e+16,5.20784812791274e+16,9587160998380820.0,1.5888788501543664e+16,113705274733.24406,404336100109.65656,14665317652177.854,539523720039037.94
31.947695203086937,2.634465550032598e+16,5.268497401070825e+16,9696412527278198.0,1.6069850908071754e+16,117670778678.75719,418437441655.2818,15176780209713.162,558342186602238.0
32.686649107148675,2.6643840744502628e+16,5.329673187324355e+16,9806530632710410.0,1.6252349490705488e+16,121760862515.06203,432981789807.1266,15704311049045.494,577751951623691.4
33.44038208929165,2.6945407136938012e+16,5.391382591657575e+16,9917525143450260.0,1.6436300538657094e+16,125979260523.18564,447982423694.8181,16248391827464.584,597770744018639.4
34.20918973107749,2.7249381397908724e+16,5.453632775678666e+16,1.0029405894161472e+16,1.6621720350901782e+16,130329816455.1087,463453011728.0199,16809518322640.67,618416812663809.4
34.993373525699035,2.75557902657655e+16,5.516430959552088e+16,1.0142182726160068e+16,1.6808625237439942e+16,134816486650.20836,479407622678.5576,17388200834632.143,639708941211430.5
35.793240996213015,2.786466049875262e+16,5.579784423923043e+16,1.0255865488084312e+16,1.699703152040658e+16,139443343236.65305,495860737064.65546,17984964598854.195,661666463307661.6
36.60910581613728,2.817601887658354e+16,5.643700511836261e+16,1.0370464036474158e+16,1.7186955535032754e+16,144214577419.8845,512827258844.8433,18600350210281.7,684309278225599.4
37.44128793246003,2.8489892201778188e+16,5.708186630651572e+16,1.0485988236263868e+16,1.7378413630461044e+16,149134502860.345,530322527429.23737,19234914059166.61,707657866923170.1
38.29011369110923,2.8806307300767892e+16,5.773250253958034e+16,1.0602447961188404e+16,1.7571422170419766e+16,154207559142.6644,548362330016.04175,19889228778554.395,731733308536499.9
39.15591596493141,2.9125291024771716e+16,5.83889892348885e+16,1.0719853094106368e+16,1.7765997533757474e+16,159438315338.55792,566962914261.2997,20563883703890.87,756557297319474.2
40.03903428423004,2.9446870250449908e+16,5.90514025103916e+16,1.0838213527239938e+16,1.7962156114841228e+16,164831473665.73764,586141001290.0735,21259485345015.74,782152160040537.2
40.93981496991464,2.977107188033605e+16,5.971981920388224e+16,1.0957539162334392e+16,1.8159914323820804e+16,170391873245.1847,605913799057.3752,21976657870846.773,808540873847884.4
41.85861126931294,3.009792284305351e+16,6.039431689228297e+16,1.107783991073763e+16,1.835928858676029e+16,176124493959.16235,626299016067.3868,22716043607060.84,835747084614490.8
