t(s),Total solute volume 1,Total retention volume 1,Total 1 volume 1,Total 2 volume 1,Total 3 volume 1,Total 4 volume 1,Total 5 volume 1,Total 6 volume 1
0.1,1384269013029218.2,1.039366397781807e+16,2531887414418598.5,6477507550370256.0,0.0,0.0,0.0,0.013903653951609765
0.202,1911716227448239.8,1.5350602630965116e+16,3496614555522269.0,8945704131951603.0,702131811449.0132,4793942502492.387,166072578988168.38,824999062740896.9
0.30604000000000003,2252378886848510.0,1.9538340625971496e+16,4119702270612390.5,1.0539814227366666e+16,1671122178859.6377,11424370875179.031,419210024283145.5,2194139723806745.5
0.41216080000000005,2487734399712472.0,2.334671916791678e+16,4550178220515858.0,1.1641143040976556e+16,2796428936360.924,19126579663530.25,721320047342110.8,3924420450769900.0
0.5204040160000001,2658324604444095.0,2.6948574120083484e+16,4862195402438557.0,1.2439405862127266e+16,4024371968796.2734,27531810217554.918,1053498309098391.1,5903593759788824.0
0.6308120963200001,2786739689800972.5,3.0434153553912544e+16,5097072351294497.0,1.3040312903436666e+16,5326727065308.421,36446480361877.945,1406146423509240.0,8062108978443986.0
0.7434283382464002,2886379695688254.5,3.385638662865075e+16,5279318373381360.0,1.350656915846889e+16,6687687200302.385,45762360973035.66,1774404588573494.5,1.0357264764365422e+16
0.8582969050113283,2965540603286182.0,3.724906899140389e+16,5424107205267158.0,1.387699525746246e+16,8097744177143.616,55414447576771.195,2155765753388035.5,1.2763147980246144e+16
0.9754628431115548,3029578421592097.0,4.063519449711946e+16,5541235233438062.0,1.4176654296254252e+16,9550785854846.428,65360985799466.27,2548837869842108.5,1.5263976904338628e+16
1.094972099973786,3082079248198253.0,4.403120860228703e+16,5637261592447594.0,1.442232712852034e+16,11042616603992.887,75573306268044.6,2952732228042235.0,1.7850192482206588e+16
1.2168715419732616,3125574424736328.0,4.7449353408957544e+16,5716816219110482.0,1.462585893246637e+16,12570377207696.445,86031859201348.67,3366828686490395.5,2.0515672909744936e+16
1.3412089728127268,3161904361151465.5,5.089905474710132e+16,5783265304593513.0,1.479586171947997e+16,14132100063727.15,96723176341910.48,3790672081763491.0,2.3256496003707256e+16
1.4680331522689813,3192451368837153.5,5.438778799508039e+16,5839137157256277.0,1.49388038689168e+16,15726486228555.432,107638355226793.0,4223935522674195.5,2.607009523594061e+16
1.597393815314361,3218281180465942.0,5.792164250895166e+16,5886381048981591.0,1.5059672362207282e+16,17352754662867.148,118772034524006.84,4666403302688634.0,2.8954779825421344e+16
1.729341691620648,3240232289332527.0,6.1505702221013976e+16,5926530620872086.0,1.5162390839105084e+16,19010531005998.668,130121636562117.4,5117955964405181.0,3.1909460339730984e+16
1.863928525453061,3258974407801185.5,6.514430879090434e+16,5960810806335547.0,1.5250093148056e+16,20699759630079.895,141686766812779.97,5578554078584756.0,3.493348982368399e+16
2.001207095962122,3275048188007183.0,6.884124721665338e+16,5990210481978499.0,1.532530921464118e+16,22420631504356.055,153468720300489.62,6048221807246243.0,3.802656817297543e+16
2.1412312378813647,3288893325252259.0,7.259987922015248e+16,6015533869933961.0,1.5390096548024042e+16,24173524804853.88,165470074777231.06,6527031976437822.0,4.118867990092228e+16
2.284055862638992,3300869256648905.5,7.642324101555427e+16,6037438396579819.0,1.5446137097787194e+16,25958956928588.47,177694361940717.97,7015093752537029.0,4.442004919313202e+16
2.4297369798917723,3311270949088307.5,8.03141165075612e+16,6056463569420916.0,1.549481113192541e+16,27777546891460.723,190145809883664.44,7512543222107598.0,4.7721104278243816e+16
2.578331719489608,3320341263685111.5,8.42750932782797e+16,6073053592201126.0,1.5537255094921206e+16,29629986893045.867,202829148454759.44,8019536619019830.0,5.1092447573104616e+16
2.7298983538794,3328280806564733.0,8.830860625845182e+16,6087575382427484.0,1.5574407703472578e+16,31517021602435.42,215749467574673.66,8536245678543757.0,5.453483019826614e+16
2.884496320956988,3335255851187439.0,9.241697235332958e+16,6100333061650647.0,1.5607047018192108e+16,33439433637249.887,228912117978682.8,9062854550763552.0,5.804913031991992e+16
3.0421862473761276,3341404735191777.0,9.66024182394159e+16,6111579655573858.0,1.563582037697446e+16,35398033785774.28,242322644407603.4,9599557777681714.0,6.163633501580068e+16
3.2030299723236504,3346843029442741.5,1.0086710287435942e+17,6121526548469711.0,1.5661268583013462e+16,37393654708033.445,255986742565064.03,1.0146558954494088e+16,6.529752536166631e+16
3.3670905717701234,3351667711754640.5,1.0521313583252317e+17,6130351117102644.0,1.5683845435288956e+16,39427147085395.914,269910232779753.3,1.0704069810933822e+16,6.903386437757794e+16
3.5344323832055258,3355960533150661.0,1.0964259230057358e+17,6138202887765131.0,1.5703933480607194e+16,41499377424215.23,284099044939592.75,1.1272309543035516e+16,7.284658743365128e+16
3.7051210308696363,3359790730844309.0,1.141575253809646e+17,6145208498439341.0,1.5721856708692594e+16,43611226929894.71,298559210714989.5,1.1851504294213352e+16,7.673699471113016e+16
3.879223451487029,3363217214862746.0,1.1875997621956888e+17,6151475698226624.0,1.5737890784242656e+16,45763591041599.09,313296860280051.44,1.2441886729899252e+16,8.070644534101595e+16
4.0568079205167695,3366290332369480.0,1.2345198237535645e+17,6157096574370674.0,1.5752271302874258e+16,47957379352667.86,328318221662426.3,1.3043695677585458e+16,8.475635288714144e+16
4.237944078927105,3369053294389099.0,1.2823558477280134e+17,6162150161799349.0,1.5765200467319638e+16,50193515741216.17,343629621530436.6,1.3657175819474826e+16,8.888818189254678e+16
4.422702960505647,3371543333326148.0,1.3311283351496744e+17,6166704560277251.0,1.5776852503905856e+16,52472938605426.14,359237486702530.44,1.428257743255983e+16,9.310344525959043e+16
4.61115701971576,3373792646074069.5,1.3808579278335405e+17,6170818659393336.0,1.5787378075729402e+16,54796601145111.26,375148345983629.06,1.4920156174071324e+16,9.740370228095714e+16
4.803380160110075,3375829166321542.5,1.4315654500747216e+17,6174543551143169.0,1.5796907896581132e+16,57165471661201.59,391368832136559.56,1.5570172910993214e+16,1.0179055717863538e+17
4.9994477633122765,3377677200572232.5,1.4832719445138912e+17,6177923693237091.0,1.580555570713503e+16,59580533862797.71,407905683918384.56,1.6232893592028426e+16,1.0626565804063507e+17
5.199436718578522,3379357955091903.0,1.5359987033508394e+17,6180997872909877.0,1.5813420740744952e+16,62042787181260.07,424765748177569.56,1.6908589159749534e+16,1.1083069607122878e+17
5.403425452950093,3380889975190562.0,1.589767295844999e+17,6183800010387305.0,1.5820589779023568e+16,64553247095344.63,441955982038391.44,1.7597535500038686e+16,1.1548740509072603e+17
5.611493962009095,3382289513668782.0,1.6445995928483597e+17,6186359832790995.0,1.5827138875953494e+16,67112945472733.98,459483455207839.8,1.830001342546697e+16,1.2023756123627507e+17
5.823723841249277,3383570841671273.0,1.7005177889615338e+17,6188703442703494.0,1.5833134812499368e+16,69722930932881.73,477355352437204.06,1.9016308689021376e+16,1.2508298282688768e+17
6.040198318074262,3384746512395615.5,1.757544422781044e+17,6190853800503478.0,1.5838636330611008e+16,72384269234813.34,495578976161873.75,1.9746712024537332e+16,1.300255303646602e+17
6.261002284435747,3385827585932885.5,1.8157023956091987e+17,6192831135609428.0,1.5843695185347038e+16,75098043691995.69,514161749332503.06,2.0491519210298756e+16,1.3506710665070717e+17
6.486222330124463,3386823821832540.5,1.875014988922221e+17,6194653298689484.0,1.5848357045967394e+16,77865355614925.05,533111218440888.5,2.125103115247982e+16,1.4020965699919698e+17
6.715946776726952,3387743844677164.0,1.9355058808331562e+17,6196336064505257.0,1.5852662270728004e+16,80687324780867.56,552435056735710.1,2.2025553985384004e+16,1.4545516953650467e+17
6.950265712261491,3388595286936939.5,1.9971991617400406e+17,6197893393199124.0,1.585664657535795e+16,83565089929266.38,572141067617209.2,2.281539918575493e+16,1.5080567557520874e+17
7.18927102650672,3389384912580963.5,2.060119349313948e+17,6199337656384978.0,1.5860341611489866e+16,86499809280719.38,592237188195821.0,2.362088369876453e+16,1.5626325005469782e+17
7.433056447036854,3390118724300873.5,2.1242914029535722e+17,6200679833265170.0,1.5863775468405536e+16,89492661077084.2,612731492997551.2,2.444233007361084e+16,1.6183001204170016e+17
7.681717575977592,3390802056711202.0,2.1897407378111405e+17,6201929681098191.0,1.586697310916055e+16,92544844140148.34,633632197798179.6,2.528006660696733e+16,1.675081252852386e+17
7.935351927497144,3391439657500017.5,2.2564932384772006e+17,6203095883626936.0,1.5869956750323388e+16,95657578446342.58,654947663568740.6,2.613442749281279e+16,1.7329979882144176e+17
8.194058966047088,3392035758189408.5,2.3245752723982317e+17,6204186180502871.0,1.5872746193094424e+16,98832105715145.27,676686400515972.2,2.700575297742854e+16,1.7920728762437677e+17
8.45794014536803,3392594135910831.5,2.394013703090179e+17,6205207480275988.0,1.5875359112379648e+16,102069690009068.88,698857072203131.5,2.789438951858067e+16,1.852328932996586e+17
8.72709894827539,3393118167391840.5,2.464835903202169e+17,6206165959139017.0,1.5877811309418102e+16,105371618343404.81,721468499738610.5,2.8800689948105452e+16,1.9137896481808032e+17
9.0016409272409,3393610876178414.0,2.5370697674776154e+17,6207067147299214.0,1.5880116932755726e+16,108739201304214.17,744529666021892.0,2.9725013637289456e+16,1.976478992869126e+17
9.281673745785717,3394074973973377.5,2.6107437256540202e+17,6207916004588256.0,1.5882288671685906e+16,112173773673350.48,768049720038521.1,3.0667726664584544e+16,2.0404214275685814e+17
9.567307220701432,3394512896850518.0,2.6858867553379094e+17,6208716986699531.0,1.5884337925711192e+16,115676695059593.14,792037981197744.9,3.1629201985321756e+16,2.105641910629507e+17
9.85865336511546,3394926837001622.0,2.7625283948872627e+17,6209474103254906.0,1.5886274953101486e+16,119249350535234.38,816503943708317.4,3.260981960319328e+16,2.1721659069793136e+17
10.155826432417769,3395318770586276.0,2.8406987563303555e+17,6210190968743321.0,1.588810900121559e+16,122893151277701.48,841457280989601.8,3.36099667433566e+16,2.2400193971686646e+17
10.458942961066125,3395690482179505.0,2.9204285383469606e+17,6210870847236647.0,1.5889848420902372e+16,126609535215998.31,866907850116516.4,3.4630038027085504e+16,2.3092288867195974e+17
10.768121820287448,3396043586247845.0,3.0017490393353754e+17,6211516691670381.0,1.589150076699673e+16,130399967681933.64,892865696298105.0,3.56704356479493e+16,2.379821415766933e+17
11.083484256693197,3396379546028710.5,3.084692170586472e+17,6212131178374930.0,1.589307288666452e+16,134265942066242.86,919341057390494.0,3.673156954954606e+16,2.451824568985764e+17
11.405153941827061,3396699690139821.0,3.169290469584228e+17,6212716737454978.0,1.589457099712536e+16,138208980479838.61,946344368445869.0,3.781385760485148e+16,2.525266485799253e+17
11.733257020663602,3397005227203423.0,3.255577113450369e+17,6213275579537896.0,1.589600075408581e+16,142230634420515.7,973886266299733.1,3.8917725797271704e+16,2.6001758708621782e+17
12.067922161076874,3397297258733735.5,3.343585932549527e+17,6213809719345446.0,1.5897367312045414e+16,146332485445516.5,1001977594199258.4,4.004360840350998e+16,2.6765820048167328e+17
12.409280604298411,3397576790504276.5,3.433351424269862e+17,6214320996485175.0,1.589867537748949e+16,150516145850417.12,1030629406475916.6,4.119194817837041e+16,2.7545147553181053e+17
12.75746621638438,3397844742584173.5,3.524908766993223e+17,6214811093807266.0,1.5899929255853478e+16,154783259354839.62,1059852973265883.5,4.236319654163497e+16,2.8340045883282173e+17
13.112615540712067,3398101958208434.5,3.618293834267805e+17,6215281553628710.0,1.5901132893030854e+16,159135501795521.9,1089659785281899.6,4.3557813767155176e+16,2.915082579676798e+17
13.474867851526309,3398349211626237.5,3.713543209195532e+17,6215733792088149.0,1.5902289912098792e+16,163574581827299.94,1120061558640421.2,4.477626917430581e+16,2.9977804268896646e+17
13.844365208556836,3398587215052927.5,3.810694199045685e+17,6216169111861435.0,1.5903403645849684e+16,168102241632563.2,1151070239747954.0,4.601904132194912e+16,3.08213046128475e+17
14.221252512727972,3398816624835535.5,3.9097848501055917e+17,6216588713438638.0,1.590447716564231e+16,172720257639753.44,1182698010250496.0,4.7286618205059944e+16,3.168165660336926e+17
14.605677562982532,3399038046927642.5,4.010853962778779e+17,6216993705137832.0,1.5905513307021232e+16,177430441251470.22,1214957292050020.2,4.857949745416004e+16,3.255919660313297e+17
14.997791114242183,3399252041757362.0,4.1139411069404384e+17,6217385112008853.0,1.5906514692496232e+16,182234639582746.5,1247860752391886.8,4.989818653771029e+16,3.345426769180964e+17
15.397746936527026,3399459128561577.5,4.21908663755972e+17,6217763883760824.0,1.5907483751824182e+16,187134736210049.0,1281421309027031.8,5.124320296760597e+16,3.4367219797898234e+17
15.805701875257567,3399659789250388.5,4.326331710597994e+17,6218130901830424.0,1.590842274009256e+16,192132651931546.72,1315652135452711.2,5.2615074507918536e+16,3.529840983333233e+17
16.221815912762718,3399854471857684.0,4.435718299191995e+17,6218486985693131.0,1.5909333753866188e+16,197230345539182.66,1350566666235530.5,5.401433938702484e+16,3.6248201830898285e+17
16.64625223101797,3400043593626737.0,4.547289210130474e+17,6218832898506906.0,1.5910218745626168e+16,202429814603074.16,1386178602420377.5,5.5441546513261944e+16,3.721696708450022e+17
17.079177275638333,3400227543773622.0,4.6610881006328646e+17,6219169352166660.0,1.5911079536701172e+16,207733096268751.6,1422501917028854.2,5.6897255694242376e+16,3.820508429231051e+17
17.5207608211511,3400406685965943.0,4.777159495438212e+17,6219497011837904.0,1.5911917828866514e+16,213142268067739.56,1459550860650690.5,5.8382037859964e+16,3.9212939702846854e+17
17.97117603757412,3400581360549694.0,4.895548804212627e+17,6219816500029829.0,1.5912735214764672e+16,218659448741970.38,1497339967131570.5,5.989647528984372e+16,4.024092726402012e+17
18.430599558325603,3400751886553049.5,5.016302339283321e+17,6220128400260318.0,1.5913533187281956e+16,224286799082513.94,1535884059360743.2,6.144116184380459e+16,4.12894487751989e+17
18.899211549492115,3400918563492350.5,5.1394673337073005e+17,6220433260359166.0,1.5914313147999502e+16,230026522783094.3,1575198255161732.2,6.301670319754191e+16,4.235891404233925e+17
19.37719578048196,3401081673002447.5,5.265091959682687e+17,6220731595450063.0,1.5915076414822418e+16,235880867308860.12,1615297973289381.8,6.462371708209401e+16,4.344974103623016e+17
19.864739696091597,3401241480310901.0,5.393225347310667e+17,6221023890646999.0,1.5915824228878306e+16,241852124780867.6,1656198939536487.5,6.626283352784055e+16,4.456235605390726e+17
20.36203449001343,3401398235573201.0,5.5239176037160704e+17,6221310603496399.0,1.5916557760765252e+16,247942632876725.53,1697917192953149.0,6.793469511305109e+16,4.569719388328911e+17
20.869275179813698,3401552175084054.5,5.657219832534558e+17,6221592166192666.0,1.5917278116220144e+16,254154775747853.66,1740469092182028.2,6.963995721710475e+16,4.6854697971092416e+17
21.38666068340997,3401703522378096.5,5.793184153774455e+17,6221868987591412.0,1.59179863412693e+16,260490984953794.34,1783871321912609.2,7.137928827850282e+16,4.8035320594083776e+17
21.91439389707817,3401852489231715.5,5.931863724061341e+17,6222141455041836.0,1.5918683426916502e+16,266953740414019.03,1828140899457564.0,7.315337005779326e+16,4.923952303372793e+17
22.452681775019734,3401999276576381.0,6.073312757273498e+17,6222409936057286.0,1.5919370313416976e+16,273545571377670.56,1873295181454353.5,7.496289790552846e+16,5.046777575429387e+17
23.00173541052013,3402144075332630.5,6.217586545576472e+17,6222674779840608.0,1.592004789417983e+16,280269057411670.9,1919351870695092.8,7.680858103537637e+16,5.1720558584481114e+17
23.561770118730532,3402287067172832.5,6.364741480865023e+17,6222936318679298.0,1.5920717019337548e+16,287126829407641.7,1966329023087834.0,7.869114280250506e+16,5.2998360902631194e+17
24.133005521105144,3402428425219891.0,6.514835076620823e+17,6223194869223478.0,1.5921378499015488e+16,294121570608062.06,2014245054752316.8,8.061132098736237e+16,5.430168182559006e+17
24.715665631527248,3402568314688317.5,6.667925990194464e+17,6223450733658439.0,1.5922033106331728e+16,301256017652114.3,2063118749253318.8,8.256986808497232e+16,5.5631030401289005e+17
25.309978944157795,3402706893473283.0,6.824074045520257e+17,6223704200782036.0,1.59226815801536e+16,308532961641645.4,2112969264974725.2,8.456755159987035e+16,5.698692580511299e+17
25.91617852304095,3402844312692751.5,6.983340256272635e+17,6223955546996271.0,1.592332462763449e+16,315955249227697.6,2163816142637470.2,8.660515434680192e+16,5.83698975401273e+17
26.53450209350177,3402980717187121.0,7.145786849472901e+17,6224205037221199.0,1.5923962926552014e+16,323525783718042.75,2215679312964504.8,8.868347475730805e+16,5.978048564123393e+17
27.165192135371807,3403116245980462.0,7.311477289555341e+17,6224452925738507.0,1.5924597127466244e+16,331247526206179.6,2268579104496019.0,9.080332719232562e+16,6.121924088333206e+17
27.808495978079243,3403251032706861.0,7.480476302901701e+17,6224699456971349.0,1.5925227855714886e+16,339123496722240.6,2322536251558149.0,9.296554226092826e+16,6.268672499355684e+17
28.464665897640828,3403385206005123.5,7.652849902853408e+17,6224944866206244.0,1.5925855713260186e+16,347156775406266.25,2377571902388419.0,9.517096714533829e+16,6.418351086767361e+17
29.133959215593645,3403518889884669.0,7.828665415210679e+17,6225189380262377.0,1.5926481280401222e+16,355350503704315.6,2433707627421267.5,9.742046593233978e+16,6.571018279070543e+17
29.816638399905518,3403652204065250.5,8.007991504228252e+17,6225433218112878.0,1.5927105117363524e+16,363707885587873.5,2490965427737011.0,9.971491995122656e+16,6.726733666187322e+17
30.51297116790363,3403785264292729.0,8.190898199117263e+17,6225676591462468.0,1.5927727765776802e+16,372232188797036.8,2549367743677608.0,1.0205522811841838e+17,6.885558022393014e+17
31.223230591261704,3403918182633084.0,8.37745692106318e+17,6225919705285162.0,1.5928349750050722e+16,380926746107955.7,2608937463632761.5,1.0444230728888376e+17,7.047553329697245e+17
31.947695203086937,3404051067746451.5,8.567740510769723e+17,6226162758325526.0,1.5928971578657268e+16,389794956625018.8,2669697932999783.5,1.0687709261450672e+17,7.212782801681114e+17
32.686649107148675,3404184025142940.0,8.76182325653898e+17,6226405943566575.0,1.5929593745327866e+16,398840287098280.25,2731672963320855.5,1.093605379095402e+17,7.38131090779901e+17
33.44038208929165,3404317157421740.5,8.959780922898e+17,6226649448667105.0,1.593021673017224e+16,408066273266625.06,2794886841601258.0,1.1189361602328837e+17,7.553203398153828e+17
34.20918973107749,3404450564494912.0,9.16169077978238e+17,6226893456371008.0,1.5930841000725616e+16,417476521227190.75,2859364339812302.5,1.1447731922016458e+17,7.728527328754423e+17
34.993373525699035,3404584343797080.0,9.367631632287547e+17,6227138144890841.0,1.5931467012930058e+16,427074708831553.75,2925130724582640.0,1.1711265956727322e+17,7.907351087264492e+17
35.793240996213015,3404718590482253.0,9.577683850998563e+17,6227383688267780.0,1.5932095212055396e+16,436864587109216.9,2992211767081852.5,1.1980066932966682e+17,8.08974441925193e+17
36.60910581613728,3404853397608716.5,9.791929402909494e+17,6227630256709840.0,1.5932726033564512e+16,446849981718927.6,3060633753100123.0,1.2254240137343184e+17,8.275778454948155e+17
37.44128793246003,3404988856313010.5,1.0010451882943608e+18,6227878016910050.0,1.5933359903927352e+16,457034794428370.2,3130423493327968.0,1.2533892957675946e+17,8.465525736526947e+17
38.29011369110923,3405125055973811.5,1.0233336546085821e+18,6228127132346226.0,1.593399724138794e+16,467423004622787.5,3201608333840067.5,1.2819134924916178e+17,8.659060245912497e+17
