t(s),Total solute volume 1,Total retention volume 1,Total 1 volume 1,Total 2 volume 1,Total 3 volume 1,Total 4 volume 1,Total 5 volume 1,Total 6 volume 1
0.1,941999071437344.5,1111941895936827.4,80338108873842.89,89604715625638.98,0.0,0.0,0.0,0.0
0.202,1417874041143351.0,1676297881124518.5,120922963509266.95,134870834940793.08,4063652401.5401044,7858423364.387385,115092947890.92416,2503026507450.3193
0.30604000000000003,1779328252802237.0,2106997829807940.5,151749477872329.28,169253036812913.0,10300937149.5952,19920314652.51902,291750155848.2721,6345090912807.762
0.41216080000000005,2084210262904466.8,2472047052937428.0,177751248928905.72,198253984823304.0,18280127055.507534,35350797829.224075,517743670648.43286,11260181685216.12
0.5204040160000001,2354195397209209.0,2796905717193299.5,200776850365653.94,223935476613494.75,27807290386.91295,53774853008.048256,787580932724.901,17128829928820.219
0.6308120963200001,2600086326668434.0,3094256750019706.0,221747584746672.16,247325082493803.94,38776417471.389465,74987486501.67899,1098259612313.9073,23885732594513.004
0.7434283382464002,2828162218041734.0,3371471653098928.0,241198968932025.34,269020088573757.88,51124985029.31745,98867800040.21596,1448009045516.1243,31492375720824.62
0.8582969050113283,3042444943033937.0,3633273720597540.0,259474007047585.62,289403062826148.06,64815680568.373375,125343649024.56093,1835772615506.9429,39925775744770.87
0.9754628431115548,3245689320596556.5,3882901091411996.0,276807643003902.56,308736048791312.4,79827385863.74431,154374206228.16492,2260952379812.8457,49172925048318.555
1.094972099973786,3439877523104291.5,4122687111555309.0,293368925779217.1,327207594419354.4,96150174593.24245,185940288164.5547,2723267390221.017,59227710399466.086
1.2168715419732616,3626490581681733.5,4354378870377054.0,309284164670094.9,344958578165646.8,113782298984.7052,220038527850.9286,3222668347160.4478,70089056685588.016
1.3412089728127268,3806668566571814.0,4579325029869336.0,324650590226263.5,362097445647656.3,132728260691.97977,256677644276.4865,3759282962453.4995,81759738556174.44
1.4680331522689813,3981310538043900.5,4798592969787271.0,339544878533922.94,378709717162597.4,152997516742.89606,295875939986.775,4333379309054.48,94245583281071.8
1.597393815314361,4151139792004412.0,5013045221116524.0,354028715668141.1,394864193972177.6,174603578998.23782,337659559648.5217,4945340316100.191,107554916017045.11
1.729341691620648,4316748060751946.5,5223391223195964.0,368152567341036.7,410617162761237.1,197563368746.36826,382061242002.07245,5595645490106.537,121698162240884.62
1.863928525453061,4478626402098930.5,5430223478845164.0,381958313271283.6,426015333868879.2,221896743011.1293,429119403877.7822,6284857499566.204,136687555959622.7
2.001207095962122,4637187363812884.0,5634043488007249.0,395481137471854.44,441097949611644.7,247626140108.26636,478877454819.17725,7013612137007.602,152536921378931.72
2.1412312378813647,4792781253592318.0,5835280778580860.0,408750915830053.3,455898331914108.9,274776310259.4838,531383276194.09174,7782610690140.613,169261506967777.3
2.284055862638992,4945708320901922.0,6034307151771522.0,421793255031677.9,470445041067858.06,303374108294.51086,586688820374.8203,8592614071530.609,186877857769853.4
2.4297369798917723,5096228037803552.0,6231447533012139.0,434630284073925.94,484762758541531.75,333448332599.2108,644849799352.016,9444438258117.744,205403716203050.12
2.578331719489608,5244566279264325.0,6426988366109785.0,447281266635813.1,498872969985170.7,365029599130.0734,705925441163.0009,10338950723945.479,224857944460234.38
2.7298983538794,5390920955076846.0,6621184197151857.0,459763081394816.9,512794500949031.0,398150242444.36615,769978298566.0714,11277067638084.502,245260463552069.2
2.884496320956988,5535466481988829.0,6814262903053741.0,472090603431105.1,526543942280923.06,432844237843.43317,837074098546.5311,12259751660578.648,266632205355923.44
3.0421862473761276,5678357374526011.0,7006429890625967.0,484277010469794.5,540135991692017.06,469147140231.4494,907281624150.2596,13288010211861.729,288995074961886.0
3.2030299723236504,5819731157357358.0,7197871503453243.0,496334031261148.4,553583730786476.8,507096036365.40497,980672622216.5807,14362894121497.424,312371921268183.8
3.3670905717701234,5959710749153485.0,7388757811941157.0,508272148887234.25,566898851818546.1,546729507950.4041,1057321732087.1968,15485496584136.441,336786514257722.3
3.5344323832055258,6098406430284943.0,7579244917867236.0,520100768576471.8,580091844863680.9,588087603607.0446,1137306431475.514,16656952366808.15,362263527740248.2
3.7051210308696363,6235917479570890.0,7769476873019519.0,531828357293267.5,593172153509168.9,631211818164.7627,1220706996506.5894,17878437223757.46,388828526607771.56
3.879223451487029,6372333545441088.0,7959587288285091.0,543462560677140.6,606148305281606.2,676145078057.5052,1307606473561.5823,19151167484174.293,416507957849457.2
4.0568079205167695,6507735802170728.0,8149700692354677.0,555010301651877.25,619028021630137.1,722931731844.237,1398090661036.6409,20476399785133.062,445329144723932.4
4.237944078927105,6642197930831276.0,8339933686329181.0,566477864085625.6,631818311236331.2,771617545066.9022,1492248099493.6746,21855430927443.465,475320283603941.4
4.422702960505647,6775786956256515.0,8530395930759293.0,577870964171295.1,644525549627954.9,822249698806.2706,1590170068966.3867,23289597836302.207,506510443099442.4
4.61115701971576,6908563964939737.0,8721190994191272.0,589194811652193.1,657155547466705.2,874876791412.5068,1691950592410.191,24780277611930.996,538929565136885.75
4.803380160110075,7040584723851194.0,8912417086534790.0,600454162597704.9,669713609411280.2,929548842979.4336,1797686444462.4875,26328887657995.67,572608467729172.2
4.9994477633122765,7171900216326978.0,9104167696086408.0,611653365106406.6,682204585092139.4,986317302205.0549,1907477164822.424,27936885877686.855,607578849216153.6
5.199436718578522,7302557108168967.0,9296532145526020.0,622796399057257.4,694632913447793.2,1045235055340.1182,2021425075673.5886,29605770929018.402,643873293791992.0
5.403425452950093,7432598154711986.0,9489596079421116.0,633886910826201.8,707002661445802.1,1106356436974.439,2139635302665.9207,31337082532259.758,681525278165230.2
5.611493962009095,7562062557717487.0,9683441893558980.0,644928243723748.2,719317558031177.2,1169737242449.8494,2262215799048.63,33132401823523.176,720569179221539.0
5.823723841249277,7690986279430369.0,9878149114652170.0,655923464779197.6,731581024000037.4,1235434741720.563,2389277372608.028,34993351749438.11,761040282578788.8
6.040198318074262,7819402319907517.0,1.0073794737528352e+16,666875388392535.8,743796198379632.9,1303507694508.3914,2520933715115.2754,36921597498590.664,802974791940466.5
6.261002284435747,7947340962729777.0,1.0270453525754184e+16,677786597289905.1,755965961800920.2,1374016366621.945,2657301434031.207,38918846966029.7,846409839166903.1
6.486222330124463,8074829993395349.0,1.0468198280693398e+16,688659461149208.5,768092957272559.4,1447022547327.423,2798500086251.5137,40986851247658.22,891383494995056.1
6.715946776726952,8201894894023873.0,1.066710008322102e+16,699496153205407.5,780179608701524.2,1522589567673.89,2944652213704.1934,43127405161763.71,937934780347083.4
6.950265712261491,8328559017450650.0,1.0867228511673434e+16,710298665098073.2,792228137453272.0,1600782319688.7144,3095883380636.9873,45342347795306.19,986103678175826.8
7.18927102650672,8454843743332453.0,1.1068651839081998e+16,721068820184849.2,804240577200823.1,1681667276370.0195,3252322212453.38,47633563072892.8,1035931145802123.1
7.433056447036854,8580768618507423.0,1.1271437212295044e+16,731808285511979.8,816218787276056.8,1765312512412.0706,3414100435973.615,50002980346633.68,1087459127704558.2
7.681717575977592,8706351483532514.0,1.1475650815223848e+16,742518582606033.4,828164464706192.5,1851787725607.6338,3581352921012.8286,52452575005294.164,1140730568727208.0
7.935351927497144,8831608587055655.0,1.1681358018135314e+16,753201097228097.8,840079155093072.4,1941164258878.117,3754217723181.5205,54984369101358.95,1195789427675084.5
8.194058966047088,8956554689454346.0,1.1888623514654578e+16,763857088212552.4,851964262471473.2,2033515122888.185,3932836127824.8804,57600431994784.97,1252680691270698.0
8.45794014536803,9081203156981930.0,1.2097511447917586e+16,774487695496316.8,863821058264469.6,2128915019206.7747,4117352695027.7573,60302881012370.77,1311450388448265.0
8.72709894827539,9205566047500900.0,1.2308085527126354e+16,785093947430601.0,875650689438547.8,2227440363980.7544,4307915305620.437,63093882121793.34,1372145604964864.0
9.0016409272409,9329654188745242.0,1.2520409135598812e+16,795676767455455.8,887454185948057.9,2329169312091.648,4504675208128.122,65975650619476.38,1434814498310334.5
9.281673745785717,9453477249934552.0,1.2734545431268828e+16,806236980207387.6,899232467547304.2,2434181781768.958,4707787066613.801,68950451831553.78,1499506312899648.2
9.567307220701432,9577043807463156.0,1.2950557440473816e+16,816775317121622.5,910986350038991.6,2542559479637.2427,4917409009370.1455,72020601827278.86,1566271395533758.5
9.85865336511546,9700361405298882.0,1.3168508145766742e+16,827292421583212.5,922716551019497.5,2654385926176.2373,5133702678421.429,75188468144308.02,1635161211116239.2
10.155826432417769,9823436610651874.0,1.3388460568402316e+16,837788853674704.5,934423695174156.9,2769746481576.4346,5356833279801.382,78456470525361.97,1706228358614825.8
10.458942961066125,9946275065407976.0,1.3610477846071086e+16,848265094562654.5,946108319169737.9,2888728371974.289,5586969634577.198,81827081665824.61,1779526587258340.8
10.768121820287448,1.0068881533765516e+16,1.3834623306390806e+16,858721550560297.8,957770876185734.1,3011420716053.7275,5824284230594.131,85302827971911.23,1855110812960629.8
11.083484256693197,1.0191259946464542e+16,1.406096053660619e+16,869158556899618.8,969411740121502.1,3137914552002.1226,6068953274918.515,88886290329076.78,1933037134964499.5
11.405153941827061,1.0313413441954104e+16,1.42895534499004e+16,879576381242314.1,981031209512217.2,3268302864811.1562,6321156746960.967,92580104880402.36,2013362852699600.2
11.733257020663602,1.0435344404807108e+16,1.4520466348676264e+16,889975226955973.2,992629511182931.6,3402680613914.1597,6581078452264.351,96386963814728.81,2096146482849360.2
12.067922161076874,1.0557054501657424e+16,1.4753763985128776e+16,900355236178976.5,1004206803667002.6,3541144761153.5996,6848906076944.387,100309616164366.19,2181447776622893.8
12.409280604298411,1.067854471490629e+16,1.4989511619396688e+16,910716492695118.4,1015763180412279.5,3683794299073.386,7124831242773.613,104350868612241.17,2269327737228904.5
12.75746621638438,1.0799815374418452e+16,1.5227775075551566e+16,921059024636812.1,1027298672796129.6,3830730279532.5854,7409049562902.448,108513586308388.55,2359848637549356.0
13.112615540712067,1.092086618740635e+16,1.5468620795656336e+16,931382807033769.6,1038813252968062.0,3982055842638.097,7701760698213.23,112800693695734.69,2453074038011574.0
13.474867851526309,1.1041696266680842e+16,1.571211589210402e+16,941687764222328.8,1050306836537001.5,4137876245995.503,8003168414306.431,117215175345152.7,2549068804658403.0
13.844365208556836,1.1162304157428156e+16,1.595832819842544e+16,951973772129137.4,1061779285118342.6,4298298894278.388,8313480639120.421,121760076799817.38,2647899127416581.0
14.221252512727972,1.1282687862657818e+16,1.620732631873769e+16,962240660441462.5,1073230408754623.5,4463433369117.939,8632909521188.668,126438505428912.16,2749632538564542.5
14.605677562982532,1.1402844867451762e+16,1.645917967598938e+16,972488214675269.2,1084659968222135.1,4633391459315.664,8961671488540.713,131253631290786.55,2854337931401580.0
14.997791114242183,1.1522772162131888e+16,1.6713958559143946e+16,982716178151068.0,1096067677234670.4,4808287191383.506,9299987308256.041,136208688005695.28,2962085579120975.5
15.397746936527026,1.1642466264452678e+16,1.697173416942977e+16,992924253886587.5,1107453204554517.1,4988236860416.804,9648082146682.146,141306973638284.0,3072947153890590.5
15.805701875257567,1.1761923240914174e+16,1.7232578665775202e+16,1003112106414465.1,1118816176019800.8,5173359061306.699,10006185630330.137,146551851590024.62,3186995746145088.5
16.221815912762718,1.1881138727282446e+16,1.7496565209535626e+16,1013279363532318.4,1130156176496424.0,5363774720300.147,10374531907464.652,151946751501836.3,3304305884094843.5
16.64625223101797,1.2000107948395976e+16,1.7763768008611656e+16,1023425617991924.0,1141472751762077.8,5559607126916.335,10753359710406.287,157495170167168.97,3424953553457215.0
17.079177275638333,1.2118825737328124e+16,1.8034262361048056e+16,1033550429133504.6,1152765410329046.5,5760981966230.364,11142912418567.488,163200672455853.47,3549016217416705.0
17.5207608211511,1.2237286553971122e+16,1.830812469819778e+16,1043653324470606.5,1164033625211886.5,5968027351535.333,11543438122245.73,169066892249065.56,3676572836821318.5
17.97117603757412,1.235548450309714e+16,1.8585432627526544e+16,1053733801230500.6,1175276835645493.5,6180873857396.093,11955189687199.2,175097533385780.28,3807703890623076.0
18.430599558325603,1.2473413351950848e+16,1.8866264975129736e+16,1063791327854513.6,1186494448758514.5,6399654553108.576,12378424820034.111,181296370621136.6,3942491396571593.5
18.899211549492115,1.2591066547419128e+16,1.9150701828026396e+16,1073825345462351.4,1197685841206555.2,6624505036580.079,12813406134433.46,187667250597158.03,4081018932170207.5
19.37719578048196,1.270843723282023e+16,1.943882457629154e+16,1083835269283965.6,1208850360769206.2,6855563468646.99,13260401218261.12,194214092826318.7,4223371655904950.0
19.864739696091597,1.2825518264350728e+16,1.9730715955083076e+16,1093820490062215.4,1219987327914502.2,7092970607848.134,13719682701576.217,200940890688476.25,4369636328757737.0
20.36203449001343,1.2942302227223834e+16,2.00264600866153e+16,1103780375429230.5,1231096037334039.5,7336869845672.28,14191528325596.607,207851712441733.12,4519901336015221.0
20.869275179813698,1.3058781451529296e+16,2.0326142522129004e+16,1113714271259010.5,1242175759451590.5,7587407242300.406,14676221012650.912,214950702247810.1,4674256709386374.0
21.38666068340997,1.3174948027841796e+16,2.0629850283902544e+16,1123621502998581.5,1253225741907793.5,7844731562864.378,15174048937162.889,222242081212576.03,4832794149441793.0
21.91439389707817,1.3290793822601686e+16,2.0937671907348372e+16,1133501376979736.8,1264245211023224.0,8108994314244.318,15685305597712.916,229730148442382.9,4995607048389331.0
22.452681775019734,1.3406310493288444e+16,2.1249697483233292e+16,1143353181713112.8,1275233373241697.2,8380349782429.052,16210289890224.16,237419282116917.2,5162790513200439.0
23.00173541052013,1.3521489503405442e+16,2.1566018700062828e+16,1153176189166149.8,1286189416555663.5,8658955070464.555,16749306182323.916,245313940579292.06,5334441389103443.0
23.561770118730532,1.3636322137291632e+16,2.1886728886662536e+16,1162969656026294.5,1297112511915104.5,8944970137016.658,17302664388932.12,253418663444159.78,5510658283459412.0
24.133005521105144,1.3750799514772788e+16,2.221192305499247e+16,1172732824950550.8,1308001814621225.8,9238557835575.656,17870680049131.62,261738072724634.2,5691541590038580.0
24.715665631527248,1.3864912605664714e+16,2.2541697943224896e+16,1182464925802357.8,1318856465705971.5,9539883954331.53,18453674404377.375,270276873978866.88,5877193513714254.0
25.309978944157795,1.3978652244136498e+16,2.2876152059116828e+16,1192165176876562.2,1329675593298325.8,9849117256748.906,19051974478103.83,279039857477140.9,6067718095593460.0
25.91617852304095,1.4092009142941488e+16,2.3215385723705572e+16,1201832786113106.2,1340458313977989.0,10166429522873.402,19665913156790.984,288031899390386.1,6263221238602912.0
26.53450209350177,1.4204973907521906e+16,2.3559501115354324e+16,1211466952299952.8,1351203734117023.8,10491995591400.566,20295829272553.64,297257963001035.06,6463810733550480.0
27.165192135371807,1.4317537049990794e+16,2.3908602314175664e+16,1221066866265486.5,1361910951209830.0,10825993402540.826,20942067687318.344,306723099937191.4,6669596285682483.0
27.808495978079243,1.4429689002993592e+16,2.426279534685548e+16,1230631712060733.0,1372579055191711.5,11168604041713.457,21604979378655.805,316432451431099.3,6880689541757939.0
28.464665897640828,1.454142013345091e+16,2.4622188231904148e+16,1240160668131395.8,1383207129746103.2,11520011784105.662,22284921527338.426,326391249602915.75,7097204117661350.0
29.133959215593645,1.4652720756181902e+16,2.498689102535596e+16,1249652908479726.5,1393794253600446.2,11880404140130.92,22982257606692.3,336604818770843.25,7319255626576207.0
29.816638399905518,1.4763581147407112e+16,2.535701586694029e+16,1259107603816087.2,1404339501810605.0,12249971901824.41,23697357473819.51,347078576788688.2,7546961707742145.0
30.51297116790363,1.4873991558128038e+16,2.5732677026745164e+16,1268523922700059.8,1414841947033571.0,12628909190211.848,24430597462761.18,357818036411924.9,7780442055818640.0
31.223230591261704,1.4983942227380174e+16,2.611399095239488e+16,1277901032670714.5,1425300660788099.2,13017413503690.39,25182360479680.438,368828806693388.2,8019818450879125.0
31.947695203086937,1.5093423395354942e+16,2.6501076316760404e+16,1287238101365668.2,1435714714702890.2,13415685767459.723,25953036100140.168,380116594409722.8,8265214789059617.0
32.686649107148675,1.5202425316384736e+16,2.6894054066223628e+16,1296534297628590.2,1446083181751776.0,13823930384042.854,26743020668555.07,391687205519736.9,8516757113886158.0
33.44038208929165,1.5310938271786128e+16,2.729304746951251e+16,1305788792604450.2,1456405137475360.5,14242355284936.246,27552717399897.09,403546546655828.2,8774573648305885.0
34.20918973107749,1.5418952582552834e+16,2.7698182167127056e+16,1315000760822101.8,1466679661188410.2,14671171983429.53,28382536483734.043,415700626649661.06,9038794827446868.0
34.993373525699035,1.552645862189246e+16,2.81095862213727e+16,1324169381263416.5,1476905837172375.0,15110595628635.01,29232895190683.39,428155558093285.7,9309553332131858.0
35.793240996213015,1.5633446827597646e+16,2.8527390167018656e+16,1333293838418403.8,1487082755852160.0,15560845060768.258,30104217981362.56,440917558936896.8,9586984123171446.0
36.60910581613728,1.5739907714244192e+16,2.895172706259847e+16,1342373323325487.8,1497209514956424.5,16022142867720.035,30996936617918.04,453992954124448.7,9871224476462324.0
37.44128793246003,1.5845831885206426e+16,2.9382732542368656e+16,1351407034596253.5,1507285220660503.2,16494715442961.428,31911490278215.094,467388177268317.5,1.0162414018915922e+16
38.29011369110923,1.5951210044480632e+16,2.9820544868941116e+16,1360394179423795.0,1517308988711076.8,16978793044822.338,32848325672772.094,481109772364250.5,1.0460694765243798e+16
39.15591596493141,1.6056033008306522e+16,3.02653049866058e+16,1369333974573862.5,1527279945531640.0,17474609857184.912,33807897164520.496,495164395547788.6,1.0766211155624292e+16
40.03903428423004,1.6160291716577814e+16,3.071715657535745e+16,1378225647357986.5,1537197229307872.0,17982404051632.402,34790666891473.63,509558816893390.2,1.1079110094277296e+16
40.93981496991464,1.6263977244030206e+16,3.1176246105641764e+16,1387068436587667.2,1547059991051896.0,18502417851093.785,35797104892385.7,524299922257439.94,1.1399540988971038e+16
41.85861126931294,1.6367080811197892e+16,3.164272289383516e+16,1395861593508778.2,1556867395644430.0,19034897595024.285,36827689235482.5,539394715166355.9,1.1727655791487246e+16
42.7957834946992,1.646959379512711e+16,3.211673915847243e+16,1404604382715283.2,1566618622853935.8,19580093806161.066,37882906150343.195,554850318750954.06,1.2063609039068618e+16
43.751699164593184,1.6571507739837414e+16,3.2598450077234028e+16,1413296083041411.8,1576312868331673.8,20138261258893.383,38963250163014.06,570673977728247.6,1.2407557896873376e+16
