t(s),Total solute volume 1,Total retention volume 1,Total 1 volume 1,Total 2 volume 1,Total 3 volume 1,Total 4 volume 1,Total 5 volume 1,Total 6 volume 1
0.1,1171626138357391.5,1690659390667246.5,218249522949102.88,300783729360751.56,0.0,0.0,0.0,0.0
0.202,1763620057928715.5,2545123287569162.5,328525651050787.06,452762381245699.6,108848694.51951718,291476875.3388894,6951023696.989576,207845994694.77808
0.30604000000000003,2214806805032921.8,3196517876418731.5,412572336633716.9,568592539307451.1,276121262.1426602,739403364.6372745,17633951627.92573,527545968385.6884
0.41216080000000005,2596454141845718.0,3747660036485351.5,483665279549696.9,666570308453880.4,490417273.91058296,1313250616.1052103,31320260135.199814,937182708037.3811
0.5204040160000001,2935359667060480.0,4237208724859512.5,546796313931811.75,753575257817631.5,746670622.4321405,1999452410.2079525,47686334171.9667,1427053592381.8364
0.6308120963200001,3244886118084217.0,4684441016155719.0,604454639224144.1,833037913809232.1,1042161874.8531382,2790726557.8756995,66558471475.569275,1991953678219.2524
0.7434283382464002,3532802763495427.5,5100564900738699.0,658087508211332.9,906952828861760.4,1375334662.6950307,3682905366.4320436,87837261761.08473,2628904668388.768
0.8582969050113283,3804087572830302.0,5492761857980936.0,708622212849013.5,976597963832419.4,1745309209.792646,4673632944.730602,111466510942.04597,3336223016104.255
0.9754628431115548,4062152040346872.0,5865953804874975.0,756694243401727.0,1042849128841260.2,2151642607.533543,5761723259.484013,137417928489.10999,4113060990761.635
1.094972099973786,4309452737129309.0,6223685304167899.0,802761207852548.5,1106336982961536.5,2594196042.585282,6946804593.176378,165682646747.49344,4959152577125.516
1.2168715419732616,4547827120764494.0,6568607980496278.0,847165386245895.5,1167533244395573.2,3073055008.6368756,8229105884.482724,196266124646.17297,5874660804776.9795
1.3412089728127268,4778691625676623.0,6902766264389395.0,890170630787604.0,1226801544883122.5,3588478396.737727,9609320400.783455,229184896000.93762,6860080347246.23
1.4680331522689813,5003165248207116.0,7227775658517263.0,931985387169099.2,1284429156873153.8,4140864501.543787,11088514708.65223,264464398287.28107,7916172490401.202
1.597393815314361,5222150204856263.0,7544939081173324.0,972777719516434.9,1340647700375216.5,4730727512.133367,12668065720.25939,302137471086.3327,9043920161087.607
1.729341691620648,5436386563670143.0,7855325666413837.0,1012685487078834.9,1395647168110257.8,5358680804.759826,14349615954.215921,342243288982.0043,10244495968850.889
1.863928525453061,5646490415182140.0,8159825820810461.0,1051823454679373.1,1449585724881278.5,6025424818.40414,16135041068.38055,384826587167.3495,11519239014619.707
2.001207095962122,5852981256645535.0,8459190721268812.0,1090288393826661.2,1502596737744326.5,6731738118.239477,18026425929.35459,429937090665.78564,12869637797582.037
2.1412312378813647,6056302089923382.0,8754061303150420.0,1128162826532761.2,1554793935605374.8,7478470738.542238,20026046785.94814,477629089142.04407,14297317482249.916
2.284055862638992,6256834466781349.0,9044989960791290.0,1165517827937610.5,1606275271697800.5,8266539195.20708,22136357913.562195,527961118351.41846,15804030359072.037
2.4297369798917723,6454909949423715.0,9332457077681292.0,1202415161167946.0,1657125865769123.5,9096922747.665487,24359981604.260788,580995721388.6914,17391648694778.33
2.578331719489608,6650818975887439.0,9616883813735348.0,1238908928775452.5,1707420280034394.8,9970660614.029844,26699700709.419636,636799270819.6254,19062159405908.79
2.7298983538794,6844817812783429.0,9898642134067220.0,1275046867887473.2,1757224304106952.8,10888849926.507563,29158453164.692215,695441838093.4519,20817660148184.348
2.884496320956988,7037134075651840.0,1.0178062771984588e+16,1310871378534151.2,1806596372202306.0,11852644271.258263,31739328080.015213,756997100283.6088,22660356523661.754
3.0421862473761276,7227971161055357.0,1.045544162254695e+16,1346420349255008.0,1855588700959875.2,12863252696.88659,34445563084.541016,821542276760.0897,24592560184166.12
3.2030299723236504,7417511841031508.0,1.0731044928160708e+16,1381727826670476.0,1904248212222610.8,13921939104.310072,37280542692.82818,889158090220.0604,26616687664101.668
3.3670905717701234,7605921205138753.0,1.1005113523374e+16,1416824563523753.8,1952617288328881.5,15030021951.443464,40247797514.05798,959928747825.6509,28735259815337.11
3.5344323832055258,7793349088854454.0,1.1277866338997584e+16,1451738471040738.2,2000734395538820.0,16188874221.377281,43351004166.843605,1033941939170.9915,30950901746008.938
3.7051210308696363,7979932093550661.0,1.1549503317313968e+16,1486494995209367.5,2048634602609195.8,17399923614.096947,46593985792.64489,1111288848526.6377,33266343186825.617
3.879223451487029,8165795278747743.0,1.1820207854763636e+16,1521117432011240.5,2096350015234384.5,18664652930.377747,49980713083.79703,1192064179358.1106,35684419224888.05
4.0568079205167695,8351053589182767.0,1.209014886229903e+16,1555627193254674.0,2143910142408084.0,19984600623.054092,53515305759.741356,1276366189534.6135,38208071357592.03
4.237944078927105,8535813065620029.0,1.2359482513970928e+16,1590044032123482.0,2191342207266608.5,21361361495.93324,57202034438.62388,1364296735967.5813,40840348828879.52
4.422702960505647,8720171878025806.0,1.2628353739446336e+16,1624386235635876.2,2238671412328925.8,22796587534.578556,61045322862.017746,1455961327671.7153,43584410217668.69
4.61115701971576,8904221211846367.0,1.289689750479088e+16,1658670789739604.5,2285921167024906.5,24291988856.303505,65049750438.87576,1551469186439.917,46443525254255.5
4.803380160110075,9088046032044806.0,1.3165239917071784e+16,1692913521636069.8,2333113283841354.0,25849334769.19325,69220055081.43915,1650933314481.7112,49421076845208.09
4.9994477633122765,9271725744813366.0,1.343349918150674e+16,1727129223043546.0,2380268148199010.5,27470454931.953133,73561136311.14714,1754470568501.4531,52520563291075.96
5.199436718578522,9455334773160492.0,1.3701786434520038e+16,1761331757417050.2,2427404866219184.0,29157240607.987133,78078058616.87819,1862201739794.8826,55745600684292.69
5.403425452950093,9638943059630482.0,1.3970206471826822e+16,1795534153594534.0,2474541393783572.0,30911646008.409443,82776055051.34244,1974251640025.8887,59099925477147.63
5.611493962009095,9822616507071296.0,1.4238858387288614e+16,1829748687902729.0,2521694649689645.0,32735689719.766308,87660531054.3142,2090749192413.5415,62587397211746.17
5.823723841249277,1.0006417366488124e+16,1.450783613557439e+16,1863986956406185.0,2568880615221696.5,34631456213.12277,92737068493.74991,2211827528115.962,66212001405565.46
6.040198318074262,1.0190404579504804e+16,1.4777229029476836e+16,1898259938700710.5,2616114422068713.0,36601097431.90771,98011429917.80579,2337624087644.4014,69977852587617.03
6.261002284435747,1.0374634081725616e+16,1.5047122180959296e+16,1932578054423313.0,2663410430204325.0,38646834456.52171,103489563012.41953,2468280727180.141,73889197481405.45
6.486222330124463,1.0559159072284856e+16,1.531759689356119e+16,1966951213463707.2,2710782297086578.5,40770959244.235054,109177605260.50642,2603943829700.152,77950418331861.75
6.715946776726952,1.0744030254049554e+16,1.5588731012602448e+16,2001388860709053.5,2758243039323497.5,42975836443.33994,115081888799.99765,2744764420845.365,82166036374272.73
6.950265712261491,1.0929296048259366e+16,1.5860599238646636e+16,2035900016026878.8,2805805087776153.5,45263905280.90051,121208945478.96442,2890898289489.5728,86540715443956.45
7.18927102650672,1.111500278682575e+16,1.6133273408871228e+16,2070493310086437.8,2853480336926392.5,47637681523.76708,127565512106.93459,3042506112987.799,91079265726035.83
7.433056447036854,1.1301194885043388e+16,1.640682275031819e+16,2105177016531236.8,2901280189215837.5,50099759512.80488,134158535902.26614,3199753587100.7417,95786647645227.58
7.681717575977592,1.1487914997075038e+16,1.6681314108431166e+16,2139959080942613.0,2949215594962500.0,52652814270.530426,140995180136.09827,3362811560607.9023,100667975896004.64
7.935351927497144,1.1675204156241546e+16,1.6956812153813114e+16,2174847146972847.8,2997297088376498.5,55299603682.56713,148082829973.98285,3531856174635.4946,105728523613933.03
8.194058966047088,1.1863101901871824e+16,1.7233379569737142e+16,2209848579974652.5,3045534820125329.0,58042970753.52597,155429098516.8105,3707069006737.8535,110973726689327.08
8.45794014536803,1.2051646394232482e+16,1.7511077222605318e+16,2244970488410212.2,3093938586839150.0,60885845938.081856,163041833043.10858,3888637219781.6855,116409188224712.52
8.72709894827539,1.2240874518858148e+16,1.778996431726305e+16,2280219743285692.5,3142517857894630.0,63831249548.17855,170929121455.20068,4076753715692.652,122040683137869.77
9.0016409272409,1.2430821981432806e+16,1.8070098538831588e+16,2315602995825683.0,3191281799773299.5,66882294237.42997,179099298932.0854,4271617294132.5166,127874162912509.83
9.281673745785717,1.2621523394227994e+16,1.835153618251245e+16,2351126693574845.0,3240239298252207.5,70042187563.91602,187560954792.24664,4473432816183.298,133915760498863.88
9.567307220701432,1.2813012354979122e+16,1.8634332272637388e+16,2386797095090892.5,3289398978653353.0,73314234632.68542,196322939569.9173,4682411373122.595,140171795366712.89
9.85865336511546,1.300532151897347e+16,1.891854067208399e+16,2422620283373107.0,3338769224350329.0,76701840819.39256,205394372308.6005,4898770460380.715,146648778713569.88
10.155826432417769,1.3198482665031972e+16,1.9204214183043132e+16,2458602178153369.5,3388358193707384.0,80208514576.593,214784648075.94788,5122734156777.402,153353418830943.72
10.458942961066125,1.3392526755985882e+16,1.9491404640009736e+16,2494748547161668.5,3438173835605171.0,83837870324.31865,224503445704.32806,5354533309141.62,160292626631780.3
10.768121820287448,1.3587483994180782e+16,1.9780162995768076e+16,2531065016465382.5,3488223903689953.0,87593631426.64427,234560735761.67178,5594405722423.612,167473521342357.72
11.083484256693197,1.3783383872479616e+16,2.0070539401056416e+16,2567557079970072.0,3538515969467297.5,91479633256.04723,244966788757.41168,5842596355414.344,174903436362078.22
11.405153941827061,1.3980255221184376e+16,2.0362583278519164e+16,2604230108160011.5,3589057434347891.5,95499826347.43457,255732183588.55176,6099357522192.233,182589925294746.44
11.733257020663602,1.4178126251249202e+16,2.065634339148882e+16,2641089356147840.0,3639855540741400.5,99658279643.80402,266867816231.11597,6364949099422.509,190540768155097.84
12.067922161076874,1.4377024594117644e+16,2.0951867908083356e+16,2678139971095503.5,3690917382283625.5,103959183835.57112,278384908682.427,6639638739639.288,198763977754453.22
12.409280604298411,1.457697733848241e+16,2.124920446105092e+16,2715386999061735.5,3742249913273575.5,108406854795.67513,290295018159.86865,6923702090644.923,207267806269559.97
12.75746621638438,1.4778011064232852e+16,2.154840020375094e+16,2752835391325866.5,3793859957388565.5,113005737112.64589,302610046561.9904,7217423021166.566,216060751998775.9
13.112615540712067,1.498015187382974e+16,2.1849501862621536e+16,2790490010232187.5,3845754215738865.0,117760407723.88919,315342250197.96375,7521093852913.564,225151566309924.3
13.474867851526309,1.5183425421321604e+16,2.215255578644651e+16,2828355634595160.5,3897939274316880.5,122675579651.51051,328504249791.65356,7835015599184.311,234549260784259.16
13.844365208556836,1.5387856939195556e+16,2.2457607992704972e+16,2866436964701131.0,3950421610890370.5,127756105843.07446,342109040766.67584,8159498210175.371,244263114561120.1
14.221252512727972,1.5593471263236596e+16,2.2764704211260316e+16,2904738626939133.0,4003207601384440.0,133006983119.75452,356170003819.0559,8494860825150.018,254302681887982.4
14.605677562982532,1.580029285555246e+16,2.3073889925619184e+16,2943265178089886.5,4056303525792483.0,138433356234.4084,370700915784.23834,8841432031627.695,264677799880740.75
14.997791114242183,1.6008345825905484e+16,2.3385210411971396e+16,2982021109299521.5,4109715573652650.0,144040522042.16495,385715960805.4112,9199550131759.957,275398596499184.75
15.397746936527026,1.6217653951480002e+16,2.3698710776198824e+16,3021010849761846.0,4163449849122580.5,149833933786.1877,401229741810.24927,9569563416062.97,286475498742759.0
15.805701875257567,1.642824069520196e+16,2.4014435989029532e+16,3060238770130837.0,4217512375682437.0,155819205501.3363,417257292303.3937,9951830444680.336,297919241071818.0
16.221815912762718,1.6640129222715254e+16,2.433243091949255e+16,3099709185683047.5,4271909100493142.0,162002116538.5228,433814088482.12274,10346720336354.816,309740874059717.56
16.64625223101797,1.6853342418111524e+16,2.4652740366818228e+16,3139426359247719.5,4326645898434627.0,168388616212.60443,450916061682.86926,10754613065291.229,321951773281200.3
17.079177275638333,1.70679028985001e+16,2.4975409090915656e+16,3179394503920849.5,4381728575846214.5,174984828576.75128,468579611166.4042,11175899766096.78,334563648442667.5
17.5207608211511,1.7283833027497462e+16,2.5300481841546828e+16,3219617785578001.0,4437162873989743.5,181797057326.25726,486821617249.6733,11610983046989.834,347588552760041.06
17.97117603757412,1.7501154927708594e+16,2.5628003386308776e+16,3260100325199315.0,4492954472253727.5,188831790834.84924,505659454792.4577,12060277311471.717,361038892590059.9
18.430599558325603,1.77198904922659e+16,2.595801853752463e+16,3300846201018980.0,4549108991115777.0,196095707326.6102,525111007047.1903,12524209088659.9,374927437320945.3
18.899211549492115,1.7940061395486196e+16,2.6290572178136176e+16,3341859450510413.5,4605631994878426.0,203595680186.68692,545194679880.43207,13003217372486.844,389267329528543.8
19.37719578048196,1.81616891027007e+16,2.6625709286684684e+16,3383144072217355.5,4662528994192716.0,211338783414.02505,565929416374.6947,13497753969969.525,404072095404115.6
19.864739696091597,1.838479487930804e+16,2.696347496145856e+16,3424704027440276.0,4719805448382340.0,219332297219.4403,587334711819.4558,14008283858762.805,419355655460117.75
20.36203449001343,1.8609399799096588e+16,2.7303914443880964e+16,3466543241786670.0,4777466767580232.0,227583713772.38718,609430629100.3906,14535285554209.963,435132335520412.94
20.869275179813698,1.8835524751878904e+16,2.764707314120557e+16,3508665606593142.5,4835518314688362.0,236100743099.85962,632237814495.9854,15079251486110.965,451416878001468.5
21.38666068340997,1.9063190450475268e+16,2.79929966485821e+16,3551074980226358.0,4893965407170734.0,244891319140.91727,655777513890.9297,15640688385430.729,468224453491250.3
21.91439389707817,1.9292417437084108e+16,2.8341730770551504e+16,3593775189269645.5,4952813318688664.0,253963605960.39316,680071589415.7826,16220117681175.312,485570672632580.3
22.452681775019734,1.9523226089069456e+16,2.8693321542023628e+16,3636770029601184.5,5012067280586739.0,263326004125.40878,705142536522.617,16818075907666.45,503471598317932.8
23.00173541052013,1.975563662419787e+16,2.904781524878815e+16,3680063267369406.0,5071732483237057.0,272987157248.36237,731013501506.4943,17435115122450.328,521943758202671.0
23.561770118730532,1.9989669105349692e+16,2.9405258447606612e+16,3723658639870726.0,5131814077248966.0,282955958700.15295,757708299482.817,18071803335079.527,541004157543916.06
24.133005521105144,2.0225343444732576e+16,2.976569798592801e+16,3767559856334338.5,5192317174550441.0,293241558497.42993,785251432830.6978,18728724947010.57,560670292372310.1
24.715665631527248,2.046267940761817e+16,3.0129181021271612e+16,3811770598618348.5,5253246849347683.0,303853370367.73566,813668110112.7555,19406481202864.805,580960163004080.2
25.309978944157795,2.0701696615625064e+16,3.0495755040312784e+16,3856294521821263.0,5314608138967755.0,314801078996.4711,842984265481.7986,20105690653302.418,601892287900908.8
25.91617852304095,2.094241454956685e+16,3.0865467877710384e+16,3901135254812603.5,5376406044589859.0,326094647459.6571,873226578585.08,20826989629765.234,623485717885229.2
26.53450209350177,2.1184852551883884e+16,3.12383677347091e+16,3946296400685793.5,5438645531869505.0,337744324846.5395,904422494976.9496,21571032731344.348,645760050718694.0
27.165192135371807,2.1429029828675148e+16,3.1614503197548884e+16,3991781537136727.5,5501331531460217.0,349760654076.1368,936600247050.8821,22338493324037.01,668735446051635.2
27.808495978079243,2.1674965451345908e+16,3.1993923255712584e+16,4037594216770650.5,5564468939436523.0,362154479911.8787,969788875501.9913,23130064052656.168,692432640751505.9
28.464665897640828,2.192267835788509e+16,3.2376677320039628e+16,4083737967340164.0,5628062617621867.0,374936957178.5488,1004018251331.306,23946457365662.188,716872964618310.9
29.133959215593645,2.217218735378645e+16,3.2762815240734244e+16,4130216291916733.0,5692117393825061.0,388119559185.7937,1039319098403.242,24788406053189.26,742078356495226.8
29.816638399905518,2.2423511112623908e+16,3.315238732529399e+16,4177032668997928.5,5756638061988058.0,401714086362.5074,1075723016567.7949,25656663798541.984,768071380782643.0
30.51297116790363,2.2676668176293996e+16,3.354544435638262e+16,4224190552552587.5,5821629382248191.0,415732675106.46716,1113262505359.1772,26552005743440.348,794875244364000.6
31.223230591261704,2.2931676954934956e+16,3.3942037609672268e+16,4271693372005709.5,5887096080917325.0,430187806853.6202,1151970988282.6904,27475229067296.266,822513813951850.6
31.947695203086937,2.3188555726532148e+16,3.434221887167625e+16,4319544532164964.5,5953042850380585.0,445092317371.4933,1191882837701.7966,28427153580805.918,851011633862694.4
32.686649107148675,2.3447322636218236e+16,3.474604045759534e+16,4367747413090337.5,6019474348916800.0,460459406281.2286,1233033400337.4492,29408622334145.574,880393944229212.0
33.44038208929165,2.37079956952774e+16,3.515355522919757e+16,4416305369908616.5,6086395200442673.0,476302646812.7875,1275459023391.867,30420502240061.566,910686699658597.5
34.20918973107749,2.397059277985993e+16,3.556481661275195e+16,4465221732574009.5,6153809994183000.0,492635995797.92,1319197081309.0618,31463684712148.69,941916588345770.0
34.993373525699035,2.423513162941508e+16,3.5979878617035388e+16,4514499805576127.0,6221723284268152.0,509473803905.521,1364286003184.466,32539086318610.293,974111051650327.6
35.793240996213015,2.4501629844848376e+16,3.639879585143128e+16,4564142867596797.0,6290139589261169.0,526830826124.0353,1410765300836.173,33647649451800.44,1007298304146142.9
36.60910581613728,2.4770104886409656e+16,3.682162354413816e+16,4614154171116598.0,6359063391615435.0,544722232495.6163,1458675597550.4016,34790343013846.42,1041507354152603.0
37.44128793246003,2.504057407131699e+16,3.724841756050595e+16,4664536941972333.0,6428499137064808.0,563163619106.7445,1508058657513.7703,35968163118653.59,1076768024756520.9
38.29011369110923,2.531305457112272e+16,3.7679234421515864e+16,4715294378866231.0,6498451233947325.0,582171019340.0654,1558957415945.1284,37182133810596.83,1113110975333770.0
39.15591596493141,2.5587563408825336e+16,3.8114131322422584e+16,4766429652828123.0,6568924052463813.0,601760915392.2358,1611416009939.7595,38433307800202.74,1150567723579818.5
40.03903428423004,2.586411745573321e+16,3.8553166151572536e+16,4817945906631050.0,6639921923872753.0,621950250062.5293,1665479810038.7705,39722767217128.22,1189170668058246.8
40.93981496991464,2.6142733428083236e+16,3.899639750941548e+16,4869846254161546.0,6711449139622043.0,642756438817.06,1721195452536.4988,41051624380744.69,1228953111276488.2
41.85861126931294,2.642342788341926e+16,3.944388472772492e+16,4922133779744897.0,6783509950419510.0,664197382133.4032,1778610872538.935,42421022588632.55,1269949283297919.0
42.7957834946992,2.6706217216734144e+16,3.989568788904174e+16,4974811537426547.0,6856108565242341.0,686291478130.4491,1837775337786.0215,43832136923296.08,1312194365899521.2
43.751699164593184,2.6991117656379216e+16,4.035186784635673e+16,5027882550210080.0,6929249150286907.0,709057635488.3235,1898739483250.7512,45286175077407.695,1355724517284323.5
