t(s),Total solute volume 1,Total retention volume 1,Total 1 volume 1,Total 2 volume 1,Total 3 volume 1,Total 4 volume 1,Total 5 volume 1,Total 6 volume 1
0.1,1198922522623410.5,1797285705327306.5,247551059597552.8,350812123106343.5,0.0,0.0,0.0,0.0
0.202,1772549141984695.5,2739926252919019.5,365992309969974.7,518658837661221.44,36206271288.326,101202651947.61052,2572953339852.118,80015601040038.7
0.30604000000000003,2187051544140504.0,3484931501342481.5,451577916198106.3,639944807716491.9,90237986789.08334,252231533587.33087,6413209471049.573,199601554295954.1
0.41216080000000005,2519637453994012.5,4137461186589263.0,520249572932382.06,737261504130024.6,157502901766.6649,440250529536.0199,11194158440332.078,348520743661205.1
0.5204040160000001,2799945619784452.0,4736698469556761.0,578127028278604.0,819281409060509.9,235712025107.4108,658861683451.4078,16753087323427.318,521696751401211.2
0.6308120963200001,3043060066400665.0,5302017921737527.0,628324800786822.0,890418201707794.2,323451838552.5859,904114139737.9812,22989526771665.258,715997760092291.9
0.7434283382464002,3257926520567255.0,5844607843542976.0,672689985767912.5,953289457092356.1,419751845588.662,1173295360813.0256,29834500035490.35,929274332873568.0
0.8582969050113283,3450386850202271.0,6371602652393693.0,712428800126714.5,1009604541905657.4,523903053247.3387,1464423753459.8762,37237618406690.98,1159956514945652.2
0.9754628431115548,3624517480817960.5,6887879677202751.0,748382935839695.6,1060556243458838.9,635366534668.7738,1775993087133.298,45160581329274.55,1406851076135177.2
1.094972099973786,3783303895805309.0,7396951550508652.0,781168829391542.2,1107018132647425.8,753721603415.6364,2106827633745.8328,53573492531526.46,1669026650895692.0
1.2168715419732616,3929014547573263.0,7901453638272200.0,811254866180635.8,1149653972666520.5,878633900107.997,2455992965564.705,62452591643058.27,1945743033343042.0
1.3412089728127268,4063423574282833.0,8403430054304041.0,839007366613599.4,1188982887305791.5,1009834493134.7343,2822737539140.4014,71778768724650.67,2236404885344893.2
1.4680331522689813,4187951128653730.0,8904511166418552.0,864719560909478.0,1225420422026542.8,1147105526632.7424,3206452579819.832,81536544183395.98,2540529952538960.5
1.597393815314361,4303755887073957.5,9406028847101446.0,888630690190908.0,1259305612699332.8,1290269986025.5554,3606643475432.357,91713341360924.84,2857726402314858.0
1.729341691620648,4411798346467881.0,9909094137094472.0,910939075891578.1,1290919506658995.8,1439184173123.8672,4022908743584.121,102298951711908.61,3187676163447395.5
1.863928525453061,4512885504098950.0,1.0414651237681728e+16,931811345150222.5,1320498236291115.8,1593732031924.8374,4454924171913.116,113285131524673.25,3530122364412943.0
2.001207095962122,4607703241988830.0,1.092351605656189e+16,951389117479033.4,1348242494913264.5,1753820778496.496,4902430603442.228,124665291331173.16,3884859659467641.5
2.1412312378813647,4696840339937974.0,1.1436404364093988e+16,969793962922862.0,1374324563133194.2,1919377474405.3535,5365224359266.254,136434252379750.8,4251726643886528.5
2.284055862638992,4780806636818047.0,1.1953952775758494e+16,987131151965619.4,1398893622955251.0,2090346298511.086,5843149613273.076,148588052744289.75,4630599815363499.0
2.4297369798917723,4860047006346374.0,1.2476734666738204e+16,1003492541219491.5,1422079847178318.5,2266686345952.5454,6336092240440.517,161123790903235.44,5021388702504395.0
2.578331719489608,4934952277922798.0,1.3005272433517718e+16,1018958828336923.9,1443997594900165.5,2448369832036.7334,6843974796897.991,174039498096790.0,5424031889632095.0
2.7298983538794,5005867887323272.0,1.3540047074919928e+16,1033601338188080.2,1464747942763812.0,2635380611883.901,7366752382576.852,187334033126189.53,5838493740524106.0
2.884496320956988,5073100813162416.0,1.408150577451014e+16,1047483455087388.4,1484420714609345.8,2827712949667.5376,7904409201521.242,201006994892711.03,6264761674607097.0
3.0421862473761276,5136925200118268.0,1.4630067971303716e+16,1060661783865449.2,1503096126864193.0,3025370487556.368,8456955680403.838,215058649130362.75,6702843885157484.0
3.2030299723236504,5197586962933863.0,1.5186130272185168e+16,1073187100493832.0,1520846135702435.0,3228365376191.3853,9024426038565.406,229489866619610.5,7152767415020690.0
3.3670905717701234,5255307589988304.0,1.575007046634561e+16,1085105137438611.6,1537735549993186.8,3436717537121.1914,9606876226909.123,244302070780064.62,7614576524381418.0
3.5344323832055258,5310287311461770.0,1.6322250836062352e+16,1096457237816595.6,1553822958325249.0,3650454034006.9043,10204382170835.262,259497192994069.97,8088331299259818.0
3.7051210308696363,5362707758107034.0,1.6903020910680346e+16,1107280904372986.1,1569161506980056.0,3869608534221.9424,10817038265857.008,275077634355280.5,8574106460064910.0
3.879223451487029,5412734207942679.0,1.7492719776041208e+16,1117610263374003.5,1583799557328024.2,4094220846144.7637,11444956084805.816,291046232797364.8,9071990337668196.0
4.0568079205167695,5460517496807487.0,1.80916780260462e+16,1127476459094219.0,1597781244868530.5,4324336520276.9673,12088263263455.139,307406234759411.7,9582083990732858.0
4.237944078927105,5506195652605647.0,1.870021942394647e+16,1136907991252165.5,1611146957420156.0,4560006504528.467,12747102537567.68,324161270701619.4,1.0104500442924806e+16
4.422702960505647,5549895300801354.0,1.931866232653713e+16,1145931005213953.2,1623933746377098.5,4801286845750.478,13421630909232.45,341315333908494.56,1.0639364022481262e+16
4.61115701971576,5591732879280249.0,1.9947320913438776e+16,1154569542835397.0,1636175682185130.8,5048238430978.224,14112018924216.86,358872762114888.94,1.1186809789667938e+16
4.803380160110075,5631815693363696.0,2.058650625518906e+16,1162845760299177.0,1647904163045283.8,5300926762950.573,14818450045150.854,376838221568804.4,1.1746983040103976e+16
4.9994477633122765,5670242836019082.0,2.1236527247297932e+16,1170780118117975.8,1659148184173065.8,5559421765365.854,15541120107851.207,395216693208279.6,1.2320038873906334e+16
5.199436718578522,5707105993775084.0,2.1897691432282224e+16,1178391547538209.2,1669934573614240.0,5823797614057.57,16280236850120.969,414013460681150.7,1.2906141822209366e+16
5.403425452950093,5742490155242599.0,2.2570305727639212e+16,1185697596833978.2,1680288199562452.0,6094132590866.283,17036019504013.953,433234099978628.06,1.3505465523926686e+16
5.611493962009095,5776474236251741.0,2.325467707450461e+16,1192714560384067.2,1690232153278152.0,6370508957471.602,17808698443918.043,452884470488241.4,1.4118192446701034e+16
5.823723841249277,5809131633282495.0,2.395111301916396e+16,1199457592943181.8,1699787911025811.2,6653012846851.764,18598514883939.184,472970707300427.2,1.4744513646881298e+16
6.040198318074262,5840530714974274.0,2.4659922237519604e+16,1205940811127802.0,1708975477892685.0,6941734170374.13,19405720619005.516,493499214626883.0,1.5384628564108588e+16
6.261002284435747,5870735259953513.0,2.5381415010939548e+16,1212177383817965.0,1717813515899847.0,7236766538800.721,20230577804898.293,514476660208786.2,1.603874484671574e+16
6.486222330124463,5899804847949231.0,2.6115903660552344e+16,1218179612913975.5,1726319458445025.8,7538207195729.408,21073358773074.38,535909970609751.4,1.6707078204665544e+16
6.715946776726952,5927795210118612.0,2.686370294593709e+16,1223959005670924.5,1734509612810051.0,7846156962190.264,21934345876703.59,557806327302579.06,1.738985228719604e+16
6.950265712261491,5954758543635479.0,2.7625130433241896e+16,1229526339654266.0,1742399252211340.2,8160720191285.98,22813831364816.387,580173163470863.0,1.8087298582713864e+16
7.18927102650672,5980743794869366.0,2.8400506837005504e+16,1234891721210059.8,1750002698659899.8,8482004731909.078,23712117281859.613,603018161456737.9,1.879965633879568e+16
7.433056447036854,6005796914876781.0,2.919015633933096e+16,1240064638218267.0,1757333397719604.5,8810121900691.729,24629515390302.977,626349250794840.8,1.9527172500430424e+16
7.681717575977592,6029961090414963.0,2.9994406889533548e+16,1245054007792014.8,1764403986103261.2,9145186461449.45,25566347114231.72,650174606780008.1,2.0270101664867624e+16
7.935351927497144,6053276953258288.0,3.0813590486950736e+16,1249868219496813.2,1771226352919898.5,9487316611471.137,26522943502118.523,674502649522714.5,2.102870605163946e+16
8.194058966047088,6075782770231710.0,3.1648043449229616e+16,1254515174588248.2,1777811695279710.2,9836633974085.938,27499645207184.02,699342043451883.9,2.1803255486496816e+16
8.45794014536803,6097514616064550.0,3.249810666810105e+16,1259002321702511.5,1784170568872134.2,10193263597006.068,28496802483947.164,724701697229457.4,2.2594027398151456e+16
8.72709894827539,6118506530902974.0,3.3364125854383796e+16,1263336689379237.5,1790312934055007.2,10557333956003.107,29514775199732.215,750590764045361.4,2.3401306826845496e+16
9.0016409272409,6138790664091812.0,3.42464517737414e+16,1267524915749274.2,1796248197925984.0,10928976963528.035,30553932860042.434,777018642265214.1,2.4225386443885504e+16
9.281673745785717,6158397405640582.0,3.5145440474522812e+16,1271573275679517.8,1801985252790307.5,11308327981928.623,31614654646837.055,803994976406233.2,2.5066566581377372e+16
9.567307220701432,6177355506620459.0,3.606145350885667e+16,1275487705632247.8,1807532511389744.0,11695525840959.314,32697329468859.223,831529658419680.1,2.592515527148479e+16
9.85865336511546,6195692189592957.0,3.699485814802998e+16,1279273826466190.5,1812897939214645.5,12090712859311.926,33802356023259.043,859632829260644.4,2.680146829461301e+16
10.155826432417769,6213433250044317.0,3.79460275930609e+16,1282936964380511.8,1818089084184324.8,12494034869926.729,34930142867841.945,888314880728137.5,2.769582923598581e+16
10.458942961066125,6230603149690271.0,3.8915341181275464e+16,1286482170180159.0,1823113103948576.8,12905641248870.656,36081108503347.95,917586457560363.0,2.8608569550143896e+16
10.768121820287448,6247225102419313.0,3.990318458960642e+16,1289914237021287.2,1827976791035219.5,13325684947593.281,37255681465235.24,947458459771804.0,2.954002863294595e+16
11.083484256693197,6263321153559159.0,4.090995003525577e+16,1293237716778009.2,1832686596043954.5,13754322528391.732,38454300424499.305,977942045220211.2,3.049055390070157e+16
11.405153941827061,6278912253077603.0,4.193603647429792e+16,1296456935156762.0,1837248649065382.0,14191714202936.223,39677414297115.086,1009048632392977.8,3.1460500876105148e+16
11.733257020663602,6294018323264232.0,4.298184979873898e+16,1299576005671105.8,1841668779485103.2,14638023873722.748,40925482361732.39,1040789903403542.9,3.2450233280679424e+16
12.067922161076874,6308658321383009.0,4.404780303250024e+16,1302598842578082.2,1845952534316237.8,15093419178336.578,42198974385300.57,1073177807189577.6,3.3460123133469652e+16
12.409280604298411,6322850297735279.0,4.513431652674808e+16,1305529172866944.2,1850105195189023.8,15558071536421.836,43498370756336.37,1106224562905640.4,3.4490550855758388e+16
12.75746621638438,6336611449528694.0,4.624181815495261e+16,1308370547381919.2,1854131794113202.2,16032156199265.898,44824162625578.92,1139942663503886.0,3.554190538160008e+16
13.112615540712067,6349958170908273.0,4.737074350802777e+16,1311126351152499.8,1858037128117418.8,16515852301917.947,46176852053810.66,1174344879497136.0,3.661458427399671e+16
13.474867851526309,6362906099470920.0,4.852153608986989e+16,1313799812997677.0,1861825772859636.2,17009342917769.83,47556952166650.58,1209444262899391.8,3.770899384655778e+16
13.844365208556836,6375470159553755.0,4.969464751359225e+16,1316394014464024.8,1865502095293595.0,17512815115538.088,48964987316145.83,1245254151339439.8,3.882554929050974e+16
14.221252512727972,6387664602559105.0,5.089053769872359e+16,1318911898151918.2,1869070265468147.2,18026460018592.22,50401493249016.625,1281788172343803.8,3.996467480693313e+16
14.605677562982532,6399503044554346.0,5.210967506962422e+16,1321356275479077.0,1872534267529194.5,18550472866582.66,51867017281427.13,1319060247785829.0,4.1126803744127736e+16
14.997791114242183,6410998501362757.0,5.335253675535027e+16,1323729833926043.8,1875897909987500.0,19085053079327.805,53362118480171.94,1357084598498110.5,4.231237874001643e+16
15.397746936527026,6422163421341791.0,5.461960879118678e+16,1326035143804182.5,1879164835309795.8,19630404322926.707,54887367850188.21,1395875749045968.5,4.352185186951194e+16
15.805701875257567,6433009716027568.0,5.591138632204861e+16,1328274664583096.2,1882338528885585.0,20186734578067.33,56443348528316.1,1435448532660041.0,4.475568479678592e+16
16.221815912762718,6443548788808668.0,5.722837380794621e+16,1330450750811117.0,1885422327417231.2,20754256210507.875,58030655983245.375,1475818096326392.5,4.6014348932389e+16
16.64625223101797,6453791561777585.0,5.857108523168991e+16,1332565657659544.5,1888419426776889.8,21333186043710.87,59649898221601.51,1516999906032944.5,4.729832559517769e+16
17.079177275638333,6463748500895827.0,5.99400443090102e+16,1334621546118695.2,1891332889369956.8,21923745433616.254,61301696000129.12,1559009752171242.5,4.860810617902084e+16
17.5207608211511,6473429639596734.0,6.133578470125035e+16,1336620487871344.2,1894165651041386.8,22526160345540.848,62986683043952.836,1601863755092954.8,4.99441923242585e+16
17.97117603757412,6482844600939626.0,6.275885023079144e+16,1338564469867096.8,1896920527558183.8,23140661433198.484,64705506270894.586,1645578370820669.8,5.130709609390176e+16
18.430599558325603,6492002618419730.0,6.420979509935387e+16,1340455398619151.0,1899600220698463.2,23767484119834.445,66458826021844.414,1690170396912874.8,5.269734015456187e+16
18.899211549492115,6500912555529203.0,6.568918410932034e+16,1342295104243226.8,1902207323975145.2,24406868681475.465,68247316297184.164,1735656978483122.8,5.411545796211092e+16
19.37719578048196,6509582924157233.0,6.719759288821713e+16,1344085344256786.8,1904744328019938.0,25059060332294.895,70071664999277.11,1782055614373738.5,5.5561993952077816e+16
19.864739696091597,6518021901909844.0,6.873560811648517e+16,1345827807155193.2,1907213625651233.5,25724309312097.816,71932574181039.66,1829384163484475.5,5.703750373479127e+16
20.36203449001343,6526237348423993.0,7.030382775867177e+16,1347524115780197.0,1909617516647683.8,26402870975934.195,73830760300620.42,1877660851256798.2,5.854255429528647e+16
20.869275179813698,6534236820743979.0,7.190286129816694e+16,1349175830494860.8,1911958212247471.0,27095005885846.883,75766954482220.44,1926904276314595.0,6.007772419799784e+16
21.38666068340997,6542027587823813.0,7.353332997560717e+16,1350784452177921.5,1914237839391755.8,27800979904767.66,77741902783088.92,1977133417262322.8,6.1643603796263544e+16
21.91439389707817,6549616644213358.0,7.519586703106699e+16,1352351425049729.2,1916458444729349.0,28521064292572.887,79756366466740.6,2028367639641662.5,6.324079544667348e+16
22.452681775019734,6557010722982386.0,7.68911179501542e+16,1353878139340765.2,1918621998398363.0,29255535804315.0,81811122282445.98,2080626703048018.5,6.486991372829794e+16
23.00173541052013,6564216307932229.0,7.861974071412757e+16,1355365933813055.0,1920730397599411.8,30004676790646.484,83906962751043.81,2133930768408223.2,6.653158566683301e+16
23.561770118730532,6571239645141009.0,8.038240605414661e+16,1356816098144039.8,1922785469973825.5,30768775300453.516,86044696457140.7,2188300405420964.8,6.822645096370922e+16
24.133005521105144,6578086753885257.0,8.217979770977008e+16,1358229875181621.5,1924788976799380.5,31548125185721.82,88225148347759.34,2243756600161649.0,6.9955162230208856e+16
24.715665631527248,6584763436977344.0,8.401261269181331e+16,1359608463078631.2,1926742616015097.5,32343026208653.777,90449160037505.12,2300320762853400.5,7.171838522664249e+16
25.309978944157795,6591275290555444.0,8.588156154967192e+16,1360953017314237.5,1928648025085848.2,33153784151061.906,92717590120323.62,2358014735806097.5,7.351679910663898e+16
25.91617852304095,6597627713360218.0,8.778736864322912e+16,1362264652609359.2,1930506783716741.8,33980710926061.395,95031314487927.69,2416860801525469.5,7.535109666660349e+16
26.53450209350177,6603825915529546.0,8.973077241944749e+16,1363544444742624.0,1932320416426572.8,34824124692088.82,97391226654975.67,2476881690994232.0,7.72219846004075e+16
27.165192135371807,6609874926941086.0,9.171252569375914e+16,1364793432272877.0,1934090394988863.2,35684349969272.77,99798238091080.42,2538100592127624.5,7.913018375936846e+16
27.808495978079243,6615779605129897.0,9.373339593636322e+16,1366012618174027.2,1935818140748607.5,36561717758185.27,102253278559749.67,2600541158405416.5,8.107642941758738e+16
28.464665897640828,6621544642806443.0,9.579416556353526e+16,1367202971387328.5,1937505026822114.2,37456565661002.5,104757296464335.4,2664227517682869.5,8.306147154271118e+16
29.133959215593645,6627174574999014.0,9.789563223406286e+16,1368365428296153.2,1939152380186905.0,38369238005106.51,107311259201100.98,2729184281183174.0,8.508607507219138e+16
29.816638399905518,6632673785842571.0,1.0003860915091046e+17,1369500894127721.0,1940761483668172.2,39300085969156.86,109916153519497.7,2795436552673734.0,8.715102019510958e+16
30.51297116790363,6638046515034637.0,1.022239253682271e+17,1370610244286111.0,1942333577827819.8,40249467711667.35,112572985889755.02,2863009937829067.0,8.925710263964802e+16
31.223230591261704,6643296863977660.0,1.0445242610380251e+17,1371694325620516.5,1943869862761757.8,41217748502118.77,115282782877892.53,2931930553782978.5,9.140513396627933e+16
31.947695203086937,6648428801625726.0,1.0672497305708378e+17,1372753957632457.8,1945371499810659.8,42205300854643.54,118046591528257.66,3002225038872787.0,9.359594186675906e+16
32.686649107148675,6653446170052554.0,1.090424447328627e+17,1373789933625457.8,1946839613189246.0,43212504664316.78,120865479753706.3,3073920562578500.5,9.58303704689988e+16
33.44038208929165,6658352689756529.0,1.1140573677074149e+17,1374803021800428.0,1948275291538510.2,44239747346089.05,123740536733537.19,3147044835659856.0,9.81092806479066e+16
34.20918973107749,6663151964717515.0,1.1381576228049339e+17,1375793966299750.5,1949679589405424.0,45287423976399.58,126672873319298.66,3221626120494281.0,1.0043355034228059e+17
34.993373525699035,6667847487219291.0,1.1627345218342262e+17,1376763488203046.2,1951053528653976.2,46355937437505.984,129663622448589.42,3297693241618807.0,1.0280407487784138e+17
35.793240996213015,6672442642450477.0,1.1877975555984582e+17,1377712286477143.8,1952398099811454.8,47445698564569.19,132713939566976.22,3375275596479169.0,1.0522176729649603e+17
36.60910581613728,6676940712896185.0,1.2133564000279862e+17,1378641038882847.8,1953714263353454.8,48557126295533.59,135825003058152.98,3454403166389222.5,1.0768755869192312e+17
37.44128793246003,6681344882531760.0,1.2394209197808821e+17,1379550402840892.2,1955002950930995.2,49690647823841.57,138998014682472.12,3535106527704195.5,1.1020239855157408e+17
38.29011369110923,6685658240829177.0,1.2660011719080501e+17,1380441016259130.8,1956265066542854.0,50846698754023.875,142234200023979.25,3617416863210846.5,1.127672551051848e+17
39.15591596493141,6689883786586476.0,1.2931074095840653e+17,1381313498323251.2,1957501487656007.5,52025723260206.65,145534808946084.12,3701365973738230.0,1.153831156798961e+17
40.03903428423004,6694024431589147.0,1.3207500859049461e+17,1382168450252767.8,1958713066277044.0,53228174247577.39,148901116056005.12,3786986289992485.5,1.1805098706207958e+17
40.93981496991464,6698083004112900.0,1.3489398577540085e+17,1383006456024275.0,1959900629977060.0,54454513516852.4,152334421178128.44,3874310884619172.0,1.207718958659724e+17
41.85861126931294,6702062252275676.0,1.3776875897369862e+17,1383828083063533.5,1961064982872497.0,55705211931789.53,155836049836421.7,3963373484496936.0,1.2354688890922187e+17
42.7957834946992,6705964847247116.0,1.407004358187607e+17,1384633882908206.0,1962206906564246.2,56980749589790.55,159407353746044.4,4054208483265959.5,1.2637703359543954e+17
