t(s),Total solute volume 1,Total retention volume 1,Total 1 volume 1,Total 2 volume 1,Total 3 volume 1,Total 4 volume 1,Total 5 volume 1
0.1,3786533418330099.0,3803207891884101.0,16674473553999.465,0.0,0.0,0.0,0.0
0.202,5668637917226991.0,5693607327409953.0,24961415721535.855,7268225.864298286,52183610.55918932,1486077915.7570193,6448931673.126017
0.30604000000000003,7111101039287599.0,7142436474110133.0,31313213936080.188,18418840.081983805,132444022.68362027,4002385583.060136,18067638006.600334
0.41216080000000005,8332839036338089.0,8369573805882304.0,36693054930779.48,32700486.122490294,235284719.46596378,7333462161.207258,34113166069.680225
0.5204040160000001,9418441739886776.0,9459981168169156.0,41473430987516.914,49777479.18292239,358275647.1278961,11377785408.759214,54211456319.18524
0.6308120963200001,1.0410353835026358e+16,1.045628989720128e+16,45841246005699.414,69469679.51240304,500115046.43686956,16081700467.772503,78164884033.89484
0.7434283382464002,1.1333316323701832e+16,1.1383349803738612e+16,49905445826369.65,91674185.62014678,660059689.5396572,21414781166.25433,105867695368.01022
0.8582969050113283,1.2203203817315666e+16,1.2257105332736768e+16,53735933420694.62,116333074.53242734,837691210.7574463,27359664069.222023,137268312047.87906
0.9754628431115548,1.3030905474582814e+16,1.3088493567139898e+16,57380658542264.74,143417489.83407027,1032801049.655328,33907198251.925106,172350598036.25955
1.094972099973786,1.3824267651958818e+16,1.388539541966818e+16,60874172124544.11,172918824.79306003,1245326753.7692833,41053834524.58483,211123504725.98108
1.2168715419732616,1.458916232468701e+16,1.4653708750808398e+16,64242331026519.945,204843422.9783787,1475313713.3589172,48800089486.56023,253614848252.81378
1.3412089728127268,1.533011802071159e+16,1.5397982076041094e+16,67505076318435.93,239209196.9983738,1722890754.6210814,57149581205.85397,299867329897.8296
1.4680331522689813,1.6050713760136534e+16,1.6121810236670274e+16,70678167972525.75,276043371.1982098,1988253849.740071,66108393531.05707,349935870461.3358
1.597393815314361,1.6753836315474328e+16,1.682809279060633e+16,73774317693504.4,315380921.19856584,2271654857.626849,75684641068.61412,403885761657.236
1.729341691620648,1.7441854541135062e+16,1.7519209107872944e+16,76803956567867.1,357263465.638477,2573393528.4508257,85888162724.87823,461791350290.79016
1.863928525453061,1.811674122378951e+16,1.8197140756348616e+16,79775771624321.03,401738462.676722,2893811707.360338,96730300940.3485,523735083671.1633
2.001207095962122,1.8780160526615436e+16,1.886355933020011e+16,82697090888913.95,448858618.55911505,3233289068.2776437,108223739973.60715,589806808086.3329
2.1412312378813647,1.943353218361822e+16,1.9519890926235784e+16,85574166060529.28,498681447.8776182,3592239942.0301404,120382386056.54118,660103249603.7727
2.284055862638992,2.0078079566554852e+16,2.0167364422012616e+16,88412384170403.3,551268944.9913373,3971110946.3439803,133221277992.02661,734727629498.2457
2.4297369798917723,2.0714866306605804e+16,2.0807048258417216e+16,91216428843202.25,606687338.6834042,4370379216.203835,146756520382.52646,813789381287.0732
2.578331719489608,2.1344824628506436e+16,2.143987889830886e+16,93990405064452.9,665006910.3714857,4790551092.578564,161005234023.74356,897403945990.5023
2.7298983538794,2.196877757545896e+16,2.2066683149116676e+16,96737937046429.2,726301861.7221041,5232161167.435771,175985519559.38254,985692628728.9802
2.884496320956988,2.2587456658076588e+16,2.2688195889378292e+16,99462245944064.86,790650221.317111,5695771610.373756,191716431557.7285,1078782504247.1471
3.0421862473761276,2.3201516026204332e+16,2.3305074302892424e+16,102166212259590.78,858133782.681701,6181971721.398149,208217960911.7359,1176806362105.446
3.2030299723236504,2.3811543964038476e+16,2.3917909424423244e+16,104852426460496.22,928838067.8817625,6691377668.06617,225511023989.7877,1279902684538.7263
3.3670905717701234,2.441807230023764e+16,2.452723559124757e+16,107523230416298.03,1002852312.2753059,7224632375.154313,243617457343.24527,1388215651626.503
3.5344323832055258,2.5021584176321636e+16,2.513353824578949e+16,110180751606143.23,1080269467.0163045,7782405542.316641,262560017054.46893,1501895169636.3936
3.7051210308696363,2.562252050957328e+16,2.5737260427032364e+16,112826931577744.03,1161186216.665791,8365393770.657456,282362382015.12787,1621096919314.421
3.879223451487029,2.6221285408324616e+16,2.6338808209723796e+16,115463549793211.16,1245703009.8367217,8974320783.265198,303049160579.7126,1745982421588.3938
4.0568079205167695,2.681825073948899e+16,2.6938555292111468e+16,118092243741859.38,1333924101.2362216,9609937727.90717,324645900157.2591,1876719118682.4473
4.237944078927105,2.741376000472171e+16,2.7536846889279944e+16,120714526008608.42,1425957603.806653,10273023552.52058,347179099395.18976,2013480469053.6323
4.422702960505647,2.8008131648665764e+16,2.8134003056085904e+16,123331798841608.28,1521915549.9306617,10964385446.038002,370676222679.9311,2156446054885.3943
4.61115701971576,2.860166189754843e+16,2.873032153839141e+16,125945366651799.7,1621913960.873327,11684859338.583944,395165716734.4746,2305801701129.1055
4.803380160110075,2.9194627206953988e+16,2.9326080231763304e+16,128556446791506.7,1726072923.7998123,12435310456.272293,420677029137.13135,2461739605289.672
4.9994477633122765,2.978728638245204e+16,2.992153931160106e+16,131166178892474.4,1834516675.839653,13216633926.790668,447240628620.9284,2624458477316.4917
5.199436718578522,3.0379882424879296e+16,3.0516943086715956e+16,133775632991434.44,1947373694.7761586,14029755432.731876,474888027041.5259,2794163689095.098
5.403425452950093,3.097264414266912e+16,3.111252161894379e+16,136385816629885.44,2064776796.0269177,14875631910.264153,503651802924.632,2971067433145.0405
5.611493962009095,3.1565787566138036e+16,3.17084921438521e+16,138997681081801.5,2186863235.6534266,15755252291.250574,533565626522.83856,3155388890220.317
5.823723841249277,3.215951719263213e+16,3.2305060321573716e+16,141612126836546.75,2313774819.197515,16669638287.358423,564664286327.46,3347354405584.471
6.040198318074262,3.2754027086593044e+16,3.2902421341929972e+16,144230008442936.53,2445658016.1919804,17619845215.05842,596983716993.9993,3547197673796.007
6.261002284435747,3.3349501854669224e+16,3.3500760904059772e+16,146852138803071.03,2582664080.2349486,18606962860.71587,630561028650.7847,3755159931893.5635
6.486222330124463,3.3946117512789984e+16,3.410025608754444e+16,149479292990433.66,2724949174.5528884,19632116385.23278,665434537569.6277,3971490160916.348
6.715946776726952,3.4544042259482624e+16,3.470107612937349e+16,152112211655138.0,2872674503.0077024,20696467267.918995,701643798185.1927,4196445295734.6
6.950265712261491,3.5143437167543572e+16,3.5303383118913628e+16,154751604069651.2,3026006446.529737,21801214289.460075,739229636456.6262,4430290443199.482
7.18927102650672,3.574445680437067e+16,3.5907332621235572e+16,157398150860385.1,3185116704.9810486,22947594554.014057,778234184570.8234,4673299108651.56
7.433056447036854,3.634724978976741e+16,3.651307423764616e+16,160052506463944.16,3350182444.473671,24136884550.613262,818700916991.909,4925753430853.6
7.681717575977592,3.695195929877364e+16,3.712075211101589e+16,162715301341307.78,3521386450.1851187,25370401254.17673,860674687866.0337,5187944425437.342
7.935351927497144,3.755872351602866e+16,3.7730505382434584e+16,165387143978583.1,3698917284.7292705,26649503266.55067,904201769794.6511,5460172236974.618
8.194058966047088,3.816767604728079e+16,3.834246860483507e+16,168068622699058.72,3882969452.155181,27975591998.09936,949329893993.0529,5742746399803.2
8.45794014536803,3.877894629291104e+16,3.8956772118475144e+16,170760307307990.4,4073743567.6590242,29350112890.461716,996108291854.2828,6035986107754.682
8.72709894827539,3.93926597876998e+16,3.957354239252261e+16,173462750588737.22,4271446533.1068277,30774556681.174072,1044587737941.5094,6340220492948.886
9.0016409272409,4.000893851051989e+16,4.019290233644702e+16,176176489666475.38,4476291718.476129,32250460710.94107,1094820594434.8003,6655788913833.796
9.281673745785717,4.062790116718071e+16,4.081497158445355e+16,178902047253679.1,4688499149.335407,33779410274.408665,1146860857060.7573,6983041252664.87
9.567307220701432,4.124966344924278e+16,4.14398667557935e+16,181639932789794.66,4908295700.489792,35363040015.36562,1200764202535.9836,7322338222631.098
9.85865336511546,4.187433827128576e+16,4.2067701693444824e+16,184390643486030.72,5135915295.930638,37003035367.3653,1256588037557.6318,7674051684848.086
10.155826432417769,4.250203598881316e+16,4.269858768335604e+16,187154665284888.56,5371599115.235714,38701134040.82376,1314391549376.481,8038564975451.316
10.458942961066125,4.3132864598724376e+16,4.333263365619165e+16,189932473742923.9,5615595806.574987,40459127557.71116,1374235757990.2002,8416273243034.524
10.768121820287448,4.376692992405885e+16,4.396994637329441e+16,192724534844256.16,5868161706.485545,42278862835.01549,1436183569996.3657,8807583796690.592
11.083484256693197,4.440433578452991e+16,4.461063059838532e+16,195531305751500.28,6129561066.587323,44162243818.21349,1500299834147.007,9212916464923.488
11.405153941827061,4.504518415419017e+16,4.525478925635398e+16,198353235500037.06,6400066287.418977,46111233166.04296,1566651398648.255,9632703965712.033
11.733257020663602,4.5689575307430616e+16,4.590252358034198e+16,201190765640908.62,6679958159.581738,48127853987.92745,1635307170250.7576,10067392288016.936
12.067922161076874,4.633760795438233e+16,4.655393324819728e+16,204044330837048.8,6969526112.38628,50214191635.4609,1706338175178.3398,10517441085035.041
12.409280604298411,4.698937936667522e+16,4.720911650925775e+16,206914359417055.72,7269068470.206004,52372395549.41515,1779817621944.4426,10983324079515.168
12.75746621638438,4.76449854944146e+16,4.78681703023263e+16,209801273890286.9,7578892716.747679,54604681163.79217,1855820966107.6575,11465529481462.252
13.112615540712067,4.830452107514166e+16,4.853119036561143e+16,212705491426659.47,7899315767.458514,56913331868.49695,1934425977019.753,11964560418567.684
13.474867851526309,4.896807973547043e+16,4.9198271339326296e+16,215627424304203.6,8230664250.296196,59300701032.26655,2015712806621.4185,12480935379715.57
13.844365208556836,4.963575408602443e+16,4.986950686157263e+16,218567480327104.38,8573274795.097266,61769214087.54703,2099764060342.9736,13015188671926.482
14.221252512727972,5.030763581023331e+16,5.054498965807636e+16,221526063216716.28,8927494331.786497,64321370679.07009,2186664870169.296,13567870891112.578
14.605677562982532,5.098381574749822e+16,5.122481162628017e+16,224503572977773.62,9293680397.678812,66959746877.93837,2276502969930.163,14139549407029.734
14.997791114242183,5.1664383971184456e+16,5.190906391426087e+16,227500406241824.6,9672201454.133179,69686997463.09195,2369368772879.3223,14730808862825.18
15.397746936527026,5.234942986185732e+16,5.259783699488376e+16,230516956589722.8,10063437212.826996,72505858272.08752,2465355451627.663,15342251689591.518
15.805701875257567,5.303904217613927e+16,5.3291220735578536e+16,233553614854831.8,10467778971.927504,75419148623.1848,2564559020497.9346,15974498636351.422
16.221815912762718,5.373330911153099e+16,5.398930446407951e+16,236610769408462.06,10885629962.44659,78429773810.80139,2667078420370.758,16628189315909.857
16.64625223101797,5.443231836750852e+16,5.469217703044391e+16,239688806428906.56,11317405705.073078,81540727676.45668,2773015606093.6387,17303982767024.55
17.079177275638333,5.5136157203181656e+16,5.539992686563651e+16,242788110155336.03,11763534377.78744,84755095257.40004,2882475636527.268,18002558033359.605
17.5207608211511,5.584491249177257e+16,5.611264203693989e+16,245909063127691.22,12224457194.571985,88076055515.18033,2995566767305.413,18724614759700.23
17.97117603757412,5.655867077215187e+16,5.683041030043083e+16,249052046413619.1,12700628795.540354,91506884146.48854,3112400546387.2,19470873805922.14
18.430599558325603,5.727751829764953e+16,5.755331915073869e+16,252217439823405.34,13192517648.819,95050956478.67023,3233091912483.063,20242077879223.21
18.899211549492115,5.800154108233739e+16,5.828145586828965e+16,255405622113780.88,13700606464.524954,98711750452.3904,3357759296437.9434,21038992185140.797
19.37719578048196,5.873082494496879e+16,5.9014907564216024e+16,258616971181402.97,14225392621.1932,102492849693.99242,3486524725658.0063,21862405097892.37
19.864739696091597,5.946545555073898e+16,5.9753761223103176e+16,261851864246743.78,14767388605.018694,106397946680.1845,3619513931669.7227,22713128850595.22
20.36203449001343,6.02055184510209e+16,6.049810374372521e+16,265110678029067.7,15327122462.288534,110430845997.7595,3756856460902.7266,23592000245934.71
20.869275179813698,6.0951099121219144e+16,6.124802197791487e+16,268393788913114.47,15905138265.391722,114595467701.13179,3898685788790.775,24499881387869.562
21.38666068340997,6.1702282996869656e+16,6.200360276769721e+16,271701573108063.88,16501996592.804419,118895850770.57133,4045139437287.7617,25437660434978.207
21.91439389707817,6.2459155508105816e+16,6.276493298080884e+16,275034406799304.66,17118275023.462109,123336156674.08441,4196359095898.7896,26406252376068.637
22.452681775019734,6.322180211260361e+16,6.353209954471381e+16,278392666293503.84,17754568645.94041,127920673035.99057,4352490746329.1484,27406599828692.047
23.00173541052013,6.3990308327103064e+16,6.430518947922061e+16,281776728157413.56,18411490582.881073,132653817415.33415,4513684790857.126,28439673861219.0
23.561770118730532,6.476475975760651e+16,6.508428992779474e+16,285186969350839.7,19089672531.11005,137540141197.35397,4680096184539.763,29506474839155.66
24.133005521105144,6.5545242128334296e+16,6.586948818765511e+16,288623767354155.3,19789765317.910625,142584333601.34198,4851884571363.74,30608033296397.336
24.715665631527248,6.633184130952521e+16,6.666087173873786e+16,292087500290709.6,20512439473.925175,147791225808.3099,5029214424456.959,31745410832136.58
25.309978944157795,6.712464334415138e+16,6.7458528271601576e+16,295578547044470.1,21258385823.176296,153165795211.9901,5212255190479.948,32919701034163.312
25.91617852304095,6.792373447361915e+16,6.826254571434601e+16,299097287373191.4,22028316090.709057,158713169796.7947,5401181438319.164,34132030429314.992
26.53450209350177,6.872920116252209e+16,6.907301225860975e+16,302644102017416.25,22822963528.37452,164438632646.47415,5596173012208.491,35383559461858.1
27.165192135371807,6.9541130122501384e+16,6.989001638470721e+16,306219372805540.5,23643083559.28682,170347626587.30966,5797415189408.514,36675483500601.57
27.808495978079243,7.035960833527511e+16,7.071364688596199e+16,309823482755221.44,24489454441.502964,176445758969.80267,6005098842576.897,38009033875567.74
28.464665897640828,7.118472307488288e+16,7.154399289229078e+16,313456816171330.0,25362877951.49156,182738806592.93042,6219420606967.347,39385478945069.69
29.133959215593645,7.201656192919671e+16,7.238114389308506e+16,317119758740675.7,26264180087.97057,189232720775.15768,6440583052598.192,40806125194063.766
29.816638399905518,7.285521282074478e+16,7.32251897594389e+16,320812697623695.7,27194211796.714485,195933632576.51807,6668794861536.378,42272318364677.39
30.51297116790363,7.370076402688405e+16,7.407622076576552e+16,324536021543290.56,28153849716.945393,202847858176.20483,6904271010445.919,43785444619829.8
31.223230591261704,7.455330419936845e+16,7.493432761084043e+16,328290120870986.06,29143996949.943066,209981904410.2341,7147232958555.107,45346931740895.35
31.947695203086937,7.541292238334245e+16,7.579960143831283e+16,332075387710571.44,30165583850.525955,217342474473.88687,7397908841200.732,46958250360380.61
32.686649107148675,7.62797080357974e+16,7.667213385671914e+16,335892215979373.44,31219568842.07434,224936473793.7589,7656533669111.972,48620915230615.945
33.44038208929165,7.715375104352294e+16,7.75520169590286e+16,339741001487300.94,32306939255.786663,232771016074.4021,7923349533601.808,50336486529490.664
34.20918973107749,7.803514174058168e+16,7.843934334175934e+16,343622142013791.25,33428712194.87995,240853429524.671,8198605817838.101,52106571204285.15
34.993373525699035,7.892397092533405e+16,7.933420612368458e+16,347536037382781.94,34585935424.4648,249191263269.0481,8482559414371.836,53932824354688.84
35.793240996213015,7.98203298770426e+16,8.023669896416581e+16,351483089535826.8,35779688287.84817,257792293949.3658,8775474949104.791,55816950656115.59
36.60910581613728,8.07243103720778e+16,8.11469160811327e+16,355463702603452.6,37011082650.03868,266664532522.50015,9077625011884.135,57760705824464.2
37.44128793246003,8.163600469974762e+16,8.20649522687349e+16,359478282974866.25,38281263869.24767,275816231259.7795,9389290393917.238,59765898123500.56
38.29011369110923,8.255550567777578e+16,8.299090291469282e+16,363527239366112.3,39591411797.21015,285255890954.0007,9710760332204.791,61834389916070.27
39.15591596493141,8.348290666744326e+16,8.392486401736176e+16,367610982886744.2,40942741809.164406,294992268340.13696,10042332761196.385,63968099260383.086
40.03903428423004,8.441830158841786e+16,8.486693220253702e+16,371729927105132.7,42336505864.359116,305034383735.9696,10384314571878.65,66169001552646.24
40.93981496991464,8.536178493328493e+16,8.581720474001578e+16,375884488112441.4,43773993597.979454,315391528909.0822,10737021878511.75,68439131217355.164
41.85861126931294,8.631345178179827e+16,8.677577955993198e+16,380075084585383.44,45256533445.40995,326073275176.81335,11100780293235.857,70780583446588.3
42.7957834946992,8.727339781486558e+16,8.774275526888733e+16,384302137847807.94,46785493799.77688,337089481745.9803,11475925208776.412,73195515989687.2
43.751699164593184,8.82417193282844e+16,8.871823116588821e+16,388566071931181.5,48362284203.74208,348450304299.3466,11862802089482.377,75686150994741.31
44.72673314788505,8.92185132462407e+16,8.970230725810957e+16,392867313634029.9,49988356576.54468,360166203836.0475,12261766770939.145,78254776903333.42
45.721267810842754,9.02038771345842e+16,9.069508427649525e+16,397206292580393.56,51665206477.319275,372247955773.34656,12673185768403.965,80903750400043.8
46.73569316705961,9.11979092138922e+16,9.16966636912157e+16,401583441277351.94,53394374405.74546,384706659317.34705,13097436594319.303,83635498418246.92
47.770407030400804,9.220070837233166e+16,9.27071477269864e+16,405999195171667.7,55177447141.11423,397553747110.47614,13534908085166.078,86452520203777.45
48.82581517100882,9.321237417833526e+16,9.372663937827149e+16,410453992705595.25,57016059120.929276,410800995163.7783,13986000737926.512,89357389438086.55
49.902331474429,9.423300689309499e+16,9.475524242437269e+16,414948275371898.44,58911893860.18958,424460533082.2988,14451127056433.92,92352756422548.08
51.000378103917576,9.526270748288494e+16,9.579306144442653e+16,419482487768119.56,60866685412.53639,438544854592.06714,14930711907894.178,95441350325619.22
52.120385665995926,9.630157763122794e+16,9.684020183231062e+16,424057077650140.9,62882219874.477356,453066828377.415,15425192889871.854,98625981494609.08
53.262793379315845,9.734971975090238e+16,9.789676981147542e+16,428672495985070.94,64960336933.93594,468039709237.62775,15935020708041.846,101909543833848.64
54.42804924690216,9.840723699581126e+16,9.896287244971189e+16,433329197003494.8,67102931464.41095,483477149572.1852,16460659565016.37,105295017251105.77
55.616610231840205,9.947423327270688e+16,1.0003861767385922e+17,438027638251113.1,69311955166.06534,499393211204.08014,17002587560564.756,108785470174140.1
56.828942436477014,1.0055081325278968e+17,1.0112411428446813e+17,442768280639809.44,71589418255.10019,515802377551.0052,17561297103553.207,112384062139332.61
58.06552128520656,1.016370823831799e+17,1.0221947197042606e+17,447551588498171.8,73937391202.8108,532719566154.4465,18137295335940.707,116094046454389.28
59.32683171091069,1.0273314689827202e+17,1.0332480132354802e+17,452378029621482.75,76358006525.75685,550160141577.0211,18731104569174.867,119918772937152.62
