t(s),Total solute volume 1,Total retention volume 1,Total 1 volume 1,Total 2 volume 1,Total 3 volume 1,Total 4 volume 1,Total 5 volume 1,Total 6 volume 1
0.1,858476762157242.6,970941579421749.6,55300119698977.766,57164697565528.79,0.0,0.0,0.0,0.0
0.202,1164533010672103.0,1577530579874949.8,75015210475567.22,77544530853423.7,601225665770.6877,1035035603296.2878,12721306404218.729,246080260200568.25
0.30604000000000003,1337887014524082.2,2117339419501685.2,86182079083571.72,89087917683654.84,1394561534419.9753,2401594310228.238,29517997528808.48,570868254836919.9
0.41216080000000005,1451394074304756.0,2634192424874237.0,93493813421828.31,96646184985541.06,2290905829036.762,3946537304868.9805,48508075746802.32,937912833281403.0
0.5204040160000001,1531818906575531.2,3142904322780546.0,98674504464646.97,102001555670602.95,3254544456665.3296,5608530556310.341,68937824344774.82,1332608456712017.0
0.6308120963200001,1591832627355805.8,3650236374175128.5,102540381918143.27,105997780619864.64,4267976603470.3716,7357559374443.455,90438436673387.92,1747801611630011.8
0.7434283382464002,1638321045419580.8,4159848507905577.5,105535005896651.11,109093375658210.06,5321649940335.948,9177278851444.918,112809106930149.52,2179591045209204.2
0.8582969050113283,1675376650885942.0,4673964740843659.0,107922000535654.8,111560853651514.72,6409991506357.084,11058189642033.777,135933162533504.17,2625703892088655.5
0.9754628431115548,1705592771181955.2,5194059412883551.0,109868419067094.94,113572900438728.81,7529612048020.179,12994550774209.717,159740123634779.0,3084761035738766.5
1.094972099973786,1730694817058692.0,5721180744006829.0,111485406516250.69,115244408570690.11,8678404348107.815,14982829539505.21,184186652884679.2,3555908225088896.5
1.2168715419732616,1751875934009186.0,6256118937649805.0,112849821211453.12,116654827841724.38,9855054663097.877,17020861653270.637,209246234201786.03,4038616204069289.0
1.3412089728127268,1769987600356390.8,6799500202359455.0,114016512457254.8,117860856934489.7,11058761965438.719,19107368701695.656,234903242488241.75,4532565859455944.0
1.4680331522689813,1785653648019091.0,7351842491595885.0,115025665359943.94,118904035894178.44,12289068802069.451,21241667498397.97,261149371860746.0,5037579034161457.0
1.597393815314361,1799341439926706.5,7913590149963010.0,115907385831756.66,119815485727326.3,13545755347782.809,23423488100186.484,287981399276827.4,5553575195752423.0
1.729341691620648,1811407911959430.0,8485136312927244.0,116684666454278.14,120618974266524.31,14828770830321.059,25652856084717.19,315399737928348.9,6080543395403633.0
1.863928525453061,1822130270866402.2,9066837880333826.0,117375363932733.44,121332960299403.81,16138187883117.752,27930014256552.453,343407475206726.8,6618523607888899.0
2.001207095962122,1831727003240024.5,9659025817833720.0,117993552421841.88,121971992525171.88,17474171414499.67,30255369320415.977,372009717516336.56,7167594011395432.0
2.1412312378813647,1840372585135495.0,1.026201242456104e+16,118550471068906.97,122547689046427.55,18836956923049.43,32629454804389.348,401213134803857.25,7727862132778935.0
2.284055862638992,1848207990250474.8,1.0876096576086116e+16,119055200914605.8,123069437093310.67,20226835109445.574,35052904817922.69,431025638253471.5,8299458569646885.0
2.4297369798917723,1855348332074876.0,1.150156758315541e+16,119515157173986.33,123544901902956.16,21644140775769.33,37526435190706.04,461456148700053.5,8882532467337064.0
2.578331719489608,1861888511385907.2,1.2138708083751922e+16,119936453028674.23,123980402777840.28,23089244700409.027,40050829737081.19,492514428043349.8,9477248214078676.0
2.7298983538794,1867907450366253.0,1.2787796247146056e+16,120324172374200.98,124381195029452.55,24562547613752.875,42626930142133.95,524210955181407.0,1.0083782996438844e+16
2.884496320956988,1873471308862068.8,1.34491074798812e+16,120682577000277.16,124751684144156.42,26064475680169.65,45255628447579.95,556556833904843.44,1.070232497184211e+16
3.0421862473761276,1878635956757096.0,1.41229157656359e+16,121015265852632.44,125095590414930.8,27595477075292.89,47937861431096.45,589563724071457.2,1.1333071890033388e+16
3.2030299723236504,1883448895354888.0,1.48094947321926e+16,121325298801846.61,125416076883369.14,29156019370016.062,50674606383214.01,623243789967240.1,1.1976230045432054e+16
3.3670905717701234,1887950765600894.8,1.5509118512422774e+16,121615293797828.92,125715849769960.55,30746587515635.016,53466877928654.58,657609661514478.6,1.2632013476295336e+16
3.5344323832055258,1892176542979563.2,1.6222062447992736e+16,121887503840979.72,125997238040519.25,32367682281779.65,56315725637376.766,692674405196684.4,1.330064335001583e+16
3.7051210308696363,1896156492308621.5,1.6948603671706716e+16,122143878486751.88,126262256984527.42,34019819038750.27,59222232239341.05,728451502415031.8,1.398234749023368e+16
3.879223451487029,1899916936757596.8,1.768902159529131e+16,122386113383180.89,126512659422937.97,35703526804185.47,62187512305697.375,764954833589426.1,1.4677360013028276e+16
4.0568079205167695,1903480881831368.2,1.8443598322846364e+16,122615690465757.19,126749977258319.27,37419347494275.25,65212711294003.98,802198666746270.8,1.5385921047756396e+16
4.237944078927105,1906868525176372.0,1.9212619005379464e+16,122833910797389.25,126975555422096.81,39167835334445.32,68299004880388.11,840197649646075.4,1.610827652412268e+16
4.422702960505647,1910097675798695.8,1.9996372148286468e+16,123041921572989.83,127190579789665.16,40949556395210.35,71447598520106.58,878966804731912.4,1.6844678011477864e+16
4.61115701971576,1913184100883646.0,2.079514988098751e+16,123240738460401.27,127396100274590.77,42765088226864.01,74659727191682.48,918521526348441.9,1.759538259960189e+16
4.803380160110075,1916141814356965.8,2.160924819592381e+16,123431264188515.92,127593050043478.17,44615019572628.44,77936655290044.56,958877579807121.2,1.8360652812665024e+16
4.9994477633122765,1918983318263702.8,2.243896716259728e+16,123614304096071.12,127782261589029.52,46499950144360.77,81279676641812.52,1000051101968185.5,1.91407565498941e+16
5.199436718578522,1921719805702907.0,2.328461112116465e+16,123790579204006.27,127964480243169.0,48420490448317.555,84690114621739.98,1042058603082041.4,1.9935967047862416e+16
5.403425452950093,1924361332258661.0,2.4146488859190668e+16,123960737258459.58,128140375592379.38,50377261651080.92,88169322353811.88,1084916969687914.0,2.0746562860388384e+16
5.611493962009095,1926916961475126.8,2.5024913774459296e+16,124125362101769.36,128310551164671.4,52370895477745.586,91718682983953.06,1128643468410148.5,2.1572827852845892e+16
5.823723841249277,1929394888836869.0,2.592020402618513e+16,124284981658860.84,128475552685250.44,54402034136028.586,95339610013998.19,1173255750525602.5,2.241505120832855e+16
6.040198318074262,1931802547862525.8,2.683268267652856e+16,124440074771435.52,128635875141136.75,56471330261165.17,99033547688662.44,1218771857201434.8,2.327352744360221e+16
6.261002284435747,1934146701245627.0,2.77626778239681e+16,124591077068948.6,128791968850099.03,58579446877410.35,102801971428912.25,1265210225322843.0,2.414855643317428e+16
6.486222330124463,1936433519440479.8,2.871052272980172e+16,124738386030841.58,128944244693569.23,60727057372711.21,106646388306440.77,1312589693846541.2,2.504044344011117e+16
6.715946776726952,1938668648662530.8,2.9676555938823884e+16,124882365366891.73,129093078644690.38,62914845483713.58,110568337554986.97,1360929510628344.5,2.5949499152482716e+16
6.950265712261491,1940857269928285.2,3.0661121395040376e+16,125023348820362.03,129238815699695.03,65143505288733.34,114569391115075.84,1410249339683780.5,2.6876039724504456e+16
7.18927102650672,1943004150481746.5,3.1664568553133804e+16,125161643480712.12,129381773302315.2,67413741206706.89,118651154209425.25,1460569268848629.0,2.7820386821604216e+16
7.433056447036854,1945113688728317.2,3.2687252486269468e+16,125297532678088.95,129522244335867.17,69726268000434.984,122815265946799.48,1511909817813183.5,2.8782867668766784e+16
7.681717575977592,1947189953613182.2,3.3729533990729764e+16,125431278519945.31,129660499745397.31,72081810782682.14,127063399952543.64,1564291946509327.0,2.976381510160666e+16
7.935351927497144,1949236719230088.5,3.4791779687780372e+16,125563124120418.23,129796790842230.39,74481105023885.64,131397265024377.27,1617737063834130.2,3.0763567619705212e+16
8.194058966047088,1951257495322429.8,3.5874362123103924e+16,125693295565104.92,129931351334992.45,76924896560396.61,135818605812331.66,1672267036697205.0,3.178246944181144e+16
8.45794014536803,1953255554235915.8,3.697765986407378e+16,125822003647259.14,130064399124347.28,79413941602297.97,140329203521953.72,1727904199382127.5,3.2820870562559844e+16
8.72709894827539,1955233954797104.8,3.8102057595094536e+16,125949445405967.2,130196137893036.08,81949006739949.77,144930876640103.72,1784671363214828.0,3.3879126810403524e+16
9.0016409272409,1957195563521342.8,3.924794621119192e+16,126075805492286.47,130326758518078.22,84530868948508.06,149625481682843.0,1842591826533888.0,3.4957599906495012e+16
9.281673745785717,1959143073494282.8,4.0415722909998616e+16,126201257385532.31,130456440328067.98,87160315589718.1,154414913965043.6,1901689384959505.0,3.605665752427645e+16
9.567307220701432,1961079021221935.8,4.160579128225244e+16,126325964478696.31,130585352225191.36,89838144410350.0,159301108391476.6,1961988341959337.5,3.71766733495654e+16
9.85865336511546,1963005801702098.2,4.28185614008963e+16,126450081049298.23,130713653688812.25,92565163536687.97,164286040269240.06,2023513519710846.2,3.831802714093933e+16
10.155826432417769,1964925681935117.2,4.40544499088459e+16,126573753129702.58,130841495675132.97,95342191464521.23,169371726141452.2,2086290270260691.0,3.948110479023934e+16
10.458942961066125,1966840813062030.0,4.531388010547091e+16,126697119289015.89,130969021425456.22,98170057044110.92,174560224642238.8,2150344486982806.0,4.066629838302524e+16
10.768121820287448,1968753241292794.0,4.659728203181683e+16,126820311337044.69,131096367193878.48,101049599459638.5,179853637373083.97,2215702616337607.2,4.187400625882281e+16
11.083484256693197,1970664917765884.8,4.790509255458134e+16,126943454959417.98,131223662903827.45,103981668202651.75,185254109800671.8,2282391669935378.5,4.3104633071013544e+16
11.405153941827061,1972577707462062.8,4.9237755448840024e+16,127066670291781.9,131351032741614.95,106967123039044.98,190763832176402.06,2350439236907754.0,4.435858984622148e+16
11.733257020663602,1974493397279453.2,5.059572147950861e+16,127190072439966.38,131478595694146.4,110006833969119.31,196385040477797.8,2419873496591522.0,4.563629404305652e+16
12.067922161076874,1976413703363490.8,5.197944848151259e+16,127313771952157.45,131606466037009.89,113101681180273.02,202120017372055.72,2490723231529695.5,4.693816961007776e+16
12.409280604298411,1978340277773719.2,5.3389401438628776e+16,127437875248347.89,131734753778407.83,116252554991888.02,207971093202031.53,2563017840795131.0,4.826464704283924e+16
12.75746621638438,1980274714559398.5,5.482605256094952e+16,127562485011708.11,131863565063724.53,119460355791968.06,213940646994974.06,2636787353642475.0,4.9616163439885256e+16
13.112615540712067,1982218555307159.5,5.6289881360912344e+16,127687700545945.89,131993002544935.53,122725993965102.4,220031107494347.72,2712062443494554.5,5.099316255756034e+16
13.474867851526309,1984173294216528.0,5.778137472783241e+16,127813618102254.83,132123165718578.06,126050389811315.47,226244954215110.4,2788874442269637.5,5.2396094863498984e+16
13.844365208556836,1986140382752483.8,5.9301027000859416e+16,127940331179016.44,132254151235559.7,129434473455370.28,232584718522828.12,2867255355056565.5,5.382541758865763e+16
14.221252512727972,1988121233918691.5,6.0849340040283144e+16,128067930797066.11,132386053185705.67,132879184746094.08,239052984737034.4,2947237875144597.5,5.528159477775387e+16
14.605677562982532,1990117226189967.5,6.242682329709294e+16,128196505753009.5,132518963359616.4,136385473145285.86,245652391259248.6,3028855399415732.0,5.676509733797011e+16
14.997791114242183,1992129707138303.5,6.4033993880700584e+16,128326142852798.92,132652971490118.34,139954297605768.03,252385631726098.06,3112142044106894.0,5.827640308578071e+16
15.397746936527026,1994159996782909.5,6.567137662471935e+16,128456927127531.77,132788165475340.05,143586626438142.75,259255456187983.0,3197132660950171.0,5.9815996791757224e+16
15.805701875257567,1996209390691524.8,6.733950415069103e+16,128588942033223.95,132924631585221.12,147283437165804.1,266264672313760.9,3283862853699217.0,6.138437022320238e+16
16.221815912762718,1998279162857144.5,6.903891692964613e+16,128722269636123.19,133062454653072.22,151045716367765.12,273416146621912.84,3372368995050325.5,6.2982022184459704e+16
16.64625223101797,2000370568371980.8,7.077016334137098e+16,128856990784951.61,133201718253628.06,154874459508839.75,280712805738688.7,3462688243966878.0,6.4609458554745864e+16
17.079177275638333,2002484845917965.2,7.253379973125566e+16,128993185271338.7,133342504868886.97,158770670756737.0,288157637683720.9,3554858563416008.0,6.6267192323340984e+16
17.5207608211511,2004623220091287.5,7.433039046458542e+16,129130931979558.08,133484896042898.83,162735362785598.9,295753693183615.9,3648918738526814.0,6.795574362197559e+16
17.97117603757412,2006786903576577.8,7.616050797813406e+16,129270309026582.55,133628972526540.56,166769556565535.78,303504087014036.2,3744908395179226.5,6.967563975424554e+16
18.430599558325603,2008977099184831.8,7.802473282891134e+16,129411393893358.44,133774814413217.64,170874281137681.47,311411999370786.7,3842868019033327.5,7.1427415221878344e+16
18.899211549492115,2011195001767734.5,7.992365373991067e+16,129554263548121.06,133922501266337.08,175050573374324.1,319480677270457.6,3942838975008716.0,7.321161174767494e+16
19.37719578048196,2013441800019855.0,8.185786764269334e+16,129698994562485.92,134072112239312.77,179299477723629.2,327713435981116.1,4044863527223992.0,7.50287782949429e+16
19.864739696091597,2015718678179032.2,8.382797971664942e+16,129845663220980.6,134223726188791.55,183622045938503.28,336113660483629.8,4148984859406350.5,7.687947108323197e+16
20.36203449001343,2018026817634322.8,8.583460342475349e+16,129994345624624.36,134377421781723.61,188019336789124.66,344684806964125.2,4255247095781815.0,7.876425360017781e+16
20.869275179813698,2020367398449949.5,8.787836054564646e+16,130145117789094.6,134533277596840.72,192492415758683.47,353430404338156.06,4363695322456314.0,8.068369660925734e+16
21.38666068340997,2022741600812998.8,8.995988120184662e+16,130298055737984.39,134691372221056.22,197042354721857.22,362354055807105.7,4474375609298530.5,8.263837815324707e+16
21.91439389707817,2025150606411829.8,9.207980388391123e+16,130453235591592.0,134851784341249.88,201670231605578.94,371459440447387.56,4587335032335144.0,8.462888355317832e+16
22.452681775019734,2027595599751504.5,9.423877547034072e+16,130610733651659.42,135014592831862.9,206377130031622.53,380750314832975.2,4702621696669448.0,8.665580540257165e+16
23.00173541052013,2030077769412132.0,9.643745124302856e+16,130770626482428.45,135179876838686.92,211164138940563.8,390230514691821.1,4820284759934439.0,8.871974355672869e+16
23.561770118730532,2032598309255295.8,9.867649489804582e+16,130932990988355.1,135347715859199.06,216032352196676.4,399903956596699.8,4940374456291619.0,9.082130511685811e+16
24.133005521105144,2035158419583473.8,1.0095657855154214e+17,131097904488796.2,135518189819766.61,220982868173307.88,409774639691012.06,5062942120986700.0,9.2961104408799e+16
24.715665631527248,2037759308256812.5,1.0327838274054603e+17,131265444789947.61,135691379150010.69,226016789318324.88,419846647450087.44,5188040215473745.0,9.513976295610715e+16
25.309978944157795,2040402191771317.8,1.0564259641843405e+17,131435690254296.61,135867364854601.16,231135221699197.44,430124149478509.8,5315722353119163.0,9.735790944725683e+16
25.91617852304095,2043088296302133.5,1.0804991694483592e+17,131608719867828.42,136046228582727.25,236339274527316.47,440611403343974.6,5446043325497267.0,9.961617969671483e+16
26.53450209350177,2045818858715325.2,1.1050105006973758e+17,131784613305200.05,136228052695471.62,241630059661158.56,451312756448196.4,5579059129288643.0,1.0191521659962354e+17
27.165192135371807,2048595127551305.8,1.1299670991153549e+17,131963450993089.45,136412920331293.62,247008691087908.2,462232647935349.8,5714826993793439.0,1.0425567007984306e+17
27.808495978079243,2051418363982694.8,1.1553761892879309e+17,132145314171898.58,136600915469812.61,252476284383193.94,473375610638518.8,5853405409070930.0,1.066381970310759e+17
28.464665897640828,2054289842749349.0,1.1812450788544398e+17,132330284955984.4,136792122994071.36,258033956148582.72,484746273064632.1,5994854154716999.0,1.0906346125081405e+17
29.133959215593645,2057210853072923.5,1.2075811580917522e+17,132518446392569.8,136986628751432.39,263682823426526.75,496349361418301.75,6139234329291302.0,1.1153213336682224e+17
29.816638399905518,2060182699553227.0,1.2343918994273531e+17,132709882519487.44,137184519613267.44,269424003092463.16,508189701665005.7,6286608380405507.0,1.1404489075588638e+17
30.51297116790363,2063206703048456.5,1.2616848568787926e+17,132904678421878.44,137385883533571.14,275258611223804.3,520272221633990.2,6437040135484123.0,1.1660241745453338e+17
31.223230591261704,2066284201541189.2,1.2894676654169029e+17,133102920287977.47,137590809606623.72,281187762445577.2,532601953161274.94,6590594833209201.0,1.1920540406143838e+17
31.947695203086937,2069416550991931.5,1.3177480402498426e+17,133304695464095.81,137799388123830.38,287212569252510.8,545184034273081.4,6747339155660124.0,1.218545476312188e+17
32.686649107148675,2072605126181843.0,1.3465337760252043e+17,133510092508906.16,138011710629834.75,293334141307408.1,558023711409995.3,6907341261159316.0,1.2455055155932312e+17
33.44038208929165,2075851321546123.0,1.3758327459472234e+17,133719201247127.75,138227869978015.2,299553584715656.4,571126341692112.0,7070670817834849.0,1.272941254577084e+17
34.20918973107749,2079156551999514.8,1.4056529008062014e+17,133932112822700.34,138447960385450.66,305872001275803.5,584497395225404.4,7237399037910093.0,1.3008598502100069e+17
34.993373525699035,2082522253755154.2,1.4360022679171419e+17,134148919751533.42,138672077487449.95,312290487706150.56,598142457449463.8,7407598712730634.0,1.3292685188283381e+17
35.793240996213015,2085949885137990.2,1.466888949964629e+17,134369715973904.05,138900318391715.5,318810134847348.5,612067231526754.0,7581344248538420.0,1.3581745346204707e+17
36.60910581613728,2089440927393919.2,1.4983211237509123e+17,134594596906576.75,139132781732219.94,325432026841093.5,626277540773424.1,7758711703002021.0,1.3875852279844211e+17
37.44128793246003,2092996885495575.5,1.5303070388441104e+17,134823659494711.77,139369567722864.66,332157240284983.4,640779331131726.2,7939778822512061.0,1.4175079837776938e+17
38.29011369110923,2096619288945773.2,1.562855016123572e+17,135057002263617.89,139610778210980.69,338986843363744.94,655578673683910.5,8124625080250075.0,1.44795023945639e+17
39.15591596493141,2100309692579457.8,1.5959734462192077e+17,135294725370414.6,139856516730726.64,345921894957049.25,670681767207532.0,8313331715038331.0,1.4789194831003725e+17
40.03903428423004,2104069677364992.0,1.629670787841783e+17,135536930655644.78,140106888556447.61,352963443724223.5,686094940771919.0,8505981770977392.0,1.510423251321273e+17
40.93981496991464,2107900851205438.0,1.6639555660010515e+17,135783721694891.88,140362000756030.11,360112527166223.9,701824656375502.2,8702660137877866.0,1.5424691270502944e+17
41.85861126931294,2111804849740571.8,1.698836370108718e+17,136035203850444.1,140621962244307.81,367370170665333.06,717877511623642.8,8903453592491232.0,1.5750647372025645e+17
42.7957834946992,2115783337150227.2,1.7343218519630592e+17,136291484323041.34,140886883836554.38,374737386503116.6,734260242446437.4,9108450840544294.0,1.608217750215022e+17
