t(s),Total solute volume 1,Total retention volume 1,Total 1 volume 1,Total 2 volume 1,Total 3 volume 1,Total 4 volume 1,Total 5 volume 1,Total 6 volume 1
0.1,1144268928618327.0,1596229672649425.0,193012778181123.2,258947965849975.12,0.0,0.0,0.0,0.0
0.202,1722700362075491.5,2403335561553492.0,290581328498825.25,389846965572644.94,120455008.3848771,309490495.0405393,6938287068.918716,199537173958.40344
0.30604000000000003,2163483297797485.0,3018536116035916.0,364931630115685.6,489596113203652.0,305572394.0957529,785121902.2535574,17601867605.19884,506382357191.1984
0.41216080000000005,2536317865890774.0,3539039697119425.0,427820549576893.8,573968549360118.0,542731467.827839,1394466844.854114,31263428652.1532,899531664674.7169
0.5204040160000001,2867392370249006.5,4001368755414296.5,483665472796641.44,648890685894085.8,826324697.5852937,2123117550.1460986,47599904703.78405,1369677127611.262
0.6308120963200001,3169763634965696.0,4423732091606141.5,534668796325577.7,717317281290161.5,1153342000.0430229,2963340040.1057897,66437884224.32086,1911824458437.6082
0.7434283382464002,3451022555460498.0,4816715872408433.0,582110935806429.8,780966154678620.2,1522060573.2870004,3910707825.325536,87678117589.11594,2523115576898.3154
0.8582969050113283,3716032630384860.5,5187102894831409.0,626812255556403.8,840937915471291.8,1931506446.2279987,4962718430.243303,111264494948.5919,3201934699034.946
0.9754628431115548,3968126824005339.5,5539541726048607.0,669334952698877.1,897986813249385.0,2381189147.255363,6118111661.632298,137168760178.01178,3947468034015.316
1.094972099973786,4209705117321208.0,5877380021114010.0,710083850779799.2,952655963543919.6,2870954751.650704,7376492034.900186,165382044957.72897,4759459977345.075
1.2168715419732616,4442562615782925.0,6203122074032183.0,749361744260312.1,1005351598590936.4,3400897572.2836323,8738101876.032293,195909781353.7976,5638066617210.877
1.3412089728127268,4668083090690467.0,6518698706790843.0,787402044656647.0,1056386865736935.9,3971303813.000979,10203676547.123688,228768455769.06125,6583762270660.828
1.4680331522689813,4887359723702360.0,6825635640557023.0,824389147459853.4,1106009151913014.6,4582613944.268507,11774347776.055613,263983441470.1423,7597277078600.989
1.597393815314361,5101273909890623.0,7125163379436699.0,860471724462779.6,1154417916760722.5,5235396682.866996,13451576801.118885,301587499610.2887,8679553849487.542
1.729341691620648,5310548631891976.0,7418291634427134.0,895771726795183.0,1201776771198787.2,5930330499.740657,15237106858.137815,341619713937.48083,9831717389897.21
1.863928525453061,5515785752034041.0,7705861322024907.0,930390675277984.5,1248221916628616.8,6668190199.892108,17132928699.483383,384124717693.9471,11055052247667.373
2.001207095962122,5717492765868148.0,7988581867798507.0,964414173150703.9,1293868199256904.5,7449837030.49005,19141255178.317776,429152123768.8433,12350986306765.836
2.1412312378813647,5916102437033637.0,8267058583914994.0,997915218037396.9,1338813553464014.0,8276211311.720923,21264502314.663864,476756100180.64465,13721078566141.973
2.284055862638992,6111987495838783.0,8541813163838843.0,1030956681271161.6,1383142328091810.5,9148326915.425743,23505275109.090046,526995052006.0929,15167009983060.326
2.4297369798917723,6305471835633716.0,8813299293906125.0,1063593196473805.1,1426927820182034.5,10067267126.453878,25866356909.08633,579931382964.0559,16690576609570.482
2.578331719489608,6496839173817634.0,9081914729934136.0,1095872620475620.5,1470234234961625.8,11034181558.930847,28350701485.88888,635631317770.2589,18293684478443.637
2.7298983538794,6686339844259139.0,9348010768602564.0,1127837179045984.8,1513118222966962.8,12050283891.744633,30961427216.16797,694164771685.0216,19978345847676.84
2.884496320956988,6874196190338236.0,9611899767844984.0,1159524376579868.5,1555630100488863.5,13116850250.783064,33701812925.449917,755605257318.5476,21746676517535.727
3.0421862473761276,7060606894808383.0,9873861185020048.0,1190967726449539.0,1597814829420081.8,14235218109.746502,36575295063.94363,820029821309.8977,23600894007563.754
3.2030299723236504,7245750491326451.0,1.0134146474252682e+16,1222197343321700.2,1639712811914252.0,15406785612.955473,39585465966.6225,887519005315.875,25543316433388.973
3.3670905717701234,7429788238617241.0,1.0392983095264162e+16,1253240427965305.8,1681360540809142.2,16633011246.483055,42736073008.27785,958156827065.9218,27576361961154.844
3.5344323832055258,7612866492833349.0,1.0650577822696798e+16,1284121667416048.5,1722791136491503.0,17915413800.807014,46031018507.590866,1032030778210.5891,29702548745369.938
3.7051210308696363,7795118680910875.0,1.0907119499261926e+16,1314863567837638.2,1764034793467329.0,19255572580.756542,49474360266.592926,1109231836415.9368,31924495276837.074
3.879223451487029,7976666953760851.0,1.1162781342631664e+16,1345486733378557.8,1805119154478961.8,20655127828.034664,53070312656.31166,1189854489703.795,34244921083086.07
4.0568079205167695,8157623580391724.0,1.1417722891252916e+16,1376010101329568.8,1846069625994892.5,22115781328.862694,56823248178.06055,1273996771456.3733,36666647735781.92
4.237944078927105,8338092130761827.0,1.16720916557261e+16,1406451141644700.2,1886909645889222.8,23639297184.90303,60737699444.25058,1361760304826.8042,39192600128885.555
4.422702960505647,8518168485093743.0,1.1926024528351722e+16,1436826027190159.2,1927660911849375.2,25227502729.995228,64818361533.852776,1453250355549.6511,41825807998605.9
4.61115701971576,8697941699680407.0,1.2179648992713598e+16,1467149779786646.2,1968343577308033.8,26882289578.689907,69070094686.49324,1548575892343.819,44569407661899.14
4.803380160110075,8877494753269994.0,1.243308416687895e+16,1497436396107889.0,2008976420349908.2,28605614795.301147,73497927306.20863,1647849654258.2402,47426643954812.42
4.9994477633122765,9056905193486918.0,1.2686441707342766e+16,1527698956717551.2,2049576989996810.2,30399502174.395145,78107059251.52245,1751188224437.1125,50400872355613.52
5.199436718578522,9236245699114462.0,1.293982659577987e+16,1557949720913812.2,2090161733452149.8,32266043625.405838,82902865393.06224,1858712109883.5483,53495561280579.84
5.403425452950093,9415584571190838.0,1.3193337826662916e+16,1588200209566409.0,2130746107235959.8,34207400655.508263,87890899423.63828,1970545826883.6104,56714294542720.805
5.611493962009095,9594986163582996.0,1.344706901061285e+16,1618461277744841.2,2171344674623684.8,36225805946.06489,93076897908.74799,2086817991820.8665,60060773965661.07
5.823723841249277,9774511261866574.0,1.3701108905793604e+16,1648743178627052.2,2211971191386708.5,38323565018.93671,98466784567.97658,2207661417167.8003,63538822146537.664
6.040198318074262,9954217417860980.0,1.395554188759506e+16,1679055619928059.8,2252638681497643.0,40503057989.76263,104066674779.8531,2333213212487.2065,67152385363105.78
6.261002284435747,1.0134159245966826e+16,1.421044836517708e+16,1709407813885472.5,2293359504191374.5,42766741405.99016,109882880304.46834,2463614890316.006,70905536621381.38
6.486222330124463,1.0314388686470966e+16,1.446590515207769e+16,1739808521673292.0,2334145413551132.0,45117150168.0167,115921914219.63173,2599012476836.7734,74802478841095.95
6.715946776726952,1.0494955240181594e+16,1.4721985796967308e+16,1770266092979566.5,2375007611606228.5,47556899532.284485,122190496067.60478,2739556627270.4497,78847548177046.97
6.950265712261491,1.0675906178090192e+16,1.4978760879705994e+16,1800788501371723.5,2415956795778629.0,50088687195.59155,128695557210.50764,2885402745947.7744,83045217475121.86
7.18927102650672,1.0857286729207634e+16,1.5236298277093568e+16,1831383375980405.0,2457003201390279.5,52715295460.23836,135444246393.42667,3036711111037.41,87400099862363.7
7.433056447036854,1.1039140249264632e+16,1.5494663402063842e+16,1862058029955423.0,2498156639839898.5,55439593479.94071,142443935515.0425,3193647003926.921,91916952470965.08
7.681717575977592,1.1221508372582228e+16,1.5753919419541578e+16,1892819486082991.2,2539426532971372.0,58264539586.71177,149702225606.3019,3356380843268.2417,96600680296528.5
7.935351927497144,1.1404431149098072e+16,1.6014127441731562e+16,1923674499898990.8,2580821944082736.0,61193183699.157036,157226953018.27222,3525088323713.015,101456340191321.66
8.194058966047088,1.1587947168262202e+16,1.6275346705232012e+16,1954629580587444.0,2622351605963728.0,64228669812.83215,165026195820.84677,3699950559375.6753,106489144993618.88
8.45794014536803,1.1772093671287132e+16,1.6537634732045498e+16,1985691009914626.0,2664023946298138.0,67374238573.50961,173108280414.48373,3881154232072.556,111704467794520.45
8.72709894827539,1.1956906653042924e+16,1.6801047476288504e+16,2016864859416486.0,2705847110722452.5,70633229934.36577,181481788357.564,4068891744395.6665,117107846343933.83
9.0016409272409,1.2142420954720542e+16,1.706563945816978e+16,2048157006028900.0,2747828983795702.5,74009085898.25711,190155563412.3843,4263361377688.131,122704987597651.86
9.281673745785717,1.2328670348246736e+16,1.733146388661069e+16,2079573146326614.0,2789977208102510.0,77505353346.39017,199138718813.13168,4464767454996.904,128501772407697.25
9.567307220701432,1.2515687613310756e+16,1.7598572771710052e+16,2111118809515925.5,2832299201684235.0,81125686954.82812,208440644759.54343,4673320509085.317,134504260358318.33
9.85865336511546,1.2703504607759372e+16,1.7867017028111568e+16,2142799369308721.5,2874802173969310.5,84873852200.3858,218071016140.24863,4889237455595.463,140718694750218.11
10.155826432417769,1.2892152332025278e+16,1.8136846570205144e+16,2174620054790213.2,2917493140353472.0,88753728457.58627,228039800490.08643,5112741771456.301,147151507735787.16
10.458942961066125,1.3081660988177674e+16,1.8408110399985144e+16,2206585960379345.5,2960378935562818.5,92769312188.45224,238357266185.95035,5344063678639.978,153809325608281.22
10.768121820287448,1.3272060034113792e+16,1.8680856688293556e+16,2238702054969817.2,3003466225917422.5,96924720227.0051,249033990885.9861,5583440333374.086,160698974248052.7
11.083484256693197,1.346337823335333e+16,1.8955132850095692e+16,2270973190329223.0,3046761520599743.5,101224193160.4403,260080870217.1873,5831116020923.443,167827484729100.12
11.405153941827061,1.3655643700844604e+16,1.923098561436165e+16,2303404108825523.0,3090271182020601.0,105672098809.03639,271509126716.68417,6087342356059.672,175202099089345.12
11.733257020663602,1.3848883945147322e+16,1.950846108906726e+16,2335999450542440.5,3134001435365123.0,110272935806.94406,283330319032.23517,6352378489342.473,182830276268202.94
12.067922161076874,1.4043125907317092e+16,1.9787604821770812e+16,2368763759838285.0,3177958377392279.0,115031337286.08069,295556351387.6464,6626491319340.824,190719698215130.2
12.409280604298411,1.4238395996782368e+16,2.0068461856175836e+16,2401701491397697.5,3222147984553888.0,119952074665.44386,308199483319.0528,6909955710926.955,198878276172995.62
12.75746621638438,1.4434720124473862e+16,2.035107678504665e+16,2434817015819815.5,3266576120491728.5,125040061548.22836,321272339688.2005,7203054719781.276,207314157140220.6
13.112615540712067,1.463212373343985e+16,2.063549379980577e+16,2468114624782363.5,3311248542965850.0,130300357729.2161,334787920979.0701,7506079823249.63,216035730515793.2
13.474867851526309,1.483063182715669e+16,2.0921756737111196e+16,2501598535817043.0,3356170910261196.5,135738173314.97908,348759613884.3602,7819331157699.908,225051634931358.03
13.844365208556836,1.5030268995723508e+16,2.1209909122679428e+16,2535272896728005.0,3401348787115478.5,141358872959.5104,363201202188.5711,8143117762528.476,234370765274739.44
14.221252512727972,1.523105944011053e+16,2.1499994212597504e+16,2569141789681979.0,3446787650206557.0,147167980217.97678,378126877954.58606,8477757830971.268,244002279909337.53
14.605677562982532,1.5433026994614546e+16,2.179205503234162e+16,2603209234996020.5,3492492893234157.5,153171182021.352,393551253020.8522,8823578967878.98,253955608094000.97
14.997791114242183,1.5636195147660204e+16,2.208613441370033e+16,2637479194646220.5,3538469831627120.0,159374333274.7656,409489370816.44977,9180918454619.549,264240457608059.72
15.397746936527026,1.5840587061072096e+16,2.238227502978313e+16,2671955575518527.0,3584723706904752.5,165783461582.472,425956718501.50653,9550123521275.154,274866822586349.06
15.805701875257567,1.60462255879317e+16,2.268051942827723e+16,2706642232420715.5,3631259690717786.0,172404772102.42163,442969239440.6114,9931551626305.543,285844991569159.44
16.221815912762718,1.6253133289121806e+16,2.298091006310199e+16,2741542970873172.0,3678082888592461.0,179244652533.47003,460543346017.0522,10325570743852.79,297185555772156.7
16.64625223101797,1.6461332448652322e+16,2.3283489324596292e+16,2776661549693947.5,3725198343398650.5,186309678238.3521,478695932795.89124,10732559658867.299,308899417581457.9
17.079177275638333,1.6670845087852496e+16,2.358829956836379e+16,2812001683392704.5,3772611038561665.0,193606617505.60175,497444390044.0534,11152908270238.848,320997799279136.06
17.5207608211511,1.6881692978506892e+16,2.389538314288944e+16,2847567044386455.5,3820325901034836.0,201142436953.67545,516806617615.81366,11587017902119.697,333492252004557.2
17.97117603757412,1.7093897655006038e+16,2.4204782416031324e+16,2883361265049091.0,3868347804049260.5,208924307080.59778,536801039212.199,12035301623631.58,346394664957065.0
18.430599558325603,1.7307480425575734e+16,2.451653980048404e+16,2919387939605564.5,3916681569654991.5,216959607962.5349,557446617023.0502,12498184577152.416,359717274845648.56
18.899211549492115,1.7522462382644448e+16,2.4830697778300776e+16,2955650625880576.0,3965331971067139.5,225255935104.74216,578762866760.626,12976104315381.422,373472675591319.94
19.37719578048196,1.7738864412401906e+16,2.5147298924555828e+16,2992152846910920.0,4014303734828991.5,233821105448.43036,600769873093.8185,13469511147386.93,387673828288081.56
19.864739696091597,1.7956707203598186e+16,2.5466385930222564e+16,3028898092429739.5,4063601542803309.0,242663163537.14114,623488305492.2399,13978868493843.52,402334071428425.6
20.36203449001343,1.8176011255629044e+16,2.5788001624334708e+16,3065889820230269.5,4113230034001932.0,251790387846.2978,646939434489.593,14504653251670.215,417467131399473.56
20.869275179813698,1.839679688594748e+16,2.611218899549651e+16,3103131457416069.0,4163193806263107.0,261211297279.66956,671145148375.9078,15047356168284.242,433087133255931.6
21.38666068340997,1.8619084236840544e+16,2.6438991212799704e+16,3140626401544072.0,4213497417785040.5,270934657836.54315,696127970328.4401,15607482225690.111,449208611776175.25
21.91439389707817,1.88428932816052e+16,2.6768451646202956e+16,3178378021666317.5,4264145388523469.0,280969489453.4768,721911075991.1326,16185551034626.266,465846522807876.7
22.452681775019734,1.9068243830155436e+16,2.710061388642514e+16,3216389659275817.5,4315142201460618.5,291325073024.5622,748518311512.7805,16782097238995.895,483016254909699.3
23.00173541052013,1.9295155534090456e+16,2.743552176439997e+16,3254664629161312.5,4366492303752013.5,302010957604.2008,775974212054.1498,17397670930812.81,500733641295694.1
23.561770118730532,1.9523647891249116e+16,2.7773219370335812e+16,3293206220175669.5,4418200107757357.5,313036967796.4462,804304020774.517,18032838075896.066,519014972089145.7
24.133005521105144,1.9753740249778012e+16,2.81137510724237e+16,3332017695921912.0,4470269991960867.5,324413211335.0572,833533708308.19,18688180950551.113,537877006892702.3
24.715665631527248,1.9985451811732976e+16,2.8457161535231212e+16,3371102295360869.5,4522706301786547.0,336150086858.4375,863689992741.8606,19364298589479.547,557336987681760.5
25.309978944157795,2.021880163623755e+16,2.880349573781943e+16,3410463233343820.0,4575513350312753.0,348258291883.72314,894800360103.6265,20061807245161.92,577412652028151.0
25.91617852304095,2.0453808642216296e+16,2.9152798991617316e+16,3450103701073574.0,4628695418890867.0,360748830984.3323,926893085374.8494,20781340858962.434,598122246661285.2
26.53450209350177,2.069049161072049e+16,2.9505116958085324e+16,3490026866496827.5,4682256757671579.0,373633024175.35175,959997254036.0391,21523551544208.05,619484541374032.0
27.165192135371807,2.0928869186864292e+16,2.986049566619973e+16,3530235874630656.5,4736201586042959.0,386922515511.19415,994142784158.1965,22289110081496.676,641518843280670.8
27.808495978079243,2.1168959881384296e+16,3.021898152978528e+16,3570733847825656.0,4790534092983511.0,400629281900.02277,1029360449051.1478,23078706426494.297,664245011434377.6
28.464665897640828,2.1410782071838576e+16,3.058062136472493e+16,3611523885968102.5,4845258437333406.0,414765642139.4852,1065681900480.5374,23893050230482.508,687683471811804.4
29.133959215593645,2.1654354003455772e+16,3.0945462406070824e+16,3652609066623333.0,4900378747986743.0,429344266178.36755,1103139692465.353,24732871373921.906,711855232672367.1
29.816638399905518,2.1899693789649132e+16,3.1313552325082696e+16,3693992445122266.0,4955899124007700.0,444378184608.819,1141767305667.9287,25598920513299.46,736781900299991.4
30.51297116790363,2.2146819412203252e+16,3.16849392462167e+16,3735677054593012.0,5011823634673013.0,459880798393.8656,1181599172388.5054,26491969641531.79,762485695135101.5
31.223230591261704,2.2395748721146116e+16,3.205967176408615e+16,3777665905939268.5,5068156319442845.0,475865888834.9531,1222670702176.6152,27412812662197.66,788989468304766.5
31.947695203086937,2.2646499434314708e+16,3.2437798960417056e+16,3819961987767077.0,5124901187862592.0,492347627784.33813,1265018308071.5842,28362265977876.902,816316718558958.2
32.686649107148675,2.289908913662362e+16,3.281937042101769e+16,3862568266261354.5,5182062219397279.0,509340588107.17224,1308679433484.7039,29341169092875.266,844491609620959.5
33.44038208929165,2.3153535279043612e+16,3.320443625278263e+16,3905487685013714.0,5239643363200504.0,526859754398.16046,1353692579735.4712,30350385230616.26,873538987960040.6
34.20918973107749,2.3409855177299012e+16,3.3593047100750004e+16,3948723164802693.5,5297648537819559.0,544920533957.7365,1400097334254.7966,31390801965985.69,903484400994564.5
34.993373525699035,2.3668066010290024e+16,3.3985254165230292e+16,3992277603327625.5,5356081630838492.0,563538768032.7133,1447934399467.7227,32463331872911.965,934354115733759.5
35.793240996213015,2.3928184818246572e+16,3.4381109219023744e+16,4036153874897251.5,5414946498460291.0,582730743326.4161,1497245622368.651,33568913187474.52,966175137866424.1
36.60910581613728,2.4190228500620216e+16,3.4780664624744416e+16,4080354830074114.0,5474246965029752.0,602513203783.2938,1548074024801.918,34708510486825.383,998975231304906.5
37.44128793246003,2.4454213813719016e+16,3.5183973352267044e+16,4124883295275623.5,5533986822498338.0,622903362653.1365,1600463834460.7527,35883115384218.87,1032782938192717.0
38.29011369110923,2.472015736809102e+16,3.5591088996311904e+16,4169742072332739.0,5594169829832076.0,643918914839.8833,1654460516617.6646,37093747240439.85,1067627599384161.5
39.15591596493141,2.498807562566177e+16,3.600206579418504e+16,4214933938007082.0,5654799712363725.0,665578049540.1844,1710110806599.3176,38341453891924.89,1103539375404421.2
40.03903428423004,2.525798489662979e+16,3.641695864368773e+16,4260461643467281.0,5715880161090174.0,687899463176.8173,1767462743019.0815,39627312395869.89,1140549267898510.0
40.93981496991464,2.5529901336124484e+16,3.683582312121057e+16,4306327913725265.0,5777414831916236.0,710902372632.0402,1826565701780.3945,40952429792620.63,1178689141577559.8
41.85861126931294,2.58038409406313e+16,3.725871550002629e+16,4352535447033241.5,5839407344845595.0,734606528786.0519,1887470430864.065,42317943885639.234,1217991746670852.2
42.7957834946992,2.6079819544187484e+16,3.768569276879696e+16,4399086914242009.0,5901861283119905.0,759032230365.6622,1950229085912.797,43725024039343.24,1258490741892018.0
43.751699164593184,2.635785281435218e+16,3.811681265030796e+16,4445984958121201.5,5964780192306904.0,784200338108.2789,2014895266625.9421,45174871995111.06,1300220717927848.2
