t(s),Total solute volume 1,Total retention volume 1,Total 1 volume 1,Total 2 volume 1,Total 3 volume 1,Total 4 volume 1,Total 5 volume 1,Total 6 volume 1
0.1,1012905215437994.5,1251976985692815.0,109237715628389.53,129834054626431.92,0.0,0.0,0.0,0.0
0.202,1525460546006719.5,1886110716840391.2,164514727890694.34,195533330718640.28,664484427.7355813,1417012515.1565366,24030645028.56864,576000082365.405
0.30604000000000003,1915697656263159.8,2369379224624281.0,206600216289504.97,245553872135341.7,1685599382.65699,3594540980.5813937,60959126152.31837,1461240669759.5046
0.41216080000000005,2245607899361415.5,2778342089217192.0,242179696901034.12,287841723540846.9,2993506299.5475464,6383654371.822149,108259520139.59698,2595132733081.8447
0.5204040160000001,2538428650188052.5,3141693139224277.0,273759226309872.0,325375448688865.3,4557131567.422212,9718088349.941526,164808023731.96,3950730793834.9707
0.6308120963200001,2805740058814500.0,3473730575045432.5,302587676702652.7,359639389711043.0,6359744904.849693,13562165772.441889,229999579791.46503,5513528326771.584
0.7434283382464002,3054273076841330.0,3782765302600761.0,329390953890182.3,391496319102423.44,8391720980.947554,17895360821.314373,303486087212.91766,7275179597809.981
0.8582969050113283,3288339534198971.0,4074121874525719.0,354634071229319.2,421498926656963.5,10647564743.234787,22705955509.80955,385068818713.8531,9230920101500.42
0.9754628431115548,3510893837484266.5,4351449447901984.0,378635649479819.3,450025907823261.25,13124445390.558264,27987913379.101845,474645400904.6846,11378295354959.7
1.094972099973786,3724062951358874.5,4617376118811527.0,401625073147174.0,477349896651249.25,15821384198.411379,33739147536.277782,572180441555.0837,13716456680936.873
1.2168715419732616,3929437378781110.0,4873868138864474.0,423773871519608.94,503674763600269.0,18738766244.602512,39960479410.16549,677687870949.1661,16245737846878.586
1.3412089728127268,4128242793493354.0,5122441774838540.0,445214228535227.0,529157615368809.94,21878028666.590424,46654973961.07126,791219667610.2836,18967384770906.6
1.4680331522689813,4321447113346588.0,5364295465242466.0,466050530205464.5,553922519539173.94,25241452316.699074,53827495386.55404,912858323460.3524,21883374880088.598
1.597393815314361,4509830379974194.0,5600396062645089.0,486366900854274.7,578069461744878.5,28832017496.354546,61484399475.751945,1042711626424.1561,24996292028343.94
1.729341691620648,4694032088722826.0,5831537241610633.0,506232307459066.4,601680412414955.8,32653301254.037758,69633314598.3686,1180908946201.323,28309237451734.977
1.863928525453061,4874584257613236.0,6058380305080163.0,525704126003896.1,624823565548995.1,36709402678.41083,78282982393.40111,1327598532493.6714,31825764996484.15
2.001207095962122,5051935151083068.0,6281483457464266.0,544830699988844.7,647556379623363.5,41004887656.99299,87443139968.19518,1482945517210.8293,35549833224150.57
2.1412312378813647,5226466691146301.0,6501323287826302.0,563653218152882.1,669927809351328.4,45544747544.475105,97124431759.84564,1647130419722.6042,39485769576777.72
2.284055862638992,5398507491191079.0,6718310851759791.0,582207120116064.9,691979976353540.6,50334368010.38504,107338343104.11757,1820348020251.2327,43638243367738.06
2.4297369798917723,5568342784072310.0,6932803921429151.0,600523167084021.4,713749441739638.6,55379505495.207825,118097150029.44536,2002806508426.1692,48012245369230.625
2.578331719489608,5736222101840141.0,7145116461827575.0,618628270075499.5,735268190494820.9,60686269462.26891,129413881410.45972,2194726841445.163,52613072424791.18
2.7298983538794,5902365298368941.0,7355526062887869.0,636546139438457.8,756564403459640.1,66261109141.46798,141302290700.4478,2396342264685.22,57446315956295.44
2.884496320956988,6066967330959069.0,7564279840857522.0,654297800526394.2,777663070235082.0,72110803810.18233,153776835206.8956,2607897960237.276,62517853537728.12
3.0421862473761276,6230202099039540.0,7771599176788470.0,671902007686872.4,798586481226974.2,78242455901.28325,166852661395.92233,2829650797685.4424,67833842920095.3
3.2030299723236504,6392225557095620.0,7977683560026710.0,689375579978092.0,819354626660620.0,84663486402.69662,180545595083.506,3061869167761.5864,73400718043128.38
3.3670905717701234,6553178262299399.0,8182713734686676.0,706733675920542.4,839985523135760.1,91381632139.4332,194872135641.1637,3304832884081.514,79225186679114.98
3.5344323832055258,6713187477057976.0,8386854297411745.0,723990020248265.5,860495483130914.6,98404944622.11433,209849453542.2633,3558833141535.1743,85314229434901.75
3.7051210308696363,6872368917643194.0,8590255858878850.0,741157092491484.5,880899339142517.0,105741790215.43755,225495390723.2019,3824172522414.502,91675099898304.84
3.879223451487029,7030828218820031.0,8793056855290307.0,758246284930825.1,901210631420784.1,113400851432.46269,241828463345.49283,4101165043258.4277,98315325760628.25
4.0568079205167695,7188662168654500.0,8995385076682438.0,775268035766343.0,921441766247225.9,121391129200.63893,258867866630.18686,4390136236843.026,105242710781701.1
4.237944078927105,7345959755891911.0,9197358964335352.0,792231942073012.0,941604150187462.2,129721945976.40018,276633481501.98,4691423264862.187,112465337490644.92
4.422702960505647,7502803063367853.0,9399088718554470.0,809146856151475.4,961708304608515.5,138402949609.24146,295145882831.69336,5005375057715.447,119991570536464.53
4.61115701971576,7659268034085240.0,9600677249670502.0,826020968146341.6,981763963874466.5,147444117875.13312,314426349106.2396,5332352478504.736,127830060618976.45
4.803380160110075,7815425131319078.0,9802220998602998.0,842861877235812.4,1001780159958599.1,156855763614.14877,334496873387.2006,5672728508884.944,135989748943617.16
4.9994477633122765,7971339910006522.0,1.0003810648269166e+16,859676653253765.9,1021765295684105.1,166648540419.19562,355380175444.75275,6026888454847.437,144479872154081.47
5.199436718578522,8127073513457418.0,1.0205531743147568e+16,876471890257995.5,1041727208392367.2,176833448832.39868,377099714974.3069,6395230170865.629,153309967705125.47
5.403425452950093,8282683106873316.0,1.0407465231162752e+16,893253753283447.9,1061673225511376.2,187421843013.5345,399679705819.9454,6778164301114.967,162489879644666.56
5.611493962009095,8438222257132790.0,1.060968793955548e+16,910028019300556.6,1081610213236556.1,198425437851.31497,423145131142.3687,7176114536711.313,172029764779862.75
5.823723841249277,8593741266674275.0,1.0812272994395722e+16,926800113223125.9,1101544619327831.2,209856316493.5628,447521759480.30743,7589517888101.627,181940099206406.62
6.040198318074262,8749287467994322.0,1.1015290191777362e+16,943575139668786.4,1121482510858365.1,221726938276.678,472836161663.5746,8018824971898.082,192231685184038.1
6.261002284435747,8904905484213637.0,1.1218806327419054e+16,960357911059985.4,1141429607613885.8,234050147038.3895,499115728543.65125,8464500311577.051,202915658344398.72
6.486222330124463,9060637460293238.0,1.1422885490323746e+16,977152972559703.0,1161391311729937.8,246839179800.79782,526388689514.1072,8927022651573.035,214003495219974.4
6.715946776726952,9216523268769436.0,1.1627589325268602e+16,993964624259137.6,1181372734062975.5,260107675813.2539,554684131798.5576,9406885284389.645,225507021085047.1
6.950265712261491,9372600693287382.0,1.1832977268172396e+16,1010796940971061.6,1201378717715653.8,273869685946.7252,584032020488.3674,9904596390426.055,237438418101437.22
7.18927102650672,9528905521014216.0,1.2039106760732936e+16,1027653782201566.6,1221413849907040.8,288139680338.9389,614463215958.1296,10420679797411.543,249810324916391.56
7.433056447036854,9685471977174846.0,1.224603343225628e+16,1044538838991413.0,1241482517572233.0,302932566796.018,646009508704.1342,10955673724747.395,262635482717540.06
7.681717575977592,9842332424925368.0,1.2453811281882764e+16,1061455601581086.4,1261588869041369.5,318263688799.18365,678703621675.6217,11510133578347.502,275927285446118.1
7.935351927497144,9999517773325470.0,1.2662492831977384e+16,1078407403387209.8,1281736866233647.8,334148844481.75104,712579246386.1235,12084630735635.021,289699430204546.94
8.194058966047088,1.0157057512008438e+16,1.2872129270706422e+16,1095397424747043.6,1301930289126388.5,350604295663.5444,747671063269.8063,12679753345310.133,303966016120310.5
8.45794014536803,1.0314979808013632e+16,1.308277058207703e+16,1112428703361448.4,1322172748166984.5,367646779263.56726,784014766024.617,13296106740199.084,318741554249483.9
8.72709894827539,1.0473311593389624e+16,1.3294465664861938e+16,1129504143742559.2,1342467695501886.5,385293519044.0788,821647086662.4725,13934313862090.11,334040977760044.3
9.0016409272409,1.063207864456198e+16,1.3507262441645636e+16,1146626525773241.0,1362818435149939.8,403562237686.51355,860605821267.3772,14595015698575.543,349879652402950.1
9.281673745785717,1.0791305654337142e+16,1.3721207959070974e+16,1163798512472445.0,1383228132231823.0,422471169200.36743,900929856463.914,15278871731941.504,366273387271957.3
9.567307220701432,1.0951016297307656e+16,1.3936348480232228e+16,1181022657048889.8,1403699821353708.5,442039071666.6314,942659196599.4674,15986560400162.336,383238445853565.56
9.85865336511546,1.1111233289329798e+16,1.4152729570047214e+16,1198301409315472.5,1424236414231071.5,462285240317.76636,985834991644.4572,16718779570072.494,400791557368824.25
10.155826432417769,1.1271978441665348e+16,1.4370396174340746e+16,1215637121528254.8,1444840706628584.2,483229520956.5521,1030499565815.599,17476247022800.709,418949928409012.6
10.458942961066125,1.1433272710309338e+16,1.45893926932883e+16,1233032053706243.2,1465515384682958.5,504892323716.4854,1076696446927.859,18259700951562.63,437731254867524.7
10.768121820287448,1.1595136240966826e+16,1.4809763049792818e+16,1250488378481951.0,1486263030668008.2,527294637166.6251,1124470396481.3535,19069900471917.844,457153734170477.1
11.083484256693197,1.1757588410087162e+16,1.5031550753305132e+16,1268008185526807.5,1507086128254495.2,550458042764.0514,1173867440489.9167,19907626144606.195,477236077808779.44
11.405153941827061,1.192064786232211e+16,1.5254798959540758e+16,1285593485590826.0,1527987067311431.5,574404729657.2684,1224934901058.5027,20773680511083.43,497997524174576.4
11.733257020663602,1.2084332544730692e+16,1.5479550526498234e+16,1303246214191484.0,1548968148290508.2,599157509844.0931,1277721428716.9912,21668888641885.59,519457851705118.2
12.067922161076874,1.2248659738021916e+16,1.5705848067140182e+16,1320968234983107.5,1570031586230746.0,624739833687.674,1332277035518.1096,22594098697953.426,541637392337233.1
12.409280604298411,1.2413646085093936e+16,1.5933733999060756e+16,1338761342834718.0,1591179514416650.0,651175805794.4318,1388653128907.7288,23550182505055.33,564557045275692.9
12.75746621638438,1.2579307617101888e+16,1.6163250591430768e+16,1356627266641330.5,1612413987719618.2,678490201257.8048,1446902546375.6594,24538036141448.4,588238291078838.6
13.112615540712067,1.2745659777264094e+16,1.639444000948179e+16,1374567671891367.2,1633736985649346.2,706708482271.7451,1507079590895.5522,25558580538922.33,612703206064908.2
13.474867851526309,1.2912717442592794e+16,1.6627344356764534e+16,1392584163010212.2,1655150415139332.8,735856815118.004,1569240067162.4155,26612762097370.93,637974477042534.1
13.844365208556836,1.3080494943719968e+16,1.6862005715394664e+16,1410678285498367.0,1676656113088123.8,765962087531.2484,1633441318636.474,27701553313039.707,664075416368990.6
14.221252512727972,1.3249006082970318e+16,1.7098466184478888e+16,1428851527880532.0,1698255848675906.5,797051926446.1178,1699742265402.1187,28825953420596.812,691029977339668.0
14.605677562982532,1.341826415081983e+16,1.73367679168952e+16,1447105323480605.5,1719951325474173.8,829154716130.3024,1768203442850.669,29986989049177.066,718862769912394.2
14.997791114242183,1.3588281940865322e+16,1.7576953154586476e+16,1465441052036077.0,1741744183364498.8,862299616707.7406,1838887041195.7842,31185714892546.8,747599076770139.2
15.397746936527026,1.3759071763418286e+16,1.7819064262511474e+16,1483860041164086.8,1763636000281029.0,896516583076.0308,1911856945830.1826,32423214393538.703,777264869725621.9
15.805701875257567,1.393064545782717e+16,1.8063143761384464e+16,1502363567690314.8,1785628293789918.5,931836384222.0846,1987178778532.3845,33700600442902.062,807886826471390.6
16.221815912762718,1.4103014403621686e+16,1.830923435932431e+16,1520952858850851.8,1807722522517813.0,968290622940.0217,2064919939532.002,35019016092715.516,839492347678788.5
16.64625223101797,1.4276189530565452e+16,1.8557378982522416e+16,1539629093376362.5,1829920087440409.8,1005911755955.2789,2145149650442.0771,36379635284504.42,872109574449269.5
17.079177275638333,1.445018132769609e+16,1.8807620805030412e+16,1558393402466971.2,1852222333041198.2,1044733114458.7832,2227938998066.7056,37783663592203.83,905767406121444.9
17.5207608211511,1.4624999851423928e+16,1.906000327776058e+16,1577246870665733.2,1874630548349571.2,1084788925054.9877,2313360979092.1294,39232338980106.164,940495518437114.6
17.97117603757412,1.4800654732756726e+16,1.9314570156783576e+16,1596190536637740.0,1897145967866863.8,1126114331127.4944,2401490545669.2354,40726932575926.07,976324382069544.5
18.430599558325603,1.4977155183710056e+16,1.9571365531002376e+16,1615225393861501.8,1919769772388065.8,1168745414625.8289,2492404651895.1523,42268749459116.26,1013285281517089.1
18.899211549492115,1.5154510002960758e+16,1.983043384927506e+16,1634352391238604.2,1942503089726449.0,1212719218276.8665,2586182301201.387,43859129464557.75,1051410334365205.5
19.37719578048196,1.5332727580794236e+16,2.009181994705365e+16,1653572433627274.5,1965346995347726.8,1258073768224.3003,2682904594655.7554,45499448001749.555,1090732510919745.1
19.864739696091597,1.5511815903394112e+16,2.0355569072600276e+16,1672886382305020.5,1988302512919902.5,1304848097099.2458,2782654780184.9795,47191116889612.4,1131285654214363.0
20.36203449001343,1.5691782556518778e+16,2.062172691284034e+16,1692295055365098.0,2011370614784532.0,1353082267525.2126,2885518302724.573,48935585207021.28,1173104500394648.5
20.869275179813698,1.587263472860614e+16,2.089033961890436e+16,1711799228051364.0,2034552222354689.8,1402817396060.223,2991582855302.1343,50734340159168.94,1216224699481594.0
21.38666068340997,1.6054379213345002e+16,2.1161453831410324e+16,1731399633035599.8,2057848206444542.5,1454095677578.8467,3100938431060.108,52588907959863.68,1260682836516651.8
21.91439389707817,1.6237022411749342e+16,2.1435116705532692e+16,1751096960641182.8,2081259387535267.2,1506960410096.7217,3213677376223.4194,54500854729851.93,1306516453090729.2
22.452681775019734,1.6420570333769238e+16,2.1711375935901932e+16,1770891859016847.0,2104786535981516.5,1561456020039.8928,3329894444016.9634,56471787411254.414,1353764069259062.0
23.00173541052013,1.6605028599469754e+16,2.1990279781375744e+16,1790784934263812.2,2128430372162545.0,1617628087961.1167,3449686849537.8423,58503354698192.1,1402465205843925.5
23.561770118730532,1.6790402439808528e+16,2.227187708972077e+16,1810776750519629.0,2152191566581851.2,1675523374705.1196,3573154325586.296,60597247983675.42,1452660407126785.8
24.133005521105144,1.6976696697038978e+16,2.255621732224135e+16,1830867830001692.8,2176070739918888.8,1735189848024.4321,3700399179459.196,62755202322818.83,1504391263931477.8
24.715665631527248,1.7163915824766942e+16,2.2843350578388964e+16,1851058653013328.5,2200068463036325.2,1796676709647.3875,3831526350709.317,64978997412435.39,1557700437099578.0
25.309978944157795,1.7352063887685576e+16,2.313332762038566e+16,1871349657915189.8,2224185256946034.5,1860034422799.451,3966643469873.0386,67270458587058.086,1612631681359143.8
25.91617852304095,1.7541144561012438e+16,2.3426199897891412e+16,1891741241064604.2,2248421592736971.2,1925314740178.8384,4105860918168.649,69631457831424.19,1669229869587636.2
26.53450209350177,1.7731161129652372e+16,2.3722019572745104e+16,1912233756725227.2,2272777891467859.0,1992570732387.272,4249291888166.9956,72063914809449.12,1727541017469609.0
27.165192135371807,1.7922116487107758e+16,2.40208395438064e+16,1932827516949552.8,2297254524027509.5,2061856816816.142,4397052445435.2324,74569797909708.97,1787612308549608.8
27.808495978079243,1.811401334805675e+16,2.4322713465339228e+16,1953522814500436.5,2321851838363852.0,2133228811945.4104,4549261640897.222,77151124693263.56,1849491849272130.2
28.464665897640828,1.8306853391360236e+16,2.4627695792318308e+16,1974319830444593.0,2346570049711539.5,2206743867917.4556,4706041376661.379,79809965415253.22,1913229770142155.2
29.133959215593645,1.850063854165509e+16,2.4935841785004e+16,1995218772342121.0,2371409404751096.5,2282460644770.996,4867516765528.476,82548440476843.97,1978876648368551.5
29.816638399905518,1.8695370111573904e+16,2.524720754161509e+16,2016219781755129.5,2396370071735661.0,2360439245025.881,5033816000953.273,85368723950191.06,2046484597354142.5
30.51297116790363,1.8891049013834676e+16,2.556185002401607e+16,2037322957116549.5,2421452167657330.0,2440741269251.144,5205070472199.756,88273044107051.39,2116107029559035.0
31.223230591261704,1.9087675759055444e+16,2.5879827083668548e+16,2058528353494497.5,2446655757967143.0,2523429847677.1704,5381414831811.638,91263684563087.03,2187798683908895.0
31.947695203086937,1.9285250453448988e+16,2.6201197487849356e+16,2079835982343577.2,2471980856279462.0,2608569672257.7334,5562987064044.645,94342985438486.6,2261615653602546.0
32.686649107148675,1.948377279641652e+16,2.652602094615223e+16,2101245811245459.0,2497427424063653.5,2696227029180.31,5749928554257.409,97513344534847.05,2337615414308306.5
33.44038208929165,1.9683242078058136e+16,2.685435813728943e+16,2122757763640333.0,2522995370324888.5,2786469831822.112,5942384159255.928,100777218528222.38,2415856852746780.0
34.20918973107749,1.9883657176614896e+16,2.7186270736210896e+16,2144371718551044.0,2548684551276276.0,2879367654149.134,6140502278585.321,104137124178246.17,2496400295657658.0
34.993373525699035,2.0085016555857756e+16,2.752182144155568e+16,2166087510301549.2,2574494770004251.5,2974991764554.809,6344434926762.403,107595639553203.88,2579307539147561.0
35.793240996213015,2.0287318262439516e+16,2.7861074003453388e+16,2187904928231285.2,2600425776129081.0,3073415160134.8594,6554337806441.436,111155405270934.5,2664641878415929.5
36.60910581613728,2.049055992322398e+16,2.820409325168803e+16,2209823716407154.0,2626477265462491.0,3174712601394.0913,6770370382504.413,114819125755411.5,2752468137855094.0
37.44128793246003,2.0694738742606204e+16,2.8550945124239104e+16,2231843573334528.8,2652648879664264.0,3278960647380.895,6992695957066.796,118589570508848.4,2842852701520849.5
38.29011369110923,2.0899851499838428e+16,2.890169669621145e+16,2253964151668830.0,2678940205899416.5,3386237691244.2085,7221481745387.79,122469575399142.92,2935863543968969.5
39.15591596493141,2.11058945463744e+16,2.9256416209165604e+16,2276185057929165.5,2705350776497795.0,3496623996207.6562,7456898952674.033,126462043962474.2,3031570261452858.0
40.03903428423004,2.1312863803243724e+16,2.9615173100857956e+16,2298505852215139.0,2731880068617527.0,3610201731954.799,7699122851763.748,130569948720827.94,3130044103477070.5
40.93981496991464,2.1520754758469332e+16,2.9978038035399796e+16,2320926047928350.5,2758527503914022.5,3727055011418.779,7948332861677.502,134796332514219.06,3231358004700762.5
41.85861126931294,2.1729562464537556e+16,3.034508293383982e+16,2343445111499516.5,2785292448215636.5,3847269927969.2007,8204712627020.054,139144309847344.0,3335586617184768.5
42.7957834946992,2.1939281535930636e+16,3.0716381005177376e+16,2366062462122436.5,2812174211207415.5,3970934592988.127,8468450098216.68,143617068250383.1,3442806342975229.0
43.751699164593184,2.214990614673098e+16,3.109200677780663e+16,2388777471495513.0,2839172046124010.5,4098139173826.5645,8739737612565.169,148217869653636.22,3553095367016081.0
