t(s),Total solute volume 1,Total retention volume 1,Total 1 volume 1,Total 2 volume 1,Total 3 volume 1,Total 4 volume 1,Total 5 volume 1,Total 6 volume 1
0.1,1144268928618327.0,1596229672649425.0,193012778181123.2,258947965849975.12,0.0,0.0,0.0,0.0
0.202,1721341625528158.5,2404699971917694.5,290352139796518.8,389539483627500.1,2018235291.2832932,5185544681.532824,116251715767.78552,3343267469775.1978
0.30604000000000003,2160036892101235.2,3021993998096964.0,364350297954842.75,488816191921393.75,5115772816.477888,13144208088.207462,294683746887.1483,8477672391699.787
0.41216080000000005,2530201560215550.0,3545177536071374.0,426788864536068.4,572584429954107.0,9078745746.335905,23326485654.919243,522971324878.8393,15047304809370.043
0.5204040160000001,2858089749744221.0,4010709217281363.5,482096327149802.3,646785503728869.9,13811116295.82396,35485622653.11344,795581494205.6796,22892758425316.72
0.6308120963200001,3156794477428039.0,4436763332412055.0,532481187243206.4,714382362123395.9,19260464033.039833,49486933258.589905,1109494345648.2532,31927063874477.137
0.7434283382464002,3433928217056415.0,4833906070125014.0,579227500251171.1,777097707451204.4,25395949531.930244,65251181020.56078,1462933279661.1406,42099064956010.086
0.8582969050113283,3694367590782528.0,5208908696437850.0,623157844134437.9,836035118971432.0,32199249277.595634,82731287361.7443,1854842733332.546,53378369279476.28
0.9754628431115548,3941453268805105.0,5566413692683444.0,664835715836145.0,891950590117062.6,39660083188.19911,101900840186.23383,2284630516114.0186,65747926485646.85
1.094972099973786,4177589205860380.5,5909766408883932.0,704666609183486.1,945388135675429.6,47773733460.195984,122747718914.15103,2752024871132.4995,79199911841127.58
1.2168715419732616,4404571764837344.0,6241471613467429.0,742953530739584.4,996754272440794.6,56539550171.85659,145270254851.28415,3256988384615.492,93733247260063.64
1.3412089728127268,4623783909269931.0,6563462742428069.0,779929755768455.4,1046361964962255.6,65959994795.356224,169474773637.43668,3799662884192.203,109352014774797.48
1.4680331522689813,4836316385325814.0,6877269842427190.0,815779268947877.8,1094458049019503.6,76039998789.40187,195373947248.62997,4380332488746.476,126064392699214.33
1.597393815314361,5043046830020687.0,7184129157720320.0,850650108170001.6,1141241133806275.8,86786517431.54402,222985647639.33694,4999397905787.168,143881915652487.34
1.729341691620648,5244693364773387.0,7485057342420012.0,884663404584971.5,1186873730148073.8,98208210240.75311,252332125640.0173,5657358021483.805,162818944556211.3
1.863928525453061,5441852049251221.0,7780903304755922.0,917919700233687.8,1231490726304765.2,110315206603.96777,283439408773.9079,6354796399146.864,182892277951724.3
2.001207095962122,5635023756594101.0,8072385396160775.0,950503481301804.5,1275205469831896.5,123118930579.01526,316336851118.97144,7092371186739.291,204120861464520.94
2.1412312378813647,5824633901449149.0,8360118702782087.0,982486505801461.9,1318114232033504.8,136631967912.31116,351056791634.6878,7870807456290.865,226525567282135.03
2.284055862638992,6011047210933680.0,8644635474989536.0,1013930295105024.2,1360299550630007.8,150867963876.79446,387634291677.09155,8690891318797.296,250129024746458.38
2.4297369798917723,6194578977936669.0,8926400689307856.0,1044888032127341.6,1401832776379502.2,165841544071.67017,426106931511.0045,9553465361897.129,274955489026857.84
2.578331719489608,6375503767366896.0,9205824087216680.0,1075406029876667.1,1442776043301126.2,181568252638.49905,466514651571.231,10459425090865.248,301030738676917.94
2.7298983538794,6554062244840628.0,9483269617877174.0,1105524883302733.1,1483183814006551.8,198064503900.47305,508899628212.8787,11409716142886.088,328381995452234.4
2.884496320956988,6730466599007815.0,9759062937063802.0,1135280383922886.8,1523104106772046.0,215347544497.36703,553306176429.041,12405332105961.447,357037861534167.94
3.0421862473761276,6904904895200407.0,1.0033497429612356e+16,1164704254185968.5,1562579480768753.8,233435423835.1997,599780673932.172,13447312816812.6,387028270542653.94
3.2030299723236504,7077544606373951.0,1.0306839095672888e+16,1193824743063808.5,1601647835114538.2,252346971202.14832,648371502363.6803,14536743042814.123,418384449604217.75
3.3670905717701234,7248535503171240.0,1.0579330552244936e+16,1222667113540841.2,1640343062895158.8,272101778288.32095,699129002388.2761,15674751475237.012,451138890381783.56
3.5344323832055258,7418012039338081.0,1.0851194338350222e+16,1251254044980829.5,1678695590983709.8,292720186131.08936,752105440159.4341,16862509977443.95,485325327443853.4
3.7051210308696363,7586095335817164.0,1.1122635666662402e+16,1279605967799461.5,1716732829040895.0,314223275719.5237,807354983186.7333,18101233043884.31,520978722702064.6
3.879223451487029,7752894842777605.0,1.1393844731113678e+16,1307741343811876.0,1754479545632216.8,336632861651.42834,864933684046.7358,19392177434949.96,558135254911353.2
4.0568079205167695,7918509741009469.0,1.1664998655338054e+16,1335676902616824.0,1791958185363457.0,359971488358.5648,924899470692.8512,20736641959787.3,596832313429456.5
4.237944078927105,8083030130753821.0,1.1936263148336722e+16,1363427842125908.8,1829189137912786.8,384262428509.908,987312142361.6729,22135967384589.79,637108495588725.8
4.422702960505647,8246538045920184.0,1.22077939197645e+16,1391007999639556.5,1866190967548164.5,409529683276.10205,1052233370261.8362,23591536448119.816,679003607154928.4
4.61115701971576,8409108323904323.0,1.2479737896536768e+16,1418429998566023.5,1902980609966998.5,435797984195.99,1119726702379.5803,25104773969533.336,722558665443313.8
4.803380160110075,8570809355243894.0,1.2752234274201196e+16,1445705374871628.5,1939573541943169.2,463092796431.76874,1189857571852.6145,26677147036211.38,767815904738011.2
4.9994477633122765,8731703732696039.0,1.3025415430089496e+16,1472844686565757.0,1975983928213268.0,491440323235.79694,1262693308457.626,28310165261403.46,814818783721327.6
5.199436718578522,8891848815669168.0,1.3299407720220214e+16,1499857608907977.2,2012224749207433.8,520867511481.4392,1338303152832.1362,30005381103180.9,863611994668132.1
5.403425452950093,9051297223051432.0,1.3574332177933922e+16,1526753017537275.0,2048307912576421.8,551402058134.0614,1416758273112.4536,31764390237563.67,914241474199967.6
5.611493962009095,9210097265177540.0,1.3850305129065126e+16,1553539061335265.0,2084244350945655.0,583072417557.686,1498131783719.256,33588831979800.4,966754415425583.1
5.823723841249277,9368293323829772.0,1.412743873590843e+16,1580223226523929.2,2120044107909436.0,615907809568.6498,1582498766063.0354,35480389748697.36,1021199281320912.4
6.040198318074262,9525926187680308.0,1.4405841480181088e+16,1606812393247296.2,2155716413941494.0,649938228160.7008,1669936290975.2876,37440791569642.76,1077625819223223.5
6.261002284435747,9683033349372204.0,1.4685618593517318e+16,1633312885682421.0,2191269753624442.8,685194450836.8522,1760523442699.2378,39471810612599.31,1136085076332121.0
6.486222330124463,9839649269450852.0,1.4966872442666756e+16,1659730516558753.0,2226711925377383.8,721708048492.2529,1854341344296.996,41575265761858.09,1196629416125113.2
6.715946776726952,9995805611546410.0,1.5249702875455194e+16,1686070626828181.2,2262050094677716.0,759511395800.0189,1951473184349.629,43753022214783.69,1259312535607952.2
6.950265712261491,1.0151531452540554e+16,1.5534207532642548e+16,1712338121115559.0,2297290841621847.5,798637682058.2614,2052004244842.8296,46006992107144.56,1324189483330531.8
7.18927102650672,1.0306853470897326e+16,1.5820482130051216e+16,1738537499485859.2,2332440203544448.0,839120922461.9265,2156021930144.8904,48339135162936.57,1391316678108069.0
7.433056447036854,1.0461796115875858e+16,1.6108620714702332e+16,1764672885986667.5,2367503713311279.5,880995969767.6973,2263615796995.2334,50751459366867.99,1460751928394898.2
7.681717575977592,1.0616381759958764e+16,1.6398715898166182e+16,1790748054359450.8,2402486433813734.5,924298526324.0568,2374877585431.972,53246021657901.91,1532554452264595.2
7.935351927497144,1.0770630836504808e+16,1.6690859069888192e+16,1816766451258491.0,2437392989119605.5,969065156441.9763,2489901250595.4697,55824928642441.66,1606784897955801.2
8.194058966047088,1.0924561964362616e+16,1.6985140592874488e+16,1842731217270489.5,2472227592673178.5,1015333299084.6029,2608782995352.306,58490337325914.95,1683505364947871.2
8.45794014536803,1.1078192060950992e+16,1.7281649983805714e+16,1868645205988672.8,2506994072885311.0,1063141280856.7822,2731621303690.5527,61244455861654.15,1762779425534548.8
8.72709894827539,1.1231536445114954e+16,1.7580476079374848e+16,1894511001362349.2,2541695896409704.5,1112528329277.4482,2858516974842.7095,64089544316095.586,1844672146867634.0
9.0016409272409,1.1384608930899906e+16,1.7881707190417882e+16,1920330933514501.8,2576336189364019.5,1163534586319.8538,2989573158097.6655,67027915449431.75,1929250113445582.2
9.281673745785717,1.153742191324325e+16,1.8185431245207644e+16,1946107093196094.5,2610917756721882.0,1216201122206.2212,3124895388267.5166,70061935510947.016,2016581450024934.2
9.567307220701432,1.1689986446459722e+16,1.849173592311303e+16,1971841345024793.5,2645443100074127.5,1270569949444.9524,3264591621778.4688,73194025048351.89,2106735844934789.8
9.85865336511546,1.1842312316292382e+16,1.8800708779682484e+16,1997535339638361.2,2679914433933880.5,1326684037099.8167,3408772273358.8926,76426659730509.77,2199784573776894.5
10.155826432417769,1.1994408106208228e+16,1.9112437364082104e+16,2023190524877268.2,2714333700739270.5,1384587325281.7898,3557550253300.5127,79762371183016.88,2295800523495765.5
10.458942961066125,1.2146281258540506e+16,1.9427009329714916e+16,2048808156098037.5,2748702584689994.0,1444324739855.1958,3711041005271.4165,83203747836157.19,2394858216805105.0
10.768121820287448,1.2297938131009944e+16,1.9744512538750252e+16,2074389305707132.2,2783022524537953.0,1505942207350.9333,3869362544662.298,86753435784819.06,2497033836958423.0
11.083484256693197,1.2449384049098112e+16,2.0065035161213548e+16,2099934871995153.0,2817294725439428.5,1569486670080.3276,4032635497449.3906,90414139659999.34,2602405252853339.5
11.405153941827061,1.2600623354694088e+16,2.0388665769213188e+16,2125445587342501.5,2851520169963795.0,1635006101444.0906,4200983139560.023,94188623511581.44,2711052044460208.5
11.733257020663602,1.2751659451390114e+16,2.071549342682123e+16,2150922025859685.5,2885699628343910.0,1702549521431.6428,4374531436728.66,98079711702111.12,2823055528567263.5
12.067922161076874,1.2902494846761428e+16,2.10456077760687e+16,2176364610519048.8,2919833668044028.5,1772167012306.7375,4553409084832.924,102090289811344.33,2938498784835677.5
12.409280604298411,1.3053131191931384e+16,2.1379099119468796e+16,2201773619828500.2,2953922662713447.5,1843909734476.1296,4737747550701.491,106223305551371.47,3057466682158883.0
12.75746621638438,1.3203569318691108e+16,2.1716058499440532e+16,2227149194092765.0,2987966800586591.0,1917829942538.6057,4927681113386.775,110481769692171.56,3180045905321954.5
13.112615540712067,1.3353809274415664e+16,2.205657777496575e+16,2252491341303011.0,3021966092384608.0,1993981001512.4429,5123346905897.704,114868756997486.38,3306324981957565.5
13.474867851526309,1.3503850354995146e+16,2.2400749695782436e+16,2277799942691535.0,3055920378767647.0,2072417403239.9087,5324884957389.09,119387407170930.64,3436394309796519.5
13.844365208556836,1.3653691135976746e+16,2.2748667974386384e+16,2303074757984789.5,3089829337382286.0,2153194782968.1394,5532438235805.704,124040925812307.66,3570346184211470.0
14.221252512727972,1.3803329502094852e+16,2.3100427356088452e+16,2328315430384408.0,3123692489544227.5,2236369936106.2817,5746152690981.094,128832585384120.03,3708274826053767.0
14.605677562982532,1.3952762675349656e+16,2.3456123687351544e+16,2353521491303502.0,3157509206592491.5,2322000835159.3745,5966177298192.32,133765726188310.2,3850276409784218.5
14.997791114242183,1.4101987241779118e+16,2.3815853982611332e+16,2378692364882455.0,3191278715947852.0,2410146646840.1084,6192664102173.785,138843757353294.3,3996449091899581.0
15.397746936527026,1.4250999177054738e+16,2.4179716489766424e+16,2403827372306332.5,3225000106905200.5,2500867749360.3013,6425768261594.447,144070157831391.97,4146893039657787.0
15.805701875257567,1.4399793871020412e+16,2.454781075450746e+16,2428925735944137.0,3258672336186671.5,2594225749904.1924,6665648094004.661,149448477406791.16,4301710460105551.5
16.221815912762718,1.4548366151282096e+16,2.492023768364108e+16,2453986583327771.0,3292294233280018.5,2690283502286.8164,6912465121260.298,154982337714214.5,4461005629413422.0
16.64625223101797,1.4696710305945492e+16,2.5297099607549828e+16,2479008950987424.5,3325864505584106.0,2789105124800.672,7166384115433.374,160675433268500.4,4624884922524092.0
17.079177275638333,1.484482010559062e+16,2.5678500341920316e+16,2503991788158166.5,3359381743381746.0,2890756018255.2646,7427573145220.0,166531532505336.78,4793456843120935.0
17.5207608211511,1.4992688824563254e+16,2.606454524885798e+16,2528933960371408.0,3392844424658002.5,2995302884214.047,7696203622858.393,172554478833436.62,4966832053924823.0
17.97117603757412,1.5140309261656462e+16,2.645534129750165e+16,2553834252943298.0,3426250919780377.5,3102813743434.4155,7972450351570.768,178748191698463.25,5145123407328050.0
18.430599558325603,1.5287673760247996e+16,2.6850997124238524e+16,2578691374371574.5,3459599496055907.0,3213357954516.699,8256491573545.198,185116667659063.72,5328445976375904.0
18.899211549492115,1.5434774227953092e+16,2.725162309261543e+16,2603503959650490.5,3492888322178598.0,3327006232769.2183,8548509018474.744,191663981475403.47,5516917086106621.0
19.37719578048196,1.5581602155847164e+16,2.7657331353034932e+16,2628270573513284.5,3526115472579520.5,3443830669296.4023,8848687952673.215,198394287210634.84,5710656345262341.0
19.864739696091597,1.5728148637306826e+16,2.8068235902316904e+16,2652989713610214.0,3559278931690540.5,3563904750318.5522,9157217228788.46,205311819345762.1,5909785678384447.0
20.36203449001343,1.5874404386513382e+16,2.8484452643203664e+16,2677659813629709.0,3592376598131624.0,3687303376731.6274,9474289336135.684,212420893908417.66,6114429358307680.0
20.869275179813698,1.6020359756658218e+16,2.8906099443878824e+16,2702279246369196.0,3625406288830736.5,3814102883916.808,9800100451675.605,219725909616094.9,6324714039068946.0
21.38666068340997,1.6166004757885434e+16,2.933329619756663e+16,2726846326761647.0,3658365743084258.5,3944381061809.8154,10134850491663.293,227231349034427.88,6540768789247419.0
21.91439389707817,1.631132907500329e+16,2.9766164882275956e+16,2751359314863105.5,3691252626565146.5,4078217175240.923,10478743163995.918,234941779751140.16,6762725125754030.0
22.452681775019734,1.6456322084993142e+16,3.0204829620745856e+16,2775816418806013.5,3724064535285030.0,4215691984557.197,10831986021289.193,242861855566341.53,6990717048089496.0
23.00173541052013,1.6600972874339068e+16,3.0649416740649836e+16,2800215797722387.5,3756798999516102.5,4356887766539.1978,11194790514714.172,250996317699869.34,7224881073091157.0
23.561770118730532,1.6745270256201626e+16,3.1100054835110532e+16,2824555564640620.0,3789453487677428.0,4501888335625.198,11567372048627.486,259349996016436.38,7465356270190147.0
24.133005521105144,1.6889202787453498e+16,3.155687482357498e+16,2848833789359053.5,3822025410190134.0,4650779065456.343,11949950036031.172,267927810269363.84,7712284297201371.0
24.715665631527248,1.7032758785593582e+16,3.2020010013097376e+16,2873048501298920.0,3854512123305056.0,4803646910757.489,12342747954897.814,276734771363742.66,7965809436670453.0
25.309978944157795,1.7175926345552552e+16,3.248959616007469e+16,2897197692339191.0,3886910932905887.0,4960580429568.338,12745993405401.314,285775982639883.5,8226078632802207.0
25.91617852304095,1.731869335640244e+16,3.2965771532476988e+16,2921279319635010.0,3919219098290458.5,5121669805841.141,13159918168092.758,295056641177977.4,8493241528997140.0
26.53450209350177,1.7461047517977864e+16,3.34486769726148e+16,2945291308421390.5,3951433835932217.5,5287006872420.918,13584758263064.602,304582039124912.25,8767450506022967.0
27.165192135371807,1.760297635741707e+16,3.393845596048249e+16,2969231554803296.0,3983552323223426.0,5456685134425.68,14020754010147.113,314357565044236.6,9048860720849814.0
27.808495978079243,1.774446724562746e+16,3.4435254677713724e+16,2993097928532996.0,4015571702201278.0,5630799793044.375,14468150090182.977,324388705290309.94,9337630146178444.0
28.464665897640828,1.7885507413678616e+16,3.4939222072188684e+16,3016888275775214.5,4047489083257692.5,5809447769770.983,14927195607427.752,334681045407691.6,9633919610692310.0
29.133959215593645,1.8026083969125172e+16,3.545050992332492e+16,3040600421860481.5,4079301548833143.0,5992727731093.895,15398144153125.793,345240271556894.25,9937892840064996.0
29.816638399905518,1.8166183912258892e+16,3.5969272908087476e+16,3064232174026418.5,4111006157094519.0,6180740113660.391,15881253870311.992,356072171967633.5,1.0249716498756058e+16
30.51297116790363,1.8305794152288812e+16,3.6495668667751704e+16,3087781324147028.5,4142599945596677.0,6373587149936.482,16376787519892.764,367182638420749.3,1.0569560232628654e+16
31.223230591261704,1.844490152344631e+16,3.7029857875449304e+16,3111245651449244.5,4174079934927017.5,6571372894383.368,16885012548059.5,378577667760024.44,1.0897596712424344e+16
31.947695203086937,1.8583492801011436e+16,3.757200430453075e+16,3134622925216216.0,4205443132332281.5,6774203250171.576,17406201155090.951,390263363435138.94,1.1234001678130352e+16
32.686649107148675,1.872155471725471e+16,3.8122274897772424e+16,3157910907476332.0,4236686535326108.0,6982185996455.493,17940630365601.004,402245937077046.9,1.1578953984276204e+16
33.44038208929165,1.885907397728779e+16,3.868083983746164e+16,3181107355676878.5,4267807135276096.0,7195430816230.32,18488582100290.52,414531710107072.8,1.1932635646197246e+16
34.20918973107749,1.8996037274816236e+16,3.924787261638484e+16,3204210025341201.5,4298801920968610.0,7414049324795.266,19050343249262.824,427127115381088.1,1.229523188730362e+16
34.993373525699035,1.9132431307784976e+16,3.982355010975165e+16,3227216672707706.5,4329667882149423.5,7638155098845.919,19626205746964.375,440038698870117.56,1.2666931187393674e+16
35.793240996213015,1.926824279390784e+16,4.040805264808106e+16,3250125057349404.5,4360402013037920.5,7867863706220.436,20216466648812.24,453273121378773.8,1.3047925332052032e+16
36.60910581613728,1.9403458486070812e+16,4.10015640910777e+16,3272932944772032.5,4391001315813014.5,8103292736323.762,20821428209571.434,466837160302950.0,1.3438409463173042e+16
37.44128793246003,1.9538065187597896e+16,4.1604271902528104e+16,3295638108989136.5,4421462804067679.5,8344561831254.868,21441397963547.086,480737711428200.06,1.3838582130650424e+16
38.29011369110923,1.967204976736908e+16,4.221636722624179e+16,3318238335072070.0,4451783506230197.0,8591792717662.188,22076688806656.207,494981790770266.6,1.4248645345275816e+16
39.15591596493141,1.9805399174776932e+16,4.28380449630658e+16,3340731421672884.0,4481960468948815.0,8845109239352.895,22727619080445.152,509576536459245.25,1.4668804632888096e+16
40.03903428423004,1.9938100454510692e+16,4.346950384900055e+16,3363115183518047.0,4511990760437458.0,9104637390681.73,23394512658119.195,524529210668882.0,1.5099269089816722e+16
40.93981496991464,2.0070140761154388e+16,4.41109465344423e+16,3385387453870866.5,4541871473779129.0,9370505350745.672,24077699032652.348,539847201592507.8,1.5540251439661976e+16
41.85861126931294,2.0201507373585748e+16,4.476257966457962e+16,3407546086960211.0,4571599730184555.0,9642843518410.62,24777513407044.496,555538025467140.4,1.5991968091456568e+16
42.7957834946992,2.0332187709162284e+16,4.542461396097246e+16,3429588960373439.5,4601172682202407.0,9921784548196.42,25494296786795.04,571609328647282.2,1.6454639199251932e+16
