t(s),Total solute volume 1,Total retention volume 1,Total 1 volume 1,Total 2 volume 1,Total 3 volume 1,Total 4 volume 1,Total 5 volume 1,Total 6 volume 1
0.1,1171626138357391.5,1690659390667246.5,218249522949102.88,300783729360751.56,0.0,0.0,0.0,0.0
0.202,1763697726582908.8,2545042722389871.0,328540119101462.5,452782320596939.0,11409077.273649301,30551419.70828137,728578007.0299926,21785570053.608185
0.30604000000000003,2215004091669208.5,3196313618623177.0,412609087020315.75,568643187380098.1,28943210.88157273,77504741.63848613,1848402248.5115168,55297703355.25697
0.41216080000000005,2596804729154993.5,3747297341012861.0,483730586655259.9,666660312379267.4,51408221.02153269,137662108.7905081,3283160802.5508323,98240592209.50548
0.5204040160000001,2935893592504451.5,4236656579902387.5,546895773109171.56,753712328911780.8,78273767.3279869,209603354.8344317,4998976333.856268,149598523524.8559
0.6308120963200001,3245631463945256.0,4683670413676408.0,604593481616987.9,833229261448078.2,109255451.27257691,292566907.53936076,6977683027.862518,208827160692.759
0.7434283382464002,3533786492298908.5,5099547978393408.0,658270756375966.5,907205374953528.5,144190781.76066312,386117642.8619791,9208902037.019072,275615554541.2632
0.8582969050113283,3805336012773405.0,5491471399667705.0,708854771179620.8,976918467438510.9,182988199.0435791,490010379.08172363,11686785133.902124,349788492460.5657
0.9754628431115548,4063691198496470.5,5864362918096960.0,756980956472614.1,1043244266581439.8,225601956.5442539,604122614.4384046,14408410264.3642,431258411600.9674
1.094972099973786,4311308517295095.5,6221767195351252.0,803106901003358.8,1106813404947048.1,272018210.57535744,728417277.7063329,17372893043.48376,519998777221.72003
1.2168715419732616,4550025484108459.0,6566335789179644.0,847574895499814.4,1168097615461330.8,322246662.35455316,862920346.9105275,20580852908.47988,616028090116.2871
1.3412089728127268,4781258714791172.0,6900112934977341.0,890648825964513.6,1227460576441445.2,376315226.25649476,1007706571.8032416,24034072569.725304,719399685842.5148
1.4680331522689813,5006127486800575.0,7224713837113981.0,932537190454918.5,1285189632505367.5,434266470.7319351,1162889943.2469306,27735270687.341396,830194926022.1672
1.597393815314361,5225534380567250.0,7541441029757871.0,973408120889714.9,1341516497092033.5,496155157.9704457,1328617104.8480685,31687944727.02068,948518491880.0211
1.729341691620648,5440219898889063.0,7851363189335777.0,1013399557503310.1,1396631274533293.5,562046496.4233719,1505062673.5104523,35896259347.43872,1074495041586.9808
1.863928525453061,5650800629165523.0,8155370200222040.0,1052626357674581.9,1450692257189256.2,632014873.6629618,1692425846.2476075,40364965467.34295,1208266786492.9702
2.001207095962122,5857796621208575.0,8454212659139644.0,1091185395842298.5,1503832953970644.2,706142923.4253138,1890927901.8827362,45099340677.26652,1349991706623.507
2.1412312378813647,6061651480344117.0,8748530868181045.0,1129159306431070.5,1556167248706406.8,784520831.6555965,2100810342.7562158,50105144916.47122,1499842223346.0183
2.284055862638992,6262747409112799.0,9038876538992066.0,1166619285806633.0,1607793261698993.0,867245817.6655707,2322333505.354015,55388587334.38069,1658004206983.0483
2.4297369798917723,6461416665108466.0,9325729325693386.0,1203627226632324.8,1658796291218644.8,954421746.3851898,2555775521.9837427,60956301525.01937,1824676235168.3271
2.578331719489608,6657950424357403.0,9609509614188834.0,1240237368931837.2,1709251088939451.0,1046158840.6858257,2801431550.425451,66815327153.02859,2000069042603.8801
2.7298983538794,6852605732574214.0,9890588552429090.0,1276497594963285.5,1759223644488800.8,1142573471.4732819,3059613211.836622,72973096546.82683,2184405119559.1216
2.884496320956988,7045611024449545.0,1.0169296014463576e+16,1312450457347473.5,1808772602377237.2,1243788009.2350907,3330648193.221239,79437425216.83774,2377918427904.2983
3.0421862473761276,7237170555010846.0,1.044592699470862e+16,1348134004538012.0,1857950399632053.2,1349930724.9202547,3614879982.0028014,86216505524.56517,2580854211492.838
3.2030299723236504,7427467993614094.0,1.072074679396971e+16,1383582450307057.2,1906804188458766.0,1461135731.0213618,3912667708.2522345,93318902919.36476,2793468883429.548
3.3670905717701234,7616669365753928.0,1.0993995264429686e+16,1418826721743190.8,1955376591472345.0,1577542955.89841,4224386075.931634,100753554298.3497,3016029976911.6104
3.5344323832055258,7804925481413098.0,1.1265890313767644e+16,1453894911602349.0,2003706325111158.5,1699298145.9809098,4550425368.791051,108529768146.85616,3248816149384.047
3.7051210308696363,7992373955148708.0,1.1536630820199216e+16,1488812654607722.0,2051828718240169.2,1826552891.6763904,4891191519.747176,116657226193.01819,3492117232030.783
3.879223451487029,8179140898592529.0,1.1806399074850718e+16,1523603442727319.2,2099776146655263.0,1959464673.714218,5247106234.984119,125145986367.52483,3746234318344.8228
4.0568079205167695,8365342347884697.0,1.2075362841676342e+16,1558288891075107.0,2147578399538714.0,2098196927.341793,5618607165.859904,134006486903.59207,4011479886837.925
4.237944078927105,8551085474953736.0,1.2343677105496634e+16,1592888963547197.2,2195262990423043.5,2242919122.3224235,6006148123.127163,143249551446.1683,4288177953967.4126
4.422702960505647,8736469621253568.0,1.2611485563869906e+16,1627422165385537.2,2242855422575392.2,2393806857.099312,6410199329.088121,152886395065.9113,4576664254152.277
4.61115701971576,8921587184687946.0,1.2878921907138156e+16,1661905708393405.5,2290379416691677.0,2551041965.817344,6831247704.180861,162928631094.3764,4877286444376.349
4.803380160110075,9106524384369386.0,1.3146110922211538e+16,1696355653394108.2,2337857107228101.0,2714812637.1546793,7269797185.189798,173388278713.4818,5190404331374.122
4.9994477633122765,9291361923124682.0,1.3413169448821916e+16,1730787033641900.0,2385309212481667.5,2885313544.1246986,7726369072.833332,184277771245.63232,5516390119794.042
5.199436718578522,9476175563940192.0,1.3680207211612716e+16,1765213962201742.5,2432755182577239.0,3062745984.1778235,8201502406.93255,195609965101.68115,5855628680056.686
5.403425452950093,9661036633601702.0,1.394732754718881e+16,1799649725766905.0,2480213328763529.5,3247318029.070161,8695754367.733877,207398149352.68384,6208517834888.52
5.611493962009095,9846012464440768.0,1.4214628041872642e+16,1834106866947115.5,2527700936819744.0,3439244684.079096,9209700702.261198,219656055898.6224,6575468663728.084
5.823723841249277,1.0031166783223002e+16,1.448220109320443e+16,1868597256710328.8,2575234366892267.0,3638748056.239396,9743936174.823523,232397870213.2602,6956905824380.479
6.040198318074262,1.0216560054698278e+16,1.4750134406035904e+16,1903132158378960.0,2622829141691972.0,3846057531.351639,10299075041.013462,245638242649.2688,7353267891445.296
6.261002284435747,1.0402249786103626e+16,1.5018511432296332e+16,1937722284352448.2,2670500024667263.0,4061409959.580439,10875751544.707335,259392300291.9615,7765007711168.79
6.486222330124463,1.0588290797905546e+16,1.5287411762058386e+16,1972377846540869.5,2718261089509889.5,4285049849.515358,11474620437.727451,273675659353.536,8192592772477.458
6.715946776726952,1.0774735465245456e+16,1.5556911472345598e+16,2007108601341247.8,2766125782139675.5,4517229570.61505,12096357521.95311,288504438102.7314,8636505594040.785
6.950265712261491,1.0961633933872698e+16,1.5827083439140948e+16,2041923889861323.2,2814106976139498.5,4758209563.996309,12741660213.777262,303895270327.4547,9097244127289.72
7.18927102650672,1.114903431378595e+16,1.6097997617245844e+16,2076832673990907.2,2862217022467599.0,5008258561.564477,13411248130.900972,319865319330.1664,9575322175384.418
7.433056447036854,1.1336982853336198e+16,1.636972129196187e+16,2111843568833671.2,2910467794153827.0,5267653813.5135355,14105863701.539665,336432292457.81335,10071269828184.977
7.681717575977592,1.1525524096152428e+16,1.66423193060014e+16,2146964871939129.2,2958870726586206.5,5536681324.251044,14826272796.189917,353614456169.83453,10585633913330.744
7.935351927497144,1.1714701022921912e+16,1.6915854264561086e+16,2182204589713312.8,3007436853909148.0,5815636096.827635,15573265382.17016,371430651649.3554,11118978463580.521
8.194058966047088,1.1904555179779994e+16,1.7190386721089424e+16,2217570461335141.8,3056176841984144.0,6104822385.972713,16347656201.20709,389900310964.0249,11671885200608.168
8.45794014536803,1.2095126794829728e+16,1.7465975345943154e+16,2253069980461618.0,3105101018303080.0,6404553959.857721,17150285470.393349,409043473784.2722,12244954035485.316
8.72709894827539,1.2286454884112586e+16,1.7742677079838582e+16,2288710414967882.5,3154219399193365.5,6715154370.726605,17982019606.88974,428880804667.901,12838803586118.53
9.0016409272409,1.2478577348181016e+16,1.802054727376028e+16,2324498824936800.5,3203541714610380.5,7036957234.549675,18843751976.790775,449433610920.9776,13454071711939.055
9.281673745785717,1.2671531060280132e+16,1.829963981677857e+16,2360442079085223.0,3253077430775783.5,7370306519.872672,19736403668.613617,470723861046.0113,14091416066174.066
9.567307220701432,1.286535194701938e+16,1.8580007253049664e+16,2396546869791578.0,3302835770887741.0,7715556846.047362,20660924291.908646,492774203789.30444,14751514666055.639
9.85865336511546,1.3060075062309526e+16,1.8861700889116304e+16,2432819726868673.5,3352825734102366.5,8073073791.043838,21618292801.528584,515607987800.27435,15435066481349.777
10.155826432417769,1.3255734655247134e+16,1.914477089249363e+16,2469267030209225.0,3403056112961191.5,8443234209.05765,22609518348.12698,539249281916.35187,16142792041613.596
10.458942961066125,1.3452364232549302e+16,1.9429266382411468e+16,2505895021416126.5,3453535509419619.0,8826426558.13778,23635641155.4898,563722896087.8833,16875434062611.992
10.768121820287448,1.3649996616071306e+16,1.9715235513481156e+16,2542709814516807.5,3504272349613088.5,9223051238.073244,24697733425.338284,589054402958.2456,17633758092349.406
11.083484256693197,1.3848663995880698e+16,2.000272555297136e+16,2579717405849786.5,3555274897482364.5,9633520938.788185,25796900270.27326,615270160115.1017,18418553177193.64
11.405153941827061,1.4048397979307528e+16,2.0291782952298516e+16,2616923683201758.5,3606551267365937.0,10058260999.506968,26934280675.556927,642397333029.5364,19230632548592.31
11.733257020663602,1.4249229636345418e+16,2.0582453413273652e+16,2654334434264838.0,3658109435655506.0,10497709778.962004,28111048490.46738,670463918700.4364,20070834330902.06
12.067922161076874,1.4451189541737212e+16,2.0874781949587136e+16,2691955354476234.0,3709957251600323.0,10952319036.927925,29328413449.98269,699498770022.308,20940022270875.992
12.409280604298411,1.465430781404403e+16,2.116881294396412e+16,2729792054296012.5,3762102447337199.0,11422554327.377808,30587622227.586708,729531620895.3315,21839086489370.21
12.75746621638438,1.4858614151965336e+16,2.1464590201375656e+16,2767850065972779.5,3814552647214651.5,11908895403.567484,31889959520.01621,760593112097.2662,22768944255858.56
13.112615540712067,1.506413786814974e+16,2.176215699865465e+16,2806134849841897.5,3867315376472920.5,12411836635.364962,33236749164.79902,792714817937.4104,23730540786360.016
13.474867851526309,1.5270907920712718e+16,2.206155613082652e+16,2844651800196619.5,3920398069335369.5,12931887439.154238,34629355291.46312,825929273713.6754,24724850065407.516
13.844365208556836,1.5478952942655428e+16,2.236282995443735e+16,2883406250768140.0,3973808076560903.5,13469572720.652237,36069183507.32633,860270003994.3921,25752875692707.742
14.221252512727972,1.5688301269359634e+16,2.2666020428132028e+16,2922403479847414.5,4027552672502623.5,14025433330.990536,37557682118.80605,895771551747.3221,26815651755163.76
14.605677562982532,1.5898980964317666e+16,2.2971169150712144e+16,2961648715078020.5,4081639061713222.5,14600026536.424278,39096343389.220695,932469508338.9941,27914243724951.695
14.997791114242183,1.6111019843239678e+16,2.327831739688073e+16,3001147137946900.5,4136074385133987.0,15193926502.041677,40686704834.081924,970400544428.2424,29049749384367.832
15.397746936527026,1.6324445496668928e+16,2.3587506150861884e+16,3040903887997111.0,4190865725900585.0,15807724789.860117,42330350554.91222,1009602441778.5997,30223299778183.152
15.805701875257567,1.6539285311222284e+16,2.3898776138066544e+16,3080924066784454.5,4246020114796034.5,16442030871.706244,44028912612.652016,1050114126014.9025,31436060194264.51
16.221815912762718,1.6755566489562902e+16,2.421216785495773e+16,3121212741597982.5,4301544535378132.0,17097472657.289557,45784072441.75135,1091975700350.2861,32689231173246.75
16.64625223101797,1.6973316069202426e+16,2.452772159725909e+16,3161774948962495.0,4357445928806460.0,17774697037.89103,47597562306.07719,1135228480310.4783,33984049548060.82
17.079177275638333,1.7192560940221642e+16,2.484547748663364e+16,3202615697939477.5,4413731198391643.5,18474370446.10157,49471166797.79818,1179915029483.148,35321789514149.016
17.5207608211511,1.7413327861990052e+16,2.5165475495950684e+16,3243739973241626.0,4470407213887675.5,19197179432.05618,51406724380.44428,1226079196320.8677,36703763731221.97
17.97117603757412,1.763564347895838e+16,2.548775547324898e+16,3285152738174666.5,4527480815546224.0,19943831256.625324,53406128977.37297,1273766152027.0217,38131324457436.72
18.430599558325603,1.7859534335591332e+16,2.58123571644931e+16,3326858937419018.5,4584958817950207.0,20715054502.03473,55471331606.90681,1323022429554.8855,39605864716898.484
18.899211549492115,1.8085026890502772e+16,2.613932023521521e+16,3368863499662876.5,4642848013642641.0,21511599700.401688,57604342065.44832,1373895963750.983,41128819501420.85
19.37719578048196,1.8312147529849556e+16,2.6468684291122696e+16,3411171340097207.5,4701155176565138.0,22334239980.687374,59807230659.911255,1426436132674.6807,42701667007496.41
19.864739696091597,1.8540922580036044e+16,2.6800488897749184e+16,3453787362782330.0,4759887065319460.0,23183771734.58002,62082129990.84213,1480693800126.7666,44325929909463.76
20.36203449001343,1.877137831977719e+16,2.7134773599217892e+16,3496716462895005.5,4819050426264347.0,24061015301.83676,64431236787.653366,1536721359420.9565,46003176669881.45
20.869275179813698,1.900354099156354e+16,2.7471577936182732e+16,3539963528864193.0,4878651996458953.0,24966815675.628677,66856813797.41909,1594572778432.8523,47735022888148.195
21.38666068340997,1.9237436812569464e+16,2.7810941463004896e+16,3583533444402918.0,4938698506463132.0,25902043228.446888,69361191728.72949,1654303645962.1472,49523132688435.42
21.91439389707817,1.947309198504024e+16,2.8152903764220732e+16,3627431090443254.5,4999196683004091.0,26867594459.142647,71946771252.14087,1715971219444.6267,51369220148030.805
22.452681775019734,1.971053270619368e+16,2.849750447035199e+16,3671661346980782.0,5060153251518437.0,27864392761.691883,74616025058.7985,1779634474051.6807,53275050767218.0
23.00173541052013,1.9949785177667336e+16,2.8844783273103296e+16,3716229094834341.5,5121574938577306.0,28893389216.28816,77371499978.85292,1845354153215.8523,55242442981850.87
23.561770118730532,2.0190875614539864e+16,2.9194779939992044e+16,3761139217326603.0,5183468474202596.0,29955563403.386963,80215819161.3336,1913192820622.2961,57273269719810.66
24.133005521105144,2.043383025395452e+16,2.954753432845045e+16,3806396601890410.0,5245840594080647.0,31051924241.33809,83151684317.1913,1983214913706.748,59369460002564.55
24.715665631527248,2.067867536336921e+16,2.9903086399435744e+16,3852006141605591.0,5308698041680296.0,32183510848.262672,86181878027.26021,2055486798701.9548,61533000593082.42
25.309978944157795,2.0925437248455788e+16,3.0261476230585188e+16,3897972736670419.0,5372047570280761.0,33351393428.846737,89309266116.94473,2130076827275.4954,63765937691393.62
25.91617852304095,2.117414226067077e+16,3.0622744028946144e+16,3944301295811920.0,5435895944915272.0,34556674186.7423,92536800099.479,2207055394803.1045,66070378679107.82
26.53450209350177,2.1424816804516576e+16,3.0986930143312756e+16,3990996737638458.0,5500249944235203.0,35800488263.284454,95867519689.65465,2286495000322.7407,68448493914252.586
27.165192135371807,2.1677487344511984e+16,3.135407507619579e+16,4038063991938182.5,5565116362299489.0,37084004703.25133,99304555389.9683,2368470308215.9253,70902518577820.3
27.808495978079243,2.193218041188892e+16,3.17242194954531e+16,4085508000926529.5,5630502010293921.0,38408427448.414764,102851131151.1858,2453058211663.868,73434754573449.2
28.464665897640828,2.2188922611030988e+16,3.209740424560367e+16,4133333720445556.5,5696413718183965.0,39774996359.64577,106510567109.36955,2540337897927.5005,76047572481705.52
29.133959215593645,2.2447740625668864e+16,3.247367035884895e+16,4181546121118016.0,5762858336305419.0,41184988268.36052,110286282401.48116,2630390915501.358,78743413570465.62
29.816638399905518,2.2708661224845816e+16,3.2853059065822428e+16,4230150189458644.5,5829842736895741.0,42639718058.1134,114181798061.70895,2723301243192.941,81524791862941.1
30.51297116790363,2.2971711268666724e+16,3.3235611806087732e+16,4279150928945042.0,5897373815570092.0,44140539777.163956,118200740000.73657,2819155361180.278,84394296264926.08
31.223230591261704,2.323691771384142e+16,3.3621370238402868e+16,4328553361050302.5,5965458492744315.0,45688847782.862434,122346842070.22472,2918042324101.821,87354592752886.34
31.947695203086937,2.350430761903421e+16,3.401037625076995e+16,4378362526239503.5,6034103715008394.0,47286077918.72774,126623949214.82681,3020053836234.1353,90408426624555.1
32.686649107148675,2.37739081500292e+16,3.4402671970285576e+16,4428583484931938.0,6103316456452455.0,48933708725.102806,131036020714.13239,3125284328814.371,93558624813731.56
33.44038208929165,2.4045746584721744e+16,3.479829977280743e+16,4479221318430829.5,6173103719948124.0,50633262684.30797,135587133516.97787,3233831039565.877,96808098271039.22
34.20918973107749,2.4319850317943308e+16,3.5197302292452996e+16,4530281129822233.0,6243472538387368.0,52386307501.22059,140281485670.63495,3345794094486.565,100159844412423.06
34.993373525699035,2.459624686613047e+16,3.5599722430942524e+16,4581768044844638.0,6314429975880946.0,54194457420.24892,145123399847.44656,3461276591961.5796,103616949637226.27
35.793240996213015,2.4874963871843076e+16,3.60056033668007e+16,4633687212730700.0,6385983128918422.0,56059374579.67551,150117326971.54462,3580384689262.829,107182591917724.44
36.60910581613728,2.5156029108140668e+16,3.6414988564428744e+16,4686043807022473.0,6458139127491686.0,57982770404.38526,155267849948.34152,3703227691499.983,110860043462040.48
37.44128793246003,2.5439470482823124e+16,3.6827921783057944e+16,4738843026361256.0,6530905136183575.0,59966407038.00444,160579687499.5712,3829918143088.56,114652673452414.62
38.29011369110923,2.5725316042541556e+16,3.724444708559792e+16,4792090095253506.0,6604288355223339.0,62012098815.51195,166057698106.70062,3960571921802.9976,118563950860849.53
39.15591596493141,2.601359397678575e+16,3.766460884738705e+16,4845790264813538.0,6678296021510190.0,64121713777.403824,171706884065.6184,4095308335483.499,122597447344195.78
40.03903428423004,2.6304332621753276e+16,3.808845176485733e+16,4899948813484213.0,6752935409606660.0,66297175226.52271,177532395655.56885,4234250221467.8125,126756840220796.9
40.93981496991464,2.659756046410513e+16,3.8516020864122984e+16,4954571047736659.0,6828213832702794.0,68540463328.68352,183539535425.3734,4377524048820.2466,131045915530860.19
41.85861126931294,2.6893306144613016e+16,3.894736150950045e+16,5009662302749554.0,6904138643552342.0,70853616758.26447,189733762600.0536,4525260023432.327,135468571182771.4
42.7957834946992,2.719159846170203e+16,3.938251941196954e+16,5065227943069215.0,6980717235382530.0,73238734389.94759,196120697611.04013,4677592196070.856,140028820187619.2
43.751699164593184,2.749246637489396e+16,3.9821540637583944e+16,5121273363250813.0,7057957042777671.0,75697977037.83018,202706126753.23715,4834658573451.583,144730793984250.7
