t(s),Total solute volume 1,Total retention volume 1,Total 1 volume 1,Total 2 volume 1,Total 3 volume 1,Total 4 volume 1,Total 5 volume 1,Total 6 volume 1
0.1,1388605447609674.5,1.2965503955258198e+16,3123970752525701.5,8452927755122823.0,0.0,0.0,0.0,-0.03849354864423057
0.202,1973504983033631.2,1.843449592872245e+16,4439837218770508.5,1.2013592626850172e+16,8332408782.009721,61238594767.55797,1488869148092.3079,6002659916497.342
0.30604000000000003,2442880818062131.5,2.2830576519625668e+16,5495803367271135.0,1.4870915704479354e+16,20836418010.52113,153494343529.63983,4019260014029.363,16783039037486.684
0.41216080000000005,2845778297724240.5,2.6610915069600376e+16,6402211284629962.0,1.7323545695022124e+16,36775816496.59924,271163854259.35873,7384177762280.35,31687674791003.805
0.5204040160000001,3205449907828320.5,2.999219462962318e+16,7211372849409421.0,1.951303674758088e+16,55788589598.98808,411556009199.79706,11481726805119.416,50386053400628.83
0.6308120963200001,3534636858238455.5,3.3093147152622732e+16,7951952321384179.0,2.1516952159391216e+16,77674544132.30722,573185644809.8522,16255636659026.854,72699316760902.17
0.7434283382464002,3841059980392558.0,3.5985730234337264e+16,8641319457984877.0,2.338229284717288e+16,102316651469.25168,755184991639.1982,21672540187386.3,98527906956435.1
0.8582969050113283,4129772112677364.0,3.8717049931761736e+16,9290841757315418.0,2.513981807269066e+16,129646677243.40556,957047993344.6008,27712250736921.812,127819043670760.38
0.9754628431115548,4404279147772029.0,4.131980719019165e+16,9908406512514024.0,2.681086998154246e+16,159627943486.76083,1178502335050.9182,34362962006635.535,160550456077963.47
1.094972099973786,4667125672107320.0,4.381775426591349e+16,1.0499738341360522e+16,2.8410938737023796e+16,192245713835.28238,1419438139829.742,41618600477106.93,196721231091103.97
1.2168715419732616,4920225128580063.0,4.622877031523153e+16,1.1069141962203108e+16,2.9951672405359364e+16,227501388287.1434,1679864944823.122,49477239794636.62,236346212961227.78
1.3412089728127268,5165057902231768.0,4.856670630950529e+16,1.1619947832458738e+16,3.144208281001985e+16,265408783177.536,1959884143394.2808,57940091607741.695,279452380260640.72
1.4680331522689813,5402796373180512.0,5.084254951576954e+16,1.2154793483370506e+16,3.288930679456863e+16,305991636411.52997,2259670509695.8315,67010833208115.05,326076369295676.8
1.597393815314361,5634387251405140.0,5.306519004267518e+16,1.2675808750627746e+16,3.4299107436877412e+16,349281873950.551,2579459363733.9478,76695143162917.45,376262719364262.4
1.729341691620648,5860607722774943.0,5.524194347155452e+16,1.3184742087473084e+16,3.5676215838482076e+16,395318371053.651,2919537401123.9805,87000371314909.77,430062595737336.0
1.863928525453061,6082104891400320.0,5.737891793662914e+16,1.3683049299121086e+16,3.702457122994052e+16,444146047308.3391,3280235994636.974,97935298882572.14,487532835242734.1
2.001207095962122,6299424201814404.0,5.9481278599318664e+16,1.417195748482845e+16,3.834749399076601e+16,495815194031.90875,3661926216157.944,109509960887075.03,548735219612558.56
2.1412312378813647,6513030375942818.0,6.155344244320695e+16,1.4652512140298298e+16,3.96478131030797e+16,550380967849.3325,4065015088770.2925,121735512877407.73,613735914952135.9
2.284055862638992,6723323135719767.0,6.359922453795639e+16,1.5125612529225666e+16,4.0927961862874696e+16,607903005934.6299,4489942739335.605,134624129892375.0,682605034498608.9
2.4297369798917723,6930649211711557.0,6.5621949743576984e+16,1.5592038699383814e+16,4.219005098235743e+16,668445132185.2576,4937180224039.418,148188929373934.06,755416295394012.6
2.578331719489608,7135311653919512.0,6.762453931687966e+16,1.6052472429358344e+16,4.343592526932083e+16,732075132623.594,5407227866212.987,162443912211786.2,832246749070329.0
2.7298983538794,7337577148336831.0,6.960957897040294e+16,1.6507513688778274e+16,4.466720816656112e+16,798864584384.8671,5900613990656.332,177403917746495.3,913176570405198.1
2.884496320956988,7537681836046035.0,7.1579373008418024e+16,1.6957693729676654e+16,4.588533717552608e+16,868888726816.8383,6417893969532.86,193084589682216.88,998288894790667.1
3.0421862473761276,7735835991866316.0,7.353598786316411e+16,1.740348561215354e+16,4.709159233748819e+16,942226366135.4707,6959649516514.546,209502350643790.25,1087669695129616.4
3.2030299723236504,7932227823235471.0,7.54812874576148e+16,1.7845312750809896e+16,4.828711935915832e+16,1018959807164.0474,7526488181277.16,226674383668979.47,1181407692753668.5
3.3670905717701234,8127026582450315.0,7.741696219206138e+16,1.828355591642774e+16,4.947294855838026e+16,1099174807194.0277,8119043007627.339,244618619326868.03,1279594297661369.2
3.5344323832055258,8320385137237155.0,7.934455290352314e+16,1.871855901904247e+16,5.065001051241842e+16,1182960548117.5903,8737972326770.043,263353727445992.6,1382323574504232.2
3.7051210308696363,8512442109801126.0,8.126547082281624e+16,1.915063392021231e+16,5.181914907936938e+16,1270409623810.7869,9383959663359.66,282899112652743.6,1489692231493519.5
3.879223451487029,8703323668983370.0,8.318101431651774e+16,1.958006446487589e+16,5.298113230787306e+16,1361618040372.471,10057713736611.498,303274913083434.44,1601799629925001.2
4.0568079205167695,8893145041220974.0,8.509238302476674e+16,2.000710988059391e+16,5.413666163504212e+16,1456685227302.6929,10759968542291.498,324502001757300.75,1718747812382856.5
4.237944078927105,9082011791796560.0,8.700068987352957e+16,2.043200766000629e+16,5.528637968603409e+16,1555714058074.0042,11491483504137.225,346601990193123.94,1840641547937360.2
4.422702960505647,9270020917090986.0,8.890697133960637e+16,2.085497601809816e+16,5.643087692310898e+16,1658810878837.845,12253043685400.092,369597233926778.44,1967588392817168.2
4.61115701971576,9457261780303912.0,9.081219626979333e+16,2.127621599731218e+16,5.757069734180067e+16,1766085544236.2754,13045460052885.832,393510839646153.7,2099698765133253.5
4.803380160110075,9643816916733464.0,9.271727349620816e+16,2.169591327920484e+16,5.870634337303331e+16,1877651459471.137,13869569787216.195,418366673707614.94,2237086032282307.0
4.9994477633122765,9829762729740588.0,9.462305844347274e+16,2.21142397501733e+16,5.9838280119781416e+16,1993625627929.417,14726236634120.434,444189371837265.56,2379866609678103.5
5.199436718578522,1.0015170094621812e+16,9.653035888705782e+16,2.2531354860002028e+16,6.096693903312654e+16,2114128703783.0046,15616351292449.047,471004349852990.0,2528160069458222.5
5.403425452950093,1.0200104884528094e+16,9.843993999329045e+16,2.2947406805034324e+16,6.209272111376991e+16,2239285049079.399,16540831835330.877,498837815271067.44,2682089257802643.5
5.611493962009095,1.038462843010519e+16,1.0035252874855118e+17,2.3362533562235884e+16,6.321599971007725e+16,2369222794921.591,17500624161500.059,527716779685214.3,2841780419491239.5
5.823723841249277,1.0568797922555566e+16,1.0226881786676406e+17,2.3776863795972384e+16,6.433712297170359e+16,2504073906403.9136,18496702474326.625,557669071827064.9,3007363328324743.5
6.040198318074262,1.075266676822453e+16,1.0418946924939536e+17,2.4190517655729896e+16,6.545641600812273e+16,2643974251028.437,19530069786514.41,588723351235813.4,3178971422044920.0
6.261002284435747,1.0936284901513168e+16,1.061151170600892e+17,2.4603607480082264e+16,6.657418279347284e+16,2789063670375.6924,20601758448794.133,620909122481505.4,3356741940420217.5
6.486222330124463,1.1119699061856268e+16,1.0804637046619328e+17,2.5016238419814652e+16,6.769070785264822e+16,2939486054845.347,21712830701250.03,654256749901314.6,3540816065216681.0
6.715946776726952,1.1302953039624618e+16,1.0998381609132034e+17,2.542850899113545e+16,6.880625775822004e+16,3095389421317.9893,22864379246183.613,688797472821400.4,3731339060851346.0
6.950265712261491,1.148608789508295e+16,1.119280202163987e+17,2.584051156827099e+16,6.992108246333305e+16,3256925993619.4526,24057527841641.355,724563421248413.0,3928460414628051.5
7.18927102650672,1.1669142153925154e+16,1.1387953076111696e+17,2.625233282336545e+16,7.103541649201887e+16,3424252285694.4297,25293431914922.51,761587632024627.0,4132333975582236.0
7.433056447036854,1.1852151982397614e+16,1.1583887907304912e+17,2.66640541204599e+16,7.21494800052512e+16,3597529187417.133,26573279195539.02,799904065448786.2,4343118091108648.0
7.681717575977592,1.2035151344588508e+16,1.1780658154787787e+17,2.707575186934942e+16,7.326347975843837e+16,3776922052983.8726,27898290367225.996,839547622371256.6,4560975740710072.0
7.935351927497144,1.2218172144094192e+16,1.197831411008877e+17,2.748749784429331e+16,7.437760996381174e+16,3962600791845.8516,29269719738701.824,880554161776760.1,4786074666381173.0
8.194058966047088,1.2401244351960856e+16,1.2176904850716347e+17,2.789935947184833e+16,7.549205306926502e+16,4154739962150.7725,30688855932952.477,922960518871106.1,5018587499322979.0
8.45794014536803,1.2584396122531674e+16,1.2376478362560958e+17,2.8311400091492616e+16,7.660698046357043e+16,4353518866669.088,32157022594868.227,966804523689838.0,5258691882863550.0
8.72709894827539,1.2767653898600672e+16,1.257708165199398e+17,2.872367919219279e+16,7.772255311649792e+16,4559121651185.629,33675579117096.5,1012125020246829.8,5506570591633286.0
9.0016409272409,1.2951042507077718e+16,1.2778760848810642e+17,2.913625262762365e+16,7.883892216117384e+16,4771737405339.823,35245921383993.86,1058961886239731.9,5762411647202169.0
9.281673745785717,1.3134585246200804e+16,1.2981561301020691e+17,2.9549172812371616e+16,7.995622942498211e+16,4991560265898.676,36869482533563.81,1107356053327049.9,6026408430525839.0
9.567307220701432,1.3318303965187752e+16,1.3185527662367186e+17,2.9962488901129188e+16,8.107460791444293e+16,5218789522446.04,38547733737265.45,1157349527988764.8,6298759791663599.0
9.85865336511546,1.3502219137096976e+16,1.3390703973348206e+17,3.0376246952611384e+16,8.219418225875013e+16,5453629725470.296,40282184997562.55,1208985412979023.0,6579670157321448.0
10.155826432417769,1.3686349925562656e+16,1.359713373642457e+17,3.079049007969131e+16,8.331506911602085e+16,5696290796830.194,42074385963068.17,1262307929375878.5,6869349636835072.0
10.458942961066125,1.387071424598171e+16,1.3804859986018117e+17,3.1205258587054276e+16,8.443737754576992e+16,5946988142576.411,43925926761120.74,1317362439229477.0,7168014127242033.0
10.768121820287448,1.4055328821656236e+16,1.4013925353835854e+17,3.162059009750247e+16,8.556120935067664e+16,6205942768103.559,45838438847606.24,1374195468806791.0,7475885418100607.0
11.083484256693197,1.4240209235332864e+16,1.4224372129996264e+17,3.2036519667904436e+16,8.668665939033043e+16,6473381395605.203,47813595873826.29,1432854732428064.5,7793191296697441.0
11.405153941827061,1.4425369976529e+16,1.4436242320381613e+17,3.2453079895666028e+16,8.781381586932862e+16,6749536583802.518,49853114570193.46,1493389156887765.5,8120165654250794.0
11.733257020663602,1.4610824484992652e+16,1.4649577700594806e+17,3.2870301016503096e+16,8.894276060183888e+16,7034646849915.277,51958755646526.3,1555848906450990.2,8457048593666034.0
12.067922161076874,1.4796585190606864e+16,1.4864419866859526e+17,3.3288210994215424e+16,9.007356925451706e+16,7328956793843.062,54132324708703.89,1620285408415101.8,8804086539338315.0
12.409280604298411,1.4982663550019328e+16,1.5080810284167488e+17,3.3706835603093224e+16,9.12063115694908e+16,7632717224523.486,56375673191437.25,1686751379225690.2,9161532349429900.0
12.75746621638438,1.5169070080252732e+16,1.5298790331945715e+17,3.4126198503531292e+16,9.234105156896251e+16,7946185288434.04,58690699306910.04,1755300851135883.8,9529645430979334.0
13.112615540712067,1.5355814389529158e+16,1.5518401347489744e+17,3.454632131137533e+16,9.34778477428541e+16,8269624600203.833,61079349009040.65,1825989199398241.0,9908691858131376.0
13.474867851526309,1.554290520552368e+16,1.5739684667384883e+17,3.496722366148485e+16,9.461675322080027e+16,8603305375301.532,63543616973117.07,1898873169979145.5,1.029894449371251e+16
13.844365208556836,1.5730350401245074e+16,1.5962681667116115e+17,3.538892326595754e+16,9.575781592969878e+16,8947504564765.93,66085547590557.836,1974010907786372.2,1.0700683114318036e+16
14.221252512727972,1.5918157018727162e+16,1.6187433799048758e+17,3.5811435967428464e+16,9.690107873793216e+16,9302505991945.39,68707235978551.8,2051461985401504.0,1.111419453902787e+16
14.605677562982532,1.6106331290700836e+16,1.6413982628945363e+17,3.623477578782613e+16,9.804657958729654e+16,9668600491212.533,71410829004328.17,2131287432309761.8,1.1539772761824808e+16
14.997791114242183,1.6294878660404184e+16,1.664236987116899e+17,3.665895497293959e+16,9.919435161359658e+16,10046086048619.896,74198526323808.33,2213549764620825.2,1.1977719087756336e+16
15.397746936527026,1.648380379967701e+16,1.6872637422710774e+17,3.708398403312656e+16,1.003444232567965e+17,10435267944462.11,77072581434385.28,2298313015274996.5,1.2428342272853888e+16
15.805701875257567,1.6673110625475022e+16,1.7104827396166694e+17,3.750987178046555e+16,1.0149681836155154e+17,10836458897709.027,80035302741571.55,2385642764729772.0,1.2891958667805834e+16
16.221815912762718,1.6862802314929742e+16,1.733898215177913e+17,3.793662536263652e+16,1.0265155626888469e+17,11249979212273.443,83089054639249.44,2475606172122478.0,1.3368892365366224e+16
16.64625223101797,1.7052881319069744e+16,1.7575144328648413e+17,3.836425029379018e+16,1.0380865189971725e+17,11676156925075.443,86236258603248.05,2568272006905072.0,1.3859475351473448e+16
17.079177275638333,1.7243349375311756e+16,1.7813356875211898e+17,3.879275048264918e+16,1.0496811583090773e+17,12115327955864.182,89479394297958.0,2663710680947383.5,1.4364047660049078e+16
17.5207608211511,1.7434207518820726e+16,1.805366307907993e+17,3.922212825806565e+16,1.0612995436440731e+17,12567836258755.904,92821000695686.36,2761994281105329.0,1.488295753144579e+16
17.97117603757412,1.7625456092831702e+16,1.8296106596311715e+17,3.9652384392242024e+16,1.0729416959009576e+17,13034033975445.107,96263677208434.72,2863196602250614.0,1.5416561574513238e+16
18.430599558325603,1.7817094758019058e+16,1.8540731480207933e+17,4.008351812180985e+16,1.0846075944281675e+17,13514281590043.645,99810084831773.3,2967393180758384.5,1.5965224932253448e+16
18.899211549492115,1.8009122500992658e+16,1.8787582209691082e+17,4.0515527166943256e+16,1.0962971775409918e+17,14008948085500.31,103462947300461.4,3074661328449129.5,1.652932145104076e+16
19.37719578048196,1.820153764199465e+16,1.9036703717340406e+17,4.09484077486752e+16,1.1080103429901242e+17,14518411101551.209,107225052255453.47,3185080166980915.0,1.7109233853383914e+16
19.864739696091597,1.839433784186611e+16,1.9288141417142733e+17,4.138215460457008e+16,1.1197469483857579e+17,15043057094148.24,111099252421907.11,3298730662687895.0,1.7705353914211324e+16
20.36203449001343,1.858752010834703e+16,1.9541941232017613e+17,4.1816761002897496e+16,1.1315068115811234e+17,15583281496311.414,115088466797792.48,3415695661860537.5,1.8318082640664764e+16
20.869275179813698,1.8781080801770464e+16,1.979814962117088e+17,4.225221875544196e+16,1.1432897110191027e+17,16139488880346.947,119195681852685.22,3536059926462811.0,1.8947830455390236e+16
21.38666068340997,1.8975015640206188e+16,2.0056813607327402e+17,4.2688518229075144e+16,1.1550953860453722e+17,16712093121371.605,123423952736301.19,3659910170281270.0,1.9595017383316708e+16
21.91439389707817,1.916931970410714e+16,2.0317980803891744e+17,4.312564835620915e+16,1.1669235371912645e+17,17301517562080.445,127776404496318.84,3787335095500482.5,2.0260073241915788e+16
22.452681775019734,1.936398744050846e+16,2.058169944208123e+17,4.356359664424288e+16,1.1787738264293834e+17,17908195178692.453,132256233305007.02,3918425429698929.0,2.094343783494011e+16
23.00173541052013,1.9559012666825604e+16,2.08480183980755e+17,4.4002349184107016e+16,1.1906458774048219e+17,18532568748006.203,136866707694165.1,4053273963259041.5,2.1645561149639036e+16
23.561770118730532,1.9754388574296372e+16,2.1116987220222333e+17,4.4441890658007704e+16,1.2025392756447128e+17,19175091015495.125,141611169797855.34,4191975587184840.0,2.2366903557449732e+16
24.133005521105144,1.9950107731109336e+16,2.1388656156339408e+17,4.48822043464646e+16,1.2144535687486664e+17,19836224864368.61,146493036602395.3,4334627331320029.5,2.310793601816665e+16
24.715665631527248,2.014616208525818e+16,2.1663076181148624e+17,4.532327213473241e+16,1.2263882665625454e+17,20516443485524.01,151515801203052.9,4481328402958954.0,2.3869140287593292e+16
25.309978944157795,2.034254296716133e+16,2.1940299023878586e+17,4.576507451869426e+16,1.2383428413379288e+17,21216230548310.285,156683034066871.25,4632180225842601.0,2.465100912867961e+16
25.91617852304095,2.0539241092082948e+16,2.2220377196069434e+17,4.62075906103083e+16,1.2503167278795064e+17,21936080372023.516,161998384301036.72,4787286479531500.0,2.545404652614811e+16
26.53450209350177,2.0736246562391416e+16,2.2503364019612422e+17,4.6650798142689096e+16,1.2623093236825691e+17,22676498098050.934,167465580926178.2,4946753139146531.0,2.6278767904616016e+16
27.165192135371807,2.093354886968889e+16,2.2789313655055782e+17,4.709467347489783e+16,1.2743199890626427e+17,23437999862577.93,173088434153974.28,5110688515468622.0,2.7125700350221656e+16
27.808495978079243,2.1131136896845076e+16,2.3078281130207843e+17,4.753919159651831e+16,1.2863480472793075e+17,24221112969771.375,178870836668429.7,5279203295387752.0,2.799538283575824e+16
28.464665897640828,2.132899891996765e+16,2.3370322369066058e+17,4.798432613208984e+16,1.2983927846561485e+17,25026376065349.93,184816764910169.97,5452410582691816.0,2.888836644932079e+16
29.133959215593645,2.1527122610339748e+16,2.3665494221101146e+17,4.8430049345465816e+16,1.3104534506987014e+17,25854339310450.043,190930280363082.62,5630425939184340.0,2.9805214626477716e+16
29.816638399905518,2.1725495036354892e+16,2.3963854490923974e+17,4.887633214416689e+16,1.3225292582122483e+17,26705564555694.992,197215530842626.34,5813367426120688.0,3.07465033859741e+16
30.51297116790363,2.1924102665479064e+16,2.4265461968362214e+17,4.932314408379523e+16,1.3346193834212632e+17,27580625515373.586,203676751785124.25,6001355645952044.0,3.1712821568969068e+16
31.223230591261704,2.2122931366269144e+16,2.4570376458973258e+17,4.977045337257543e+16,1.346722966092284e+17,28480107941633.707,210318267537343.3,6194513784365885.0,3.270477108181473e+16
31.947695203086937,2.232196641047513e+16,2.4878658815019334e+17,5.0218226876083736e+16,1.3588391096618859e+17,29404609798593.402,217144492645649.44,6392967652610550.0,3.3722967142391252e+16
32.686649107148675,2.252119247525407e+16,2.5190370966930333e+17,5.066643012222891e+16,1.3709668813714584e+17,30354741436273.844,224159933144031.53,6596845730092425.0,3.476803853000191e+16
33.44038208929165,2.2720593645523916e+16,2.5505575955278784e+17,5.1115027306548056e+16,1.3831053124104987e+17,31331125764257.887,231369187840293.0,6806279207234313.0,3.5840627838826964e+16
34.20918973107749,2.2920153416483904e+16,2.582433796329196e+17,5.156398129787608e+16,1.395253398070032e+17,32334398424977.21,238776949599691.8,7021402028581807.0,3.694139173494988e+16
34.993373525699035,2.3119854696326576e+16,2.614672234992521e+17,5.20132536444476e+16,1.4074100979077126e+17,33365207966529.984,246388006625315.2,7242350936144547.0,3.8071001216970184e+16
35.793240996213015,2.3319679809169184e+16,2.6472795683519843e+17,5.246280458049178e+16,1.419574335926269e+17,34424216014935.28,254207243734494.53,7469265512960409.0,3.923014188020082e+16
36.60910581613728,2.3519610498230876e+16,2.6802625776069693e+17,5.291259303337952e+16,1.4317450007669094e+17,35512097445730.42,262239643630572.75,7702288226870728.0,4.041951418444858e+16
37.44128793246003,2.3719627929279852e+16,2.7136281718118973e+17,5.336257663137949e+16,1.4439209459191715e+17,36629540554817.36,270490288169334.66,7941564474492044.0,4.163983372539716e+16
