t(s),Total solute volume 1,Total retention volume 1,Total 1 volume 1,Total 2 volume 1,Total 3 volume 1,Total 4 volume 1,Total 5 volume 1,Total 6 volume 1
0.1,878184692305091.0,1002349173156223.1,60489917771387.09,63674563079745.664,0.0,0.0,0.0,0.0
0.202,1322311537228439.8,1510977511827280.5,91081656258519.14,95876881664590.53,3582340134.421375,6337685438.26382,81221778365.24545,1616294871791.192
0.30604000000000003,1659874382656362.2,1898889582064998.0,114333198886580.6,120352560924283.2,9083403258.87199,16069900069.461973,205947150224.36267,4098339144218.203
0.41216080000000005,1944822181136206.8,2227481227968578.5,133960583744579.14,141013279389193.28,16123853473.304354,28525557017.862354,365575511526.71216,7274958776580.919
0.5204040160000001,2197354545398331.8,2519727094709674.5,151355172958512.62,159323650998752.75,24533871821.09481,43404234293.935524,556256725572.1838,11069530522389.182
0.6308120963200001,2427536453028998.5,2787071202298053.0,167210248561413.84,176013457385571.06,34221099694.947155,60542548160.71315,775896914198.203,15440382760010.959
0.7434283382464002,2641217688834676.5,3036164670682305.0,181928747436661.03,191506849071300.47,45131506233.347244,79844922277.21019,1023271204367.8219,20363137706784.074
0.8582969050113283,2842145024692550.0,3271268866833949.0,195768749604666.53,206075493355926.06,57233299258.15331,101255124037.62395,1297658943525.0046,25823451813986.117
0.9754628431115548,3032884986439421.5,3495304857400735.5,208907038990875.53,219905481404510.56,70508990525.67877,124742226996.90707,1598663797194.5635,31813435551213.504
1.094972099973786,3215284505037860.0,3710377092974211.0,221470833369935.56,233130728695133.22,84950995618.05168,150292826549.23828,1926113986988.597,38329668062121.76
1.2168715419732616,3390723853938940.5,3918060845090354.0,233555206851490.84,245851314755813.5,100558985028.99431,177906353702.66043,2280002233124.2417,45372001972252.945
1.3412089728127268,3560265858128731.5,4119571703971064.0,245233367493819.84,258144301869294.7,117338189753.46422,207592077497.75616,2660447338210.3486,52942798873756.59
1.4680331522689813,3724748989259266.0,4315871295007062.5,256563069755436.97,270070485124474.5,135298265935.4455,239367096474.5779,3067668446440.0073,61046417059029.51
1.597393815314361,3884848129879504.5,4507736258264751.0,267590799973811.3,281678798250306.2,154452505925.72946,273254942985.4061,3501967156866.1475,69688855555353.53
1.729341691620648,4041115734286837.0,4695804959997626.0,278354611550892.38,293009298066878.75,174817273951.8345,309284584877.1833,3963714729269.4966,78877499504925.48
1.863928525453061,4194010590532279.5,4880610124332616.0,288886106098247.6,304095249932984.6,196411592981.05698,347489694656.0412,4453342718011.411,88620933763463.16
2.001207095962122,4343918456627481.0,5062602240330482.0,299211854872071.1,314964624016185.94,219256836609.13852,387908104457.7956,4971335987130.54,98928803886548.9
2.1412312378813647,4491167207300043.0,5242166739174842.0,309354442091286.25,325641193539057.2,243376495891.73315,430581393604.2032,5518227424627.034,109811710930343.84
2.284055862638992,4636038173775403.0,5419636852218487.0,319333246028909.06,336145356993086.5,268796000911.9375,475554572996.85016,6094593897794.885,121281130949393.47
2.4297369798917723,4778774782256074.0,5595303405244216.0,329165034035962.5,346494764489142.3,295542583149.81866,522875841697.7067,6701053133682.582,133349352904507.34
2.578331719489608,4919589236599227.0,5769422395160049.0,338864422848545.06,356704802298574.3,323645168822.49835,572596398303.4595,7338261301779.018,146029430544782.44
2.7298983538794,5058667759372981.0,5942220932633951.0,348444239595108.44,366788972866638.0,353134296116.555,624770294591.4515,8006911138444.279,159335145070086.2
2.884496320956988,5196174753152614.0,6113901961219415.0,357915808429179.5,376759196535728.44,384042051124.4114,679454322258.6375,8707730495454.647,173280976233066.1
3.0421862473761276,5332256141365621.0,6284648047101274.0,367289180648874.8,386626053780119.75,416402018620.2951,736707925917.0865,9441481225047.592,187882080137065.62
3.2030299723236504,5467042077554829.0,6454624453643670.0,376573321312670.75,396398981646596.06,450249244755.5928,796593137179.9961,10208958335261.072,203154272412394.97
3.3670905717701234,5600649162668843.0,6623981659022665.0,385776261967766.4,406086434523589.2,485620209437.9609,859174525883.371,11010989364881.775,219114015762260.84
3.5344323832055258,5733182274971080.0,6792857435496600.0,394905226695377.44,415696016822449.6,522552806662.23083,924519165379.4221,11848433938736.797,235778411096905.5
3.7051210308696363,5864736091891713.0,6961378580208507.0,403966736936873.06,425234593322414.4,561086331436.6847,992696609502.2269,12722183472577.748,253165191643973.5
3.879223451487029,5995396364666018.0,7129662366454305.0,412966699291652.94,434708381590837.94,601261472231.7958,1063778879307.7643,13633161003234.71,271292719551022.34
4.0568079205167695,6125240966610435.0,7297817770169219.0,421910477724709.8,444123027996440.56,643120305428.8529,1137840454308.812,14582321307625.441,290180015770267.2
4.237944078927105,6254340910416286.0,7465946506538257.0,430802963631900.25,453483681446633.8,686706307023.5479,1214958289492.0964,15570650198923.36,309846636247994.4
4.422702960505647,6382760965587185.0,7634143923887595.0,439648618379343.75,462795038191796.8,732064341282.0017,1295211801040.2773,16599165722391.186,330312859864571.56
4.61115701971576,6510560432477777.0,7802499766449052.0,448451526613034.44,472061397924504.06,779240678740.1528,1378682894520.7986,17668917600387.438,351599568260089.9
4.803380160110075,6637793689457574.0,7971098834668849.0,457215433949507.7,481286703458803.25,828283003627.2334,1465455979084.1035,18780987642860.23,373728281177411.9
4.9994477633122765,6764510689994640.0,8140021558461025.0,465943781215287.44,490474576772286.8,879240426187.063,1555617989391.9612,19936490028493.473,396721162034746.75
5.199436718578522,6890757394748922.0,8309344497239604.0,474639734209746.94,499628350335889.94,932163497010.0364,1649258411108.9692,21136571631523.188,420601024405415.06
5.403425452950093,7016576148683233.0,8479140778050089.0,483306209680750.1,508751094457090.0,987104223157.6837,1746469309571.763,22382412389283.34,445391339306999.0
5.611493962009095,7142006011433721.0,8649480481119063.0,491945898080773.0,517845641234082.9,1044116085895.8586,1847345361310.6426,23675225706314.438,471116243216966.0
5.823723841249277,7267083047764943.0,8820430980538323.0,500561283573648.6,526914605615827.0,1103254059880.5847,1951983888148.0503,25016258891502.336,497800546744370.7
6.040198318074262,7391840583791956.0,8992057246505434.0,509154661683290.9,535960403979937.1,1164574633663.5957,2060484893639.0098,26406793625236.895,525469743897706.94
6.261002284435747,7516309433723856.0,9164422114493574.0,517728154911944.5,544985270573189.2,1228135831403.6052,2172951101652.1929,27848146454012.094,554150021897508.7
6.486222330124463,7640518101126061.0,9337586525866134.0,526283726603252.06,553991272104451.6,1293997235685.3318,2289487996918.4946,29341669310247.816,583868271489505.5
6.715946776726952,7764492958077140.0,9511609743748880.0,534823193282692.1,562980320734810.8,1362220011361.2634,2410203867397.365,30888750055414.625,614652097720049.8
6.950265712261491,7888258405083442.0,9686549547392592.0,543348235672598.25,571954185672508.4,1432866930342.5266,2535209848330.559,32490813044792.598,646529831140568.0
7.18927102650672,8011837014190017.0,9862462407778800.0,551860408549735.3,580914503549489.6,1506002397274.2554,2664619967869.8423,34149319712408.797,679530539411989.5
7.433056447036854,8135249657372608.0,1.0039403646821058e+16,560361149589014.44,589862787730722.8,1581692476039.0125,2798551194178.7173,35865769174874.38,713684039283645.6
7.681717575977592,8258515621999974.0,1.0217427582180788e+16,568851787316616.4,598800436686036.9,1660004917038.2559,2937123483920.4873,37641698852996.82,749020908924193.2
7.935351927497144,8381652714907504.0,1.0396587659434344e+16,577333548278639.8,607728741536170.9,1741009185207.715,3080459832054.7456,39478685110170.61,785572500584610.0
8.194058966047088,8504677356413424.0,1.057693657309395e+16,585807563517012.2,616648892869639.8,1824776488727.286,3228686322873.145,41378343906658.55,823370953575598.9
8.45794014536803,8627604665432909.0,1.0758526377782244e+16,594274874432187.6,625561986914073.9,1911379808390.2395,3381932182212.578,43342331468973.35,862449207543503.2
8.72709894827539,8750448536693543.0,1.0941408590692854e+16,602736438101804.8,634469031134906.5,2000893927600.161,3540329830790.343,45372344973648.234,902841016030572.5
9.0016409272409,8873221710928890.0,1.1125634286322476e+16,611193132115666.9,643370949324894.1,2093395462967.0315,3704014938611.2666,47470123244756.3,944580960306686.8
9.281673745785717,8995935838816708.0,1.131125418433805e+16,619645758979834.8,652268586240076.1,2188962895476.6572,3873126480401.583,49637447464599.375,987704463460983.4
9.567307220701432,9118601539334158.0,1.149831873133531e+16,628095050136189.1,661162711830953.1,2287676602209.8125,4047806792028.3115,51876141897039.33,1032247804742739.9
9.85865336511546,9241228453122542.0,1.1686878177153936e+16,636541669638210.8,670054025111799.0,2389618888589.6772,4228201627866.814,54188074622992.23,1078248134141937.6
10.155826432417769,9363825291383138.0,1.18769826463365e+16,644986217518961.1,678943157705947.9,2494874021137.803,4414460219081.963,56575158287644.17,1125743487200586.5
10.458942961066125,9486399880766436.0,1.2068682205249308e+16,653429232883087.1,687830677100584.8,2603528260720.3643,4606735332791.632,59039350858987.836,1174772800046713.2
10.768121820287448,9608959204664038.0,1.226202692532491e+16,661871196751029.5,696717089640702.2,2715669896268.0728,4805183332083.111,61582656397304.27,1225375924643484.0
11.083484256693197,9731509480672978.0,1.2457066941412784e+16,670312537393918.8,705602846142593.2,2831389290267.5684,5009964255362.132,64207125705301.46,1277593597952370.2
11.405153941827061,9854056037697056.0,1.2653852512837066e+16,678753621871822.9,714488332995707.9,2950778868333.9375,5221241804308.278,66914857636172.96,1331467641963664.0
11.733257020663602,9976603586274984.0,1.285243407272541e+16,687194774648728.2,723373891743967.6,3073933221554.9907,5439183516372.473,69707999121060.34,1387040704198747.8
12.067922161076874,1.0099156089662332e+16,1.3052862280994612e+16,695636268716197.5,732259809751275.2,3200949097267.117,5663960754844.614,72588746491616.33,1444356456521060.2
12.409280604298411,1.0221716831810118e+16,1.3255188073498096e+16,704078330274850.5,741146325127169.9,3331925446068.942,5895748790992.149,75559346172255.97,1503459565876634.2
12.75746621638438,1.034428844348548e+16,1.34594627091793e+16,712521140533599.2,750033628620769.9,3466963458092.236,6134726868695.429,78622095508926.98,1564395710703721.0
13.112615540712067,1.046687292666217e+16,1.3665737815436342e+16,720964837389669.8,758921865389254.2,3606166599658.299,6381078269785.294,81779343606900.58,1627211597518898.0
13.474867851526309,1.0589471677349622e+16,1.3874065431886522e+16,729409517001076.4,767811136653132.4,3749640650310.517,6634990380067.292,85033492177378.36,1691954977674896.2
13.844365208556836,1.0712085507014074e+16,1.4084498052700918e+16,737855235262126.9,776701501249408.0,3897493740214.463,6896654756018.172,88386996392735.02,1758674664286348.2
14.221252512727972,1.0834714662729742e+16,1.4297088667664142e+16,746302009191454.0,785592977092714.4,4049836387917.567,7166267192140.936,91842365750222.97,1827420549319957.5
14.605677562982532,1.0957358846186946e+16,1.4511890802099032e+16,754749818241301.1,794485542553509.2,4206781538461.1143,7444027788967.39,95402164943993.9,1898243620845858.5
14.997791114242183,1.1080017231670456e+16,1.4728958555784216e+16,763198605535883.2,803379137761642.5,4368444601838.1006,7730141021696.808,99069014745296.97,1971195980447404.0
15.397746936527026,1.1202688483112782e+16,1.4948346640980344e+16,771648279046023.5,812273665842836.5,4534943491790.904,8024815809461.822,102845592890737.6,2046330860786701.2
15.805701875257567,1.1325370770316812e+16,1.5170110419670762e+16,780098712706593.4,821168994094942.8,4706398664943.854,8328265585213.048,106734634978488.92,2123702643323745.8
16.221815912762718,1.1448061784434662e+16,1.539430594011366e+16,788549747482685.4,830064955110264.5,4882933160265.945,8640708366215.973,110738935372375.9,2203366876187211.0
16.64625223101797,1.1570758752781186e+16,1.5620989972793828e+16,797001192389991.1,838961347849644.8,5064672638860.113,8962366825154.227,114861348113754.6,2285380292195276.5
17.079177275638333,1.1693458453054876e+16,1.5850220045855146e+16,805452825474352.2,847857938673587.8,5251745424076.122,9293468361835.277,119104787841141.39,2369800827025278.0
17.5207608211511,1.1816157227032454e+16,1.6082054480088934e+16,813904394755023.2,856754462335185.2,5444282541944.659,9634245175495.74,123472230717551.62,2456687637531283.5
17.97117603757412,1.193885099379646e+16,1.6316552423545702e+16,822355619135835.9,865650622939254.1,5642417761931.313,9984934337704.91,127966715365536.88,2546101120208987.0
18.430599558325603,1.206153526255336e+16,1.6553773885834784e+16,830806189288082.6,874546094871689.8,5846287638009.683,10345777865866.775,132591343809918.97,2638102929807854.0
18.899211549492115,1.218420514509106e+16,1.6793779772168816e+16,839255768508618.8,883440523702768.0,6056031550054.108,10717022797322.31,137349282428250.05,2732755998090730.5
19.37719578048196,1.2306855367924046e+16,1.7036631917208196e+16,847703993556427.4,892333527067719.5,6271791745552.744,11098921264055.03,142243762909037.34,2830124552741351.0
19.864739696091597,1.242948028416792e+16,1.7282393118754718e+16,856150475470535.6,901224695527738.1,6493713381643.32,11491730568005.195,147278083217799.25,2930274136421094.5
20.36203449001343,1.2552073885183294e+16,1.7531127171341278e+16,864594800372056.4,910113593414235.4,6721944567474.394,11895713256999.303,152455608571041.4,3033271625976190.5
20.869275179813698,1.2674629812024428e+16,1.778289889976004e+16,873036530252782.9,918999759658952.9,6956636406895.925,12311137201302.994,157779772418262.7,3139185251797404.0
21.38666068340997,1.2797141366725906e+16,1.8037774192569788e+16,881475203752614.1,927882708612315.4,7197943041484.366,12738275670808.096,163254077432122.34,3248084617334550.5
21.91439389707817,1.2919601523457096e+16,1.829582003561953e+16,889910336927883.8,936761930852218.2,7446021693907.88,13177407412865.807,168882096506925.47,3360040718768631.5
22.452681775019734,1.3042002939571902e+16,1.855710454562263e+16,898341424012487.0,945636893985211.5,7701032711638.979,13628816730780.16,174667473765614.28,3475125964844982.5
23.00173541052013,1.316433796657888e+16,1.8821697003814824e+16,906767938173483.4,954507043441898.1,7963139611022.398,14092793562977.57,180613925575464.3,3593414196871076.0
23.561770118730532,1.328659866105371e+16,1.9089667889725516e+16,915189332262775.9,963371803268184.5,8232509121707.592,14569633562870.936,186725241572725.88,3714980708883505.5
24.133005521105144,1.3408776795514984e+16,1.936108891509109e+16,923605039566233.0,972230576913833.2,8509311231455.855,15059638179438.059,193005285696463.1,3839902267988667.5
24.715665631527248,1.3530863869280958e+16,1.9636033057936584e+16,932014474551516.9,981082748019663.5,8793719231333.588,15563114738536.244,199457997231880.22,3968257134882695.5
25.309978944157795,1.3652851119323998e+16,1.9914574596850336e+16,940417033615728.9,989927681204572.0,9085909761304.205,16080376524977.89,206087391863440.94,4100125084556319.0
25.91617852304095,1.377472953113626e+16,2.0196789145474156e+16,948812095833861.6,998764722853376.2,9386062856231.885,16611742865392.252,212897562738121.94,4235587427190897.0
26.53450209350177,1.3896489849619832e+16,2.0482753687231116e+16,957199023708908.2,1007593201906412.6,9694361992312.33,17157539211902.309,219892681539158.34,4374727029252580.0
27.165192135371807,1.4018122590011146e+16,2.077254661031023e+16,965577163924343.8,1016412430651653.2,10010994133945.785,17718097226646.074,227076999570672.25,4517628334791796.0
27.808495978079243,1.4139618048849072e+16,2.1066247742926308e+16,973945848099622.0,1025221705519951.6,10336149781069.053,18293754867174.875,234454848853588.5,4664377386955759.0
28.464665897640828,1.426096631499375e+16,2.136393838887222e+16,982304393549146.1,1034020307883992.9,10670023016964.51,18884856472761.96,242030643233286.5,4815061849722306.0
29.133959215593645,1.4382157280701358e+16,2.166570136337907e+16,990652104045123.4,1042807504861290.0,11012811556564.252,19491752851656.99,249808879499424.2,4969771029863654.0
29.816638399905518,1.4503180652759236e+16,2.197162102929739e+16,998988270584541.6,1051582550121572.5,11364716795269.312,20114801369323.586,257794138518432.0,5128595899149026.0
30.51297116790363,1.4624025963683426e+16,2.228178333361346e+16,1007312172160473.1,1060344684698660.5,11725943858303.54,20754366037698.51,265991086379162.1,5291629116795679.0
31.223230591261704,1.474468258297963e+16,2.2596275844310456e+16,1015623076537736.6,1069093137806980.8,12096701650623.938,21410817605512.04,274404475552204.2,5458965052177827.0
31.947695203086937,1.4865139728466662e+16,2.29151877875864e+16,1023920241032858.9,1077827127662600.8,12477202907408.146,22084533649711.227,283039146063412.2,5630699807803723.0
32.686649107148675,1.4985386477660954e+16,2.3238610085434108e+16,1032202913298252.6,1086545862308664.4,12867664245141.707,22775898668027.28,291900026682163.5,5806931242570900.0
33.44038208929165,1.510541177921781e+16,2.3566635393594196e+16,1040470332110289.6,1095248540444994.1,13268306213327.043,23485304172731.25,300992136124919.94,5987758995310138.0
34.20918973107749,1.5225204464425534e+16,2.389935813988366e+16,1048721728161027.8,1103934352261459.2,13679353346837.514,24213148785619.508,310320584274638.94,6173284508628579.0
34.993373525699035,1.534475325874545e+16,2.423687456290594e+16,1056956324853105.8,1112602480274743.1,14101034218938.508,24959838334275.01,319890573416609.5,6363611053062779.0
35.793240996213015,1.5464046793391542e+16,2.457928275114509e+16,1065173339097331.8,1121252100167925.5,14533581494999.596,25725785949647.14,329707399491273.9,6558843751552351.0
36.60910581613728,1.5583073616940372e+16,2.4926682682446176e+16,1073371982112399.6,1129882381632292.5,14977231986919.162,26511412164994.195,339776453364604.6,6759089604244577.0
37.44128793246003,1.570182220696243e+16,2.5279176263881308e+16,1081551460226066.9,1138492489210687.0,15432226708285.51,27317145016232.984,350103222116604.5,6964457513641008.0
38.29011369110923,1.582028098166446e+16,2.5636867372001692e+16,1089710975677064.6,1147081583141665.2,15898810930295.562,28143420143738.15,360693290348484.25,7175058310096004.0
39.15591596493141,1.5938438311531138e+16,2.5999861893472764e+16,1097849727417014.0,1155648820203593.8,16377234238453.824,28990680895634.387,371552341509074.44,7391004777677875.0
40.03903428423004,1.605628253095482e+16,2.6368267766090124e+16,1105966911911456.2,1164193354557895.5,16867750590072.207,29859378432623.32,382686159241002.94,7612411680402251.0
40.93981496991464,1.6173801949839878e+16,2.6742195020171556e+16,1114061723939200.5,1172714338590432.5,17370618372591.795,30749971834386.023,394100628747177.3,7839395788847891.0
41.85861126931294,1.629098486516944e+16,2.712175582032085e+16,1122133357389017.9,1181210923750190.0,17886100462746.71,31662928207601.426,405801738178090.3,8072075907163767.0
42.7957834946992,1.640781957252035e+16,2.7507064507557336e+16,1130181006052825.0,1189682261384183.2,18414464286588.676,32598722795618.22,417795580040438.6,8310572900477309.0
43.751699164593184,1.6524294377513418e+16,2.78982376418054e+16,1138203864414363.8,1198127503567689.5,18955981880391.273,33557839089820.066,430088352627539.8,8555009722712175.0
44.72673314788505,1.6640397607184462e+16,2.829539404473675e+16,1146201128432459.8,1206545803928712.0,19510929952451.855,34540768942718.453,442686361472045.44,8805511444823881.0
