t(s),Total solute volume 1,Total retention volume 1,Total 1 volume 1,Total 2 volume 1,Total 3 volume 1,Total 4 volume 1,Total 5 volume 1,Total 6 volume 1
0.1,1323473711248431.8,2617890617675497.5,487117646595586.6,807299259831480.0,0.0,0.0,0.0,-8.892789209081686e-83
0.202,1988410759472912.5,3933269594401159.0,731854356840653.9,1212901176241356.8,21513507.596806634,76500076.81213169,2771015963.8331895,100432816686.75084
0.30604000000000003,2496206432149902.5,4937872825237953.0,918753607679675.6,1522649058144109.5,54554877.769964166,193994347.73414448,7030940411.989659,256447774625.93097
0.41216080000000005,2925952914970693.0,5788136720734046.0,1076926076361203.4,1784788073896038.0,96882098.25007299,344509324.0009264,12488933384.3597,456725181298.8501
0.5204040160000001,3307675221073053.5,6543447140039889.0,1217422768668571.0,2017633047299802.5,147497171.86005345,524496008.95912594,19016050246.71887,696414955032.7291
0.6308120963200001,3656376719867258.5,7233478779363370.0,1345765824209745.8,2230335814389895.0,205864637.47231728,732050262.4478806,26543152821.097736,972939828753.2537
0.7434283382464002,3980788175154779.5,7875499974860293.0,1465168687536909.2,2428222012931240.5,271678449.19869727,966083766.1820161,35030732375.57709,1284830742777.4666
0.8582969050113283,4286506365416085.0,8480580556456043.0,1577691308679676.5,2614705595474728.5,344766080.6497108,1225983005.5472057,44456516738.333984,1631259619728.6401
0.9754628431115548,4577368130288857.0,9056309539635168.0,1684745874650844.0,2792126977697476.0,425041253.76954603,1511441169.0167894,54809365263.46681,2011811150303.815
1.094972099973786,4856137017042378.0,9608153213943876.0,1787349536522312.2,2962171882707641.5,512477754.199625,1822365033.778569,66085888226.08879,2426356940530.2144
1.2168715419732616,5124880528133911.0,1.014020127820415e+16,1886263259145086.2,3126101456520865.5,607093695.7063456,2158819009.1642265,78288415658.17064,2874980075921.3936
1.3412089728127268,5385192737183615.0,1.0655607135598942e+16,1982073757175177.8,3284888060534534.5,708941480.8240085,2520989436.224092,91423701623.63141,3357927073077.3306
1.4680331522689813,5638333212269776.0,1.1156862657299924e+16,2075244627175279.8,3439300012694615.0,818101098.562161,2909160754.1000504,105502059266.66156,3875575839147.286
1.597393815314361,5885317703068479.0,1.1645977542979298e+16,2166149725919101.0,3589956905315993.5,934675490.6911665,3323699022.367409,120536762854.59447,4428413538352.692
1.729341691620648,6126979574762546.0,1.2124600823707072e+16,2255095781752914.5,3737367078862113.0,1058787260.1962674,3765040216.18756,136543623040.66197,5017020878988.544
1.863928525453061,6364012737409719.0,1.259410576647322e+16,2342338195176727.0,3881953808227002.5,1190576284.1433778,4233681737.584739,153540678841.64594,5642060722908.104
2.001207095962122,6597002447196377.0,1.3055650791839704e+16,2428092375552178.5,4024074091046029.5,1330197955.7854624,4730176164.324773,171547970814.8598,6304269700197.282
2.1412312378813647,6826447914199849.0,1.3510224186704516e+16,2512542062114413.0,4164032438097610.0,1477821876.6934788,5255126599.095948,190587372305.15836,7004451971862.113
2.284055862638992,7052779227911115.0,1.3958677578955538e+16,2595845553579141.5,4302091197622445.5,1633630878.6075962,5809183191.1852255,210682463236.575,7743474565534.077
2.4297369798917723,7276370250923521.0,1.440175143818475e+16,2678140453792980.5,4438478420283420.0,1797820292.1185393,6393040535.889099,231858435752.01895,8522263888251.143
2.578331719489608,7497548593608454.0,1.4840094803385974e+16,2759547343012166.0,4573393943570648.0,1970597403.7581012,7007435743.9125395,254142024162.37625,9341803137391.354
2.7298983538794,7716603437306504.0,1.527428075563621e+16,2840172657305825.0,4707014163832680.0,2152181059.498142,7653147031.399894,277561453785.4153,10203130409314.428
2.884496320956988,7933791746186407.0,1.5704818704055578e+16,2920110974892486.5,4839495825418740.0,2342801383.9296565,8330992721.32695,302146404709.535,11107337359115.383
3.0421862473761276,8149343254831866.0,1.6132164250556358e+16,2999446851871027.5,4970979063033170.0,2542699592.2904024,9041830575.064213,327927987536.41675,12055568302599.646
3.2030299723236504,8363464513464041.0,1.6556727190923118e+16,3078256311105068.0,5101589869261383.0,2752127878.142912,9786557392.954754,354938728883.56177,13049019678479.482
3.3670905717701234,8576342199170326.0,1.6978878064325934e+16,3156608060953618.5,5231442114370548.0,2971349363.5904946,10566108837.27799,383212564954.89124,14088939808285.348
3.5344323832055258,8788145849235251.0,1.739895355998241e+16,3234564501300766.0,5360639213601148.0,3200638101.9259286,11381459441.665424,412784841875.6031,15176628905831.05
3.7051210308696363,8999030134952750.0,1.7817261015088926e+16,3312182560454872.5,5489275514158858.0,3440279124.8519716,12233622779.0142,443692321777.07214,16313439298774.479
3.879223451487029,9209136766711116.0,1.823408218358047e+16,3389514396334033.5,5617437457288276.0,3690568528.1084433,13123651765.975164,475973193836.3528,17500775832900.28
4.0568079205167695,9418596100709572.0,1.864967641486823e+16,3466607987834121.5,5745204558346274.0,3951813590.637036,14052639086.701681,509667089642.1331,18740096435930.33
4.237944078927105,9627528502355844.0,1.906428335142658e+16,3543507636640797.0,5872650238454457.0,4224332923.4166603,15021717722.106945,544815102388.18713,20032912822441.53
4.422702960505647,9836045509800298.0,1.94781252311708e+16,3620254395479866.0,5999842534237721.0,4508456644.884056,16032061573.659307,581459809496.2999,21380791325196.94
4.61115701971576,1.004425083219428e+16,1.989140886302984e+16,3696886435536134.0,6126844706747206.0,4804526580.470416,17084886172.934143,619645298350.0835,22785353841129.83
4.803380160110075,1.025224121041475e+16,2.0304327330579396e+16,3773439363251718.5,6253715766489521.0,5112896484.274747,18181449469.88419,659417194884.3212,24248278882555.395
4.9994477633122765,1.0460107162667016e+16,2.0717061468058864e+16,3849946494752523.5,6380510928233462.0,5433932281.287377,19323052694.186726,700822694825.1688,25771302726054.78
5.199436718578522,1.066793363319382e+16,2.112978114482292e+16,3926439094612111.5,6507282006712978.0,5768012328.8947,20511041285.154648,743910597417.4939,27356220652989.03
5.403425452950093,1.0875800559009958e+16,2.154264638773268e+16,4002946584443949.0,6634077762326881.0,6115527696.655116,21746805886.620323,788731341509.0376,29004888276832.418
5.611493962009095,1.1083783366946022e+16,2.1955808365780956e+16,4079496725843384.0,6760944204328250.0,6476882463.548676,23031783403.956253,835337043888.524,30719222953528.668
5.823723841249277,1.1291953411172066e+16,2.236941025706572e+16,4156115781422499.0,6887924857707300.0,6852494032.078928,24367458121.02204,883781539797.5302,32501205271908.195
6.040198318074262,1.150037835966609e+16,2.278358801485524e+16,4232828657053743.5,7015060998931628.0,7242793458.752348,25755362875.350124,934120425554.8677,34352880621906.99
6.261002284435747,1.170912253670934e+16,2.3198471046749436e+16,4309659027928723.5,7142391864863113.0,7648225800.58364,27197080290.320374,986411103248.1372,36276360838910.62
6.486222330124463,1.191824722735958e+16,2.3614182818709424e+16,4386629450622578.5,7269954838482187.0,8069250477.380316,28694244063.44459,1040712827460.5765,38273825923046.99
6.715946776726952,1.2127810948927046e+16,2.4030841393893404e+16,4463761463013492.0,7397785614484225.0,8506341649.647936,30248540310.199936,1097086754012.8125,40347525832673.67
6.950265712261491,1.2337869693713498e+16,2.444855991472518e+16,4541075673625110.0,7525918347346655.0,8959988612.035484,31861708963.12165,1155595990709.037,42499782351669.08
7.18927102650672,1.2548477146640068e+16,2.4867447035367624e+16,4618591841726707.0,7654385784078829.0,9430696202.305107,33535545226.101337,1216305650085.6545,44732991030457.48
7.433056447036854,1.2759684880863528e+16,2.5287607310731624e+16,4696328949331676.0,7783219383545003.0,9918985225.869719,35271901084.04489,1279282904167.9546,47049623200965.57
7.681717575977592,1.2971542534038202e+16,2.5709141547279228e+16,4774305266072490.0,7912449423981556.0,10425392895.99262,37072686868.22392,1344597041246.934,49452228065961.016
7.935351927497144,1.3184097967511548e+16,2.613214712014395e+16,4852538407794195.0,8042105100103905.0,10950473289.788446,38939872877.81768,1412319524694.3018,51943434863431.555
8.194058966047088,1.3397397410428708e+16,2.6556718260479908e+16,4931045389593546.0,8172214611008109.0,11494797820.206059,40875491058.286316,1482524053838.9338,54525955106861.85
8.45794014536803,1.3611485590456838e+16,2.698294631642301e+16,5009842673933398.0,8302805239910940.0,12058955724.210264,42881636737.34742,1555286626932.6755,57202584902437.84
8.72709894827539,1.3826405852617478e+16,2.7410919990608804e+16,5088946214380107.0,8433903426635621.0,12643554567.413027,44960470419.44777,1630685606237.9717,59976207344369.39
9.0016409272409,1.4042200267521278e+16,2.784072555681074e+16,5168371495440468.0,8565534833633692.0,13249220765.435762,47114219639.72961,1708801785273.5212,62849794989667.11
9.281673745785717,1.4258909730139218e+16,2.8272447057941476e+16,5248133568915370.0,8697724406233773.0,13876600122.312807,49345180878.59684,1789718458257.9888,65826412413847.57
9.567307220701432,1.447657405010198e+16,2.8706166487381224e+16,5328247087135400.0,8830496427722962.0,14526358386.272888,51655721538.07691,1873521491795.2825,68909218849166.875
9.85865336511546,1.469523203439933e+16,2.914196395536049e+16,5408726333399203.0,8963874569792196.0,15199181823.260788,54048281981.2672,1960299398847.9897,72101470907101.89
10.155826432417769,1.4914921563247942e+16,2.9579917841917316e+16,5489585249897388.0,9097881938814572.0,15895777808.585342,56525377636.23817,2050143415048.9165,75406525386916.28
10.458942961066125,1.513567965980542e+16,3.0020104937772844e+16,5570837463371397.0,9232541118369790.0,16616875437.102734,59089601165.84963,2143147577403.4055,78827842172251.17
10.768121820287448,1.5357542554330174e+16,3.0462600574313164e+16,5652496308728284.0,9367874208380628.0,17363226152.366226,61743624705.01054,2239408805438.02,82368987217793.25
11.083484256693197,1.5580545743319252e+16,3.0907478743732276e+16,5734574850806901.0,9503902861186524.0,18135604395.195072,64490202166.993996,2339026984854.106,86033635628167.7
11.405153941827061,1.5804724044097216e+16,3.135481221027362e+16,5817085904469953.0,9640648314841520.0,18934808272.135937,67332171620.4904,2442105053747.1455,89825574831307.92
11.733257020663602,1.6030111645276472e+16,3.180467261340552e+16,5900042053176328.0,9778131423894622.0,19761660244.31073,70272457739.15497,2548749091455.7764,93748707848648.77
12.067922161076874,1.6256742153465062e+16,3.2257130563675196e+16,5983455666172459.0,9916372687880790.0,20617007837.165314,73314074325.47824,2659068410106.624,97807056664587.72
12.409280604298411,1.6484648636557488e+16,3.271225573190903e+16,6067338914425894.0,1.0055392277727664e+16,21501724371.653107,76460126910.88083,2773175648924.076,102004765697752.66
12.75746621638438,1.6713863663909544e+16,3.317011693235643e+16,6151703785412043.0,1.0195210060261592e+16,22416709717.407455,79713815433.99878,2891186871376.26,106346105376709.61
13.112615540712067,1.694441934366642e+16,3.3630782200313092e+16,6236562096853169.0,1.0335845620977364e+16,23362891068.47686,83078436999.20366,3013221665231.3633,110835475822837.75
13.474867851526309,1.717634735748713e+16,3.4094318864706944e+16,6321925509499083.0,1.0477318285219486e+16,24341223742.216755,86557388717.4672,3139403245600.8447,115477410643193.9
13.844365208556836,1.7409678992883112e+16,3.456079361608094e+16,6407805539029629.0,1.0619647137908218e+16,25352692001.95051,90154170631.751,3269858561048.666,120276580836281.44
14.221252512727972,1.7644445173367816e+16,3.5030272570365096e+16,6494213567151553.0,1.0762851041930498e+16,26398309904.03494,93872388729.17647,3404718402848.2563,125237798813741.22
14.605677562982532,1.788067648659487e+16,3.550282132879238e+16,6581160851955097.0,1.0906948655303636e+16,27479122169.98186,97715758042.29585,3544117517471.593,130366022541060.78
14.997791114242183,1.811840321064575e+16,3.5978505034279668e+16,6668658537589396.0,1.1051958447210674e+16,28596205084.310688,101688105841.86382,3688194722397.165,135666359800516.73
15.397746936527026,1.8357655338612064e+16,3.6457388424564376e+16,6756717663310180.0,1.1197898712994894e+16,29750667418.826874,105793374923.57828,3837093025326.638,141144072579645.72
15.805701875257567,1.859846260160449e+16,3.693953588236214e+16,6845349171948550.0,1.134478758819519e+16,30943651384.040245,110035626991.33202,3990959746902.247,146804581588647.94
16.221815912762718,1.8840854490308564e+16,3.74250114827848e+16,6934563917844691.0,1.1492643061694574e+16,32176333608.460686,114419046139.59587,4149946647020.0825,152653470910220.3
16.64625223101797,1.9084860275195004e+16,3.79138790382388e+16,7024372674286600.0,1.1641482988048466e+16,33449926146.528263,118947942437.62724,4314210054836.913,158696492785428.5
17.079177275638333,1.9330509025485404e+16,3.840620214100405e+16,7114786140490489.0,1.179132509905314e+16,34765677515.9572,123626755618.27362,4483911002571.078,164939572539316.38
17.5207608211511,1.9577829626962216e+16,3.8902044203673656e+16,7205814948155910.0,1.1942187014609706e+16,36124873765.29529,128460058874.22375,4659215363200.9795,171388813650072.28
17.97117603757412,1.9826850798705588e+16,3.940146849762532e+16,7297469667626140.0,1.209408625293348e+16,37528839572.52279,133452562764.63506,4840293992167.18,178050502965665.7
18.430599558325603,2.0077601108833668e+16,3.990453818967367e+16,7389760813681199.0,1.2247040240155084e+16,38978939375.53763,138609119235.14816,5027322873187.7,184931116071979.38
18.899211549492115,2.033010898931277e+16,4.041131637704573e+16,7482698850989239.0,1.2401066319354538e+16,40476578535.39534,143934725754.38138,5220483268298.419,192037322816584.88
19.37719578048196,2.0584402749902972e+16,4.092186612080876e+16,7576294199239059.0,1.2556181759068004e+16,42023204533.20111,149434529570.08728,5419961872234.0625,199375992992395.8
19.864739696091597,2.0840510591294544e+16,4.1436250477867496e+16,7670557237975340.0,1.2712403761300538e+16,43620308201.566864,155113832088.2292,5625950971268.106,206954202185585.3
20.36203449001343,2.1098460617489984e+16,4.195453253164208e+16,7765498311155773.0,1.286974946907908e+16,45269424991.57971,160978093378.33026,5838648606633.14,214779237792230.78
20.869275179813698,2.135828084747843e+16,4.2476775421524504e+16,7861127731448164.0,1.3028235973573922e+16,46972136276.24725,167032936808.54196,6058258742646.613,222858605208299.6
21.38666068340997,2.1619999226248704e+16,4.3003042371210296e+16,7957455784283609.0,1.3187880320816018e+16,48730070691.41292,173284153813.94696,6284991439669.691,231200034197698.84
21.91439389707817,2.1883643635180396e+16,4.353339671598693e+16,8054492731681296.0,1.3348699518035696e+16,50544905515.16001,179737708801.74173,6519063032031.371,239811485443232.1
22.452681775019734,2.2149241901851396e+16,4.406790192906344e+16,8152248815858134.0,1.3510710539645154e+16,52418368086.75067,186399744196.9941,6760696311051.811,248701157285439.7
23.00173541052013,2.241682180929682e+16,4.460662164701023e+16,8250734262636650.0,1.367393033288609e+16,54352237266.17222,193276585632.8054,7010120713303.973,257877492654430.34
23.561770118730532,2.2686411104750344e+16,4.514961969438102e+16,8349959284662271.0,1.3838375823161898e+16,56348344935.38858,200374747288.78055,7267572514255.189,267349186199931.38
24.133005521105144,2.2958037507898148e+16,4.5696960107579064e+16,8449934084441278.0,1.4004063919072392e+16,58408577542.42856,207700937381.82175,7533295027434.148,277125191624928.97
24.715665631527248,2.3231728718671708e+16,4.62487071580275e+16,8550668857209123.0,1.4171011517167402e+16,60534877689.4652,215262063813.35678,7807538809272.498,287214729228408.25
25.309978944157795,2.3507512424605536e+16,4.6804925374696936e+16,8652173793638318.0,1.4339235506434744e+16,62729245766.07157,223065239977.21744,8090561869774.338,297627293662826.7
25.91617852304095,2.378541630778168e+16,4.736567956604621e+16,8754459082394616.0,1.4508752772536244e+16,64993741628.871666,231117790732.49554,8382629889170.039,308372661912123.1
26.53450209350177,2.4065468051382756e+16,4.793103484141859e+16,8857534912548813.0,1.4679580201805254e+16,67330486328.82767,239427258545.80225,8684016440715.384,319460901496174.2
27.165192135371807,2.4347695345873468e+16,4.850105663194369e+16,8961411475851989.0,1.4851734685017018e+16,69741663887.44533,248001409807.4737,8995003219800.635,330902378907787.8
27.808495978079243,2.4632125894828084e+16,4.907581071098432e+16,9066098968880302.0,1.5025233120943438e+16,72229523123.20169,256848241326.37057,9315880279538.283,342707768288471.25
28.464665897640828,2.4918787420420784e+16,4.9655363214167624e+16,9171607595055832.0,1.5200092419702112e+16,74796379529.53621,265975987008.04218,9646946273002.402,354888060349319.1
29.133959215593645,2.5207707668594344e+16,5.023978065904013e+16,9277947566548888.0,1.5376329505909164e+16,77444617205.77933,275393124721.1345,9988508702296.791,367454571543604.5
29.816638399905518,2.5498914413921404e+16,5.08291299643798e+16,9385129106067270.0,1.5553961321644522e+16,80176690842.42334,285108383357.035,10340884174632.975,380418953497733.6
30.51297116790363,2.5792435464171036e+16,5.142347846919649e+16,9493162448537114.0,1.5733004829237466e+16,82995127762.17368,295130750087.8869,10704398665604.137,393793202707429.0
31.223230591261704,2.608829866459339e+16,5.20228939514572e+16,9602057842679798.0,1.5913477013880224e+16,85902530018.25743,305469477828.2006,11079387789844.957,407589670506168.6
31.947695203086937,2.6386531901932788e+16,5.262744464655946e+16,9711825552489058.0,1.609539488607582e+16,88901576551.49538,316134092905.4309,11466197079271.975,421821073313058.8
32.686649107148675,2.6687163108179932e+16,5.3237199265583944e+16,9822475858612088.0,1.6278775483927e+16,91995025407.68219,327134402945.0184,11865182269103.822,436500503167498.44
33.44038208929165,2.6990220264072956e+16,5.385222701335354e+16,9934019059637896.0,1.6463635875271698e+16,95185716016.85611,338480504975.50433,12276709591865.082,451641438558165.94
34.20918973107749,2.7295731402355104e+16,5.4472597606320984e+16,1.0046465473296676e+16,1.6649993159670214e+16,98476571536.07367,350182793759.4746,12701156079582.596,467257755554033.0
34.993373525699035,2.760372461079817e+16,5.509838129031121e+16,1.0159825437572278e+16,1.6837864470249516e+16,101870601257.34532,362251970356.2164,13138909874387.371,483363739245284.8
35.793240996213015,2.791422803499758e+16,5.572964885814091e+16,1.0274109311731162e+16,1.7027266975408132e+16,105370903082.42108,374699050922.0954,13590370547740.371,499974095502204.1
36.60910581613728,2.822726988094768e+16,5.636647166713565e+16,1.0389327477270302e+16,1.721821788038706e+16,108980666066.15862,387535375754.81506,14055949428506.04,517103963060281.44
37.44128793246003,2.854287841740123e+16,5.700892165656754e+16,1.050549033878545e+16,1.741073442870912e+16,112703173030.243,400772618587.848,14536069940100.633,534768925939965.94
38.29011369110923,2.886108197802074e+16,5.765707136503073e+16,1.0622608324763e+16,1.7604833903490934e+16,116541803249.06505,414422796141.4664,15031167946950.084,552985026209686.1
39.15591596493141,2.9181908963324804e+16,5.831099394777636e+16,1.074069188829649e+16,1.7800533628630528e+16,120500035209.60869,428498277936.9465,15541692110494.88,571768777100959.0
40.03903428423004,2.9505387842435564e+16,5.897076319402375e+16,1.0859751507729654e+16,1.7997850969873186e+16,124581449447.23395,443011796380.6677,16068104254986.033,591137176484579.8
40.93981496991464,2.983154715463086e+16,5.96364535442657e+16,1.0979797687227706e+16,1.8196803335758064e+16,128789731459.28935,457976457124.96454,16610879743321.574,611107720717114.2
41.85861126931294,3.0160415510704852e+16,6.030814010758584e+16,1.1100840957278162e+16,1.839740817844811e+16,133128674698.52144,473405749712.7553,17170507863177.053,631698418867080.2
