t(s),Total solute volume 1,Total retention volume 1,Total 1 volume 1,Total 2 volume 1,Total 3 volume 1,Total 4 volume 1,Total 5 volume 1,Total 6 volume 1
0.1,988500314890707.8,1201179625827040.0,98333854761724.14,114345456174609.27,0.0,0.0,0.0,0.0
0.202,1489051038995642.5,1809473875403072.0,148127549205022.25,172247008578299.4,59822090.15760932,123348866.73348169,1988915463.6253335,46106537685.92444
0.30604000000000003,1870321969154426.8,2272850803243239.5,186055549701921.47,216350787298281.62,151778981.89845467,312957479.5746782,5046254794.695189,116986097349.74895
0.41216080000000005,2192817806729359.0,2664827845301977.5,218136732169281.56,253655716415300.78,269597805.245039,555891590.6924492,8963446427.623478,207801052218.71756
0.5204040160000001,2479209812650232.5,3012951816408055.5,246626384210386.44,286784309802528.94,410494295.8043902,846410240.3345354,13647918305.638563,316404922066.5066
0.6308120963200001,2740794812049733.0,3330948887818333.0,272648289351996.75,317043335540587.4,572975039.1321679,1181434113.4502385,19050017310.112762,441646449553.8344
0.7434283382464002,2984138921820996.5,3626797210397800.0,296855630581363.06,345192333749210.06,756186285.5511699,1559202839.5449467,25141358003.84357,582867499103.9847
0.8582969050113283,3213448560185387.0,3905607839253152.5,319666853208226.94,371717884768242.0,959646406.0454751,1978723335.1064627,31905927219.115246,739696794336.4734
0.9754628431115548,3431606224787819.0,4170883256720619.0,341368701810945.06,396953423507698.4,1183114076.526822,2439498008.6993747,39335701427.608154,911948300647.6273
1.094972099973786,3640687490530693.5,4425145545178090.0,362167650053460.94,421139043530626.3,1426515282.064039,2941374248.7731457,47428219774.58276,1099564954000.5796
1.2168715419732616,3842244840246099.5,4670281249480455.0,382218135541531.1,444454329362750.4,1689899457.1875355,3484453988.0384717,56185125833.49389,1302584850795.883
1.3412089728127268,4037475068967573.0,4907744776263398.0,401639212834544.6,467037721097532.7,1973411505.564703,4069036010.0024357,65611237318.66543,1521119678912.3457
1.4680331522689813,4227323713216335.5,5138685276479983.0,420524941843143.56,488998594326163.2,2277273120.8119416,4695577433.799349,75713925041.98923,1755340318747.3552
1.597393815314361,4412553201412570.5,5364029448188251.0,438951167283482.25,510425143483550.0,2601769872.1246543,5364667085.67381,86502683537.92484,2005466888155.2285
1.729341691620648,4593789010365085.0,5584537616366488.0,456980110224146.44,531389721032204.7,2947242029.9182377,6077006582.10559,97988826036.03107,2271761670407.708
1.863928525453061,4771551913044258.0,5800842913536603.0,474663576024263.25,551952567745692.7,3314077911.403684,6833396608.863289,110185263215.97243,2554523984657.5547
2.001207095962122,4946281112440991.0,6013479386997885.0,492045255639330.8,572164488733779.6,3702708979.2290373,7634726814.757877,123106340248.21935,2854086407754.5117
2.1412312378813647,5118351219399590.0,6222902626555992.0,509162414538995.8,592068817364990.4,4113606193.765307,8481968290.323425,136767715515.72289,3170811962430.5356
2.284055862638992,5288084961867957.0,6429505206009949.0,526047156995543.94,611702885417913.2,4547277283.800326,9376167940.191332,151186269870.66635,3505092013435.4604
2.4297369798917723,5455762865774009.0,6633628445254983.0,542727389116369.94,631099142923295.1,5004264704.668588,10318444272.909586,166380038746.96555,3857344693577.954
2.578331719489608,5621630743635203.0,6835571508868109.0,559227563794510.4,650286024414102.1,5485144121.030663,11309984272.553743,182368161716.23175,4228013734188.274
2.7298983538794,5785905567497867.0,7035598541735394.0,575569264935855.8,669288628281868.9,5990523297.270326,12352041110.817112,199170845596.12927,4617567609788.806
2.884496320956988,5948780131942799.0,7233944334683686.0,591771671324754.0,688129256173070.0,6521041309.885572,13445932523.030563,216809338264.32782,5026498930969.735
3.0421862473761276,6110426797867221.0,7430818873323434.0,607851929047285.0,706827846053704.8,7077368018.25098,14593039716.927097,235305911062.7461,5455324036427.228
3.2030299723236504,6271000528757699.0,7626411027328899.0,623825453533069.1,725402323432264.0,7660203745.825444,15794806715.329979,254683848198.64,5904582747220.07
3.3670905717701234,6430641375928465.0,7820891570267371.0,639706176781345.2,743868888841378.9,8270279135.259985,17052740057.411833,274967441927.49854,6374838255074.7705
3.5344323832055258,6589476529936184.0,8014415672383668.0,655506751431253.8,762242255136671.0,8908355149.238724,18368408800.446552,296181992581.2572,6866677123026.711
3.7051210308696363,6747622027054878.0,8207124974329677.0,671238720518218.1,780535844894386.0,9575223195.138065,19743444776.865444,318353812713.19684,7380709381504.239
3.879223451487029,6905184178976671.0,8399149324656995.0,686912659697470.5,798761955793038.4,10271705356.311417,21179543071.169956,341510234787.92395,7917568706603.395
4.0568079205167695,7062260778560800.0,8590608245248842.0,702538297189328.4,816931900089261.5,10998654716.418495,22678462688.695774,365679621964.8839,8477912670084.127
4.237944078927105,7218942122957514.0,8781612174900749.0,718124615557336.2,835056122968364.1,11756955766.006924,24242027393.977196,390891381616.6052,9062423052769.246
4.422702960505647,7375311886727935.0,8972263530682888.0,733679938564308.4,853144303543071.4,12547524882.731806,25872126700.948498,417175981295.25244,9671806214705.705
4.61115701971576,7531447870923388.0,9162657618627888.0,749212005689123.2,871205441503809.8,13371310878.313623,27570717000.756332,444564966918.0892,10306793516769.584
4.803380160110075,7687422648948060.0,9352883419043940.0,764728036375724.4,889247931829297.9,14229295606.6985,29339822815.767982,473090982987.81525,10968141789448.021
4.9994477633122765,7843304126027036.0,9543024266891122.0,780234785687781.0,907279629503420.9,15122494628.978096,31181538170.616425,502787794700.0498,11656633845372.65
5.199436718578522,7999156025961498.0,9733158443843166.0,795738592730029.9,925307905820948.8,16051957931.510147,33098028072.941444,533690311819.63617,12373079032862.184
5.403425452950093,8155038316368492.0,9923359695639480.0,811245422950206.9,943339697577459.0,17018770694.400103,35091530097.973625,565834614231.3589,13118313828284.014
5.611493962009095,8311007577670171.0,1.0113697686101216e+16,826760904850216.1,961381549774077.8,18024054104.498676,37164356134.024254,599258006324.7725,13893207390192.998
5.823723841249277,8467117347233801.0,1.0304238396200424e+16,842290364200631.4,979439655339112.4,19068966232.60552,39318893916.23984,633998937318.019,14698642629424.992
6.040198318074262,8623418385475447.0,1.049504447771309e+16,857838850541939.1,997519886040852.2,20154702920.19982,41557609265.40304,670097193161.8561,15535546149490.266
6.261002284435747,8779958948809585.0,1.0686175566053666e+16,873411164316983.0,1015627823973409.6,21282498745.434032,43883047807.56704,707593820923.5125,16404869586199.834
6.486222330124463,8936785014081706.0,1.087768855867608e+16,889011879202062.1,1033768787540184.4,22453628014.84575,46297837086.64923,746531188559.0183,17307595198474.729
6.715946776726952,9093940482255630.0,1.1069637863423158e+16,904645362369298.2,1051947855015531.6,23669405801.361443,48804688704.760994,786953019425.3234,18244736668807.66
6.950265712261491,9251467360539386.0,1.1262075620709758e+16,920315792604118.2,1070169885612296.1,24931189024.832573,51406400550.239136,828904428206.3408,19217339936165.31
7.18927102650672,9409405925670634.0,1.1455051902845642e+16,936027176548518.4,1088439538369958.2,26240377575.023884,54105859113.2125,872431958250.4459,20226484061613.984
7.433056447036854,9567794870686878.0,1.164861489332517e+16,951783363301473.9,1106761289132397.1,27598415477.134304,56906041888.86917,917583620322.1276,21273282126730.52
7.681717575977592,9726671437175500.0,1.1842811048506066e+16,967588057574859.0,1125139445845985.0,29006792100.070213,59810019868.88064,964408932775.109,22358882164968.79
7.935351927497144,9886071534719424.0,1.2037685243764576e+16,983444831575650.2,1143578162376562.5,30467043407.81634,62820960121.689835,1012958963158.3915,23484468126245.645
8.194058966047088,1.0046029849021098e+16,1.2233280905927808e+16,999357135761870.9,1162081451016758.0,31980753254.359325,65942128462.60727,1063286371270.3948,24651260875100.37
8.45794014536803,1.0206579939989086e+16,1.2429640133544772e+16,1015328308600022.0,1180653193832201.8,33549554722.72153,69176892214.85991,1115445453679.6814,25860519222854.297
8.72709894827539,1.0367754330902518e+16,1.2626803806351792e+16,1031361585434963.6,1199297152975700.2,35175131508.75082,72528723062.92831,1169492189733.7834,27113540994270.152
9.0016409272409,1.0529584589626316e+16,1.282481168511493e+16,1047460106569041.2,1218016980081867.2,36859219350.39798,76001199999.67696,1225484289080.417,28411664129274.945
9.281673745785717,1.0692101402726812e+16,1.302370250288321e+16,1063626924634930.5,1236816224840483.0,38603607503.288155,79598012368.94629,1283481240727.9878,29756267820367.715
9.567307220701432,1.0855334643232442e+16,1.3223514048556876e+16,1079865011336343.0,1255698342834774.0,40410140263.46761,83322963005.4161,1343544363674.525,31148773686390.87
9.85865336511546,1.1019313432693918e+16,1.3424283243568324e+16,1096177263621621.6,1274666702720267.5,42280718538.27073,87179971473.69684,1405736859136.6318,32590646983395.027
10.155826432417769,1.1184066198119884e+16,1.3626046212374954e+16,1112566509347574.8,1293724592810849.5,44217301466.31859,91173077408.72856,1470123864412.0273,34083397853375.637
10.458942961066125,1.134962072429696e+16,1.3828838347384238e+16,1129035512484172.8,1312875227130926.5,46221908087.72122,95306443959.69891,1536772508411.2397,35628582611707.836
10.768121820287448,1.1516004201944068e+16,1.4032694368858026e+16,1145586977904816.0,1332121750985717.0,48296619065.61009,99584361339.80888,1605751968896.0464,37227805074149.59
11.083484256693197,1.1683243272100278e+16,1.423764838028282e+16,1162223555801962.5,1351467246095846.8,50443578460.19053,104011250484.33055,1677133531464.1482,38882717924327.26
11.405153941827061,1.1851364067101096e+16,1.4443733919637094e+16,1178947845763344.0,1370914735337305.0,52664995556.54958,108591666819.51265,1750990650321.1228,40595024122659.516
11.733257020663602,1.2020392248458786e+16,1.4650984006941748e+16,1195762400540225.0,1390467187123259.0,54963146747.51645,113330304145.00313,1827399010882.8875,42366478357716.26
12.067922161076874,1.2190353041928584e+16,1.4859431188436092e+16,1212669729535718.8,1410127519460405.8,57340377472.91841,118231998632.56276,1906436594253.234,44198888541049.21
12.409280604298411,1.2361271270013226e+16,1.5069107577687742e+16,1229672302038241.8,1429898603708918.0,59799104216.62998,123301732943.9474,1988183743622.971,46094117346573.42
12.75746621638438,1.2533171382130614e+16,1.5280044893910582e+16,1246772550222560.8,1449783268072123.5,62341816562.86381,128544640470.94743,2072723232638.7668,48054083795610.625
13.112615540712067,1.2706077482648038e+16,1.5492274497739522e+16,1263972871938551.8,1469784300839381.0,64971079313.19839,133966009700.67325,2160140335791.5305,50080764888756.06
13.474867851526309,1.2880013356963856e+16,1.5705827424682742e+16,1281275633305762.0,1489904453403097.8,67689534665.8955,139571288709.27725,2250522900875.815,52176197285754.75
13.844365208556836,1.3055002495801454e+16,1.5920734416452956e+16,1298683171130114.5,1510146443068955.2,70499904459.10173,145366089787.41092,2343961423573.365,54342479034626.79
14.221252512727972,1.3231068117862264e+16,1.6137025950358126e+16,1316197795157377.8,1530512955676296.0,73404992479.5859,151356194200.8164,2440549124215.678,56581771351306.11
14.605677562982532,1.3408233190971678e+16,1.6354732266914486e+16,1333821790176733.5,1551006648044224.2,76407686838.70789,157547557089.55634,2540382026782.036,58896300451107.68
14.997791114242183,1.3586520451838592e+16,1.6573883395830678e+16,1351557417986364.8,1571630150257248.0,79510962417.37337,163946312509.4885,2643559040191.2173,61288359433368.56
15.397746936527026,1.3765952424536762e+16,1.6794509180496592e+16,1369406919232020.5,1592386067803203.0,82717883381.77165,170558778619.70312,2750182041946.716,63760310220652.125
15.805701875257567,1.394655143780868e+16,1.7016639301098704e+16,1387372515128284.5,1613276983574805.0,86031605771.74763,177391463019.7342,2860355964197.138,66314585553943.055
16.221815912762718,1.4128339641280214e+16,1.7240303296473164e+16,1405456409071628.5,1634305459745358.8,89455380163.71779,184451068240.48022,2974188882274.957,68953691045299.93
16.64625223101797,1.431133902066886e+16,1.7465530584797138e+16,1423660788153273.5,1655474039527946.0,92992554410.07751,191744497392.8623,3091792105778.845,71680207289475.7
17.079177275638333,1.4495571412059724e+16,1.7692350483210622e+16,1441987824579327.0,1676785248826812.2,96646576457.11795,199278859978.3599,3213280272266.1816,74496792036051.3
17.5207608211511,1.4681058515316836e+16,1.792079222645291e+16,1460439677004934.8,1698241597788741.0,100420997243.50908,207061477865.691,3338771443624.538,77406182423674.4
17.97117603757412,1.4867821906692006e+16,1.8150884984590536e+16,1479018491788565.8,1719845582261593.0,104319473681.46826,215099891437.9871,3468387205192.3774,80411197278037.45
18.430599558325603,1.505588305068795e+16,1.8382657879907196e+16,1497726404172124.8,1741599685166559.0,108345771722.7859,223401865914.95285,3602252767701.241,83514739475262.31
18.899211549492115,1.5245263311226502e+16,1.861614000302043e+16,1516565539391956.5,1763506377790087.0,112503769511.93716,231975397854.5973,3740497072113.6016,86719798372417.31
19.37719578048196,1.5435983962170504e+16,1.8851360428283876e+16,1535538013725532.5,1785568121000977.8,116797460628.56213,240828721839.25323,3883252897432.154,90029452306920.62
19.864739696091597,1.5628066197241684e+16,1.9088348228530356e+16,1554645935478060.5,1807787366397644.8,121230957421.65561,249970317350.70932,4030656971558.4434,93446871166635.62
20.36203449001343,1.5821531139374786e+16,1.9327132489206104e+16,1573891405913015.8,1830166557390189.0,125808494437.86876,259408915839.40097,4182850085280.806,96975319032512.25
20.869275179813698,1.6016399849544558e+16,1.9567742321941228e+16,1593276520130223.0,1852708130221427.5,130534431946.37819,269153507992.73572,4339977209473.048,100618156895659.52
21.38666068340997,1.6212693335098526e+16,1.9810206877601324e+16,1612803367894799.5,1875414514930828.5,135413259562.83896,279213351207.7387,4502187615587.843,104378845450799.47
21.91439389707817,1.6410432557627364e+16,2.0054555358857148e+16,1632474034420050.0,1898288136264885.0,140449599975.0047,289597977273.339,4669634999530.44,108260947968082.12
22.452681775019734,1.6609638440400012e+16,2.0300817032311696e+16,1652290601107136.5,1921331414537206.0,145648212772.6508,300317200267.7413,4842477609000.454,112268133245296.6
23.00173541052013,1.681033187539077e+16,2.0549021240216292e+16,1672255146244089.2,1944546766441383.2,151013998384.50183,311381124676.447,5020878374391.665,116404178642561.75
23.561770118730532,1.701253372992156e+16,2.0799197411808236e+16,1692369745666576.2,1967936605819306.2,156552002124.9296,322800153736.6395,5205005043341.673,120672973201623.98
24.133005521105144,1.721626485294197e+16,2.105137507429961e+16,1712636473382628.5,1991503344387644.8,162267418353.24985,334584998013.7458,5395030319025.347,125078520851937.77
24.715665631527248,1.7421546080967306e+16,2.13055838635423e+16,1733057402163332.2,2015249392424720.8,168165594748.5069,346746684216.16125,5591132002288.458,129624943705763.72
25.309978944157795,1.7628398243693236e+16,2.1561853534397824e+16,1753634604101375.8,2039177159419995.2,174252036702.71262,359296564254.22205,5793493137719.567,134316485444550.27
25.91617852304095,1.7836842169304724e+16,2.182021397083115e+16,1774370151139180.0,2063289054688165.5,180532411835.5443,372246324549.6578,6002302163761.022,139157514798936.05
26.53450209350177,1.8046898689494756e+16,2.208069519575452e+16,1795266115568105.2,2087587487949729.2,187012554633.6165,385607995601.9134,6217753066961.227,144152529124741.3
27.165192135371807,1.8258588644207436e+16,2.234332738063834e+16,1816324570500339.0,2112074869879633.5,193698471217.45566,399393961817.8155,6440045540473.705,149306158077384.9
27.808495978079243,1.8471932886119004e+16,2.2608140854909204e+16,1837547590314627.2,2136753612625616.2,200596344239.41943,413616971611.2643,6669385146909.518,154623167387196.28
28.464665897640828,1.8686952284868372e+16,2.2875166115152628e+16,1858937251077135.0,2161626130297609.0,207712537915.8364,428290147779.7011,6905983485652.781,160108462738158.0
29.133959215593645,1.8903667731049156e+16,2.314443383413586e+16,1880495630938526.2,2186694839429447.2,215053603196.72797,443426998164.28534,7150058364750.471,165767093752652.0
29.816638399905518,1.9122100139971016e+16,2.3415974869665244e+16,1902224810508197.2,2211962159414054.2,222626283076.52725,459041426600.83057,7401833977490.284,171604258084843.4
30.51297116790363,1.9342270455201216e+16,2.368982027329214e+16,1924126873206524.5,2237430512913041.0,230437518049.27948,475147744168.67883,7661541083782.524,177625305625368.88
31.223230591261704,1.9564199651891708e+16,2.3966001298878164e+16,1946203905595864.2,2263102326241600.0,238494451711.87076,491760680744.83,7929417196463.438,183835742820068.3
31.947695203086937,1.9787908739898828e+16,2.42445494110306e+16,1968457997690896.0,2288980029729378.0,246804436518.8885,508895396870.7551,8205706772640.368,190241237105506.84
32.686649107148675,2.0013418766699892e+16,2.452549629341646e+16,1990891243248749.5,2315066058057851.5,255375039692.77487,526567495939.45294,8490661410199.857,196847621464119.22
33.44038208929165,2.024075082010984e+16,2.4808873856961096e+16,2013505740039250.5,2341362850574579.5,264214049292.98535,544793036710.38873,8784540049602.55,203660899101804.75
34.20918973107749,2.046992603079883e+16,2.509471424793726e+16,2036303590095361.2,2367872851584392.0,273329480447.91147,563588546160.0883,9087609181089.43,210687248250871.06
34.993373525699035,2.070096557461094e+16,2.538304985594554e+16,2059286899943841.8,2394598510617661.5,282729581753.3598,582971032676.195,9400143057425.604,217933027101228.0
35.793240996213015,2.0933890674680016e+16,2.5673913321787236e+16,2082457780815748.8,2421542282675029.0,292422841841.41656,602957999602.8882,9722423912309.11,225404778862765.94
36.60910581613728,2.1168722603338364e+16,2.596733754522461e+16,2105818348836297.5,2448706628448200.0,302417996123.5365,623567459145.5807,10054742184571.703,233109236961860.75
37.44128793246003,2.14054826838101e+16,2.6263355692622748e+16,2129370725193274.0,2476094014515777.0,312724033711.70386,644817946642.8335,10397396748300.166,241053330374953.88
38.29011369110923,2.164419229167576e+16,2.6562001204462204e+16,2153117036282793.2,2503706913512751.0,323350204521.4875,666728535213.3807,10750695149004.734,249244189102135.3
39.15591596493141,2.18848728560958e+16,2.6863307802705748e+16,2177059413830975.0,2531547804271991.5,334306026560.8088,689318850786.1036,11114953845961.578,257689149783639.47
40.03903428423004,2.212754586077103e+16,2.716730949799969e+16,2201199994989472.0,2559619171935314.0,345601293408.14435,712609087520.6833,11490498460852.887,266395761462123.47
40.93981496991464,2.237223284461664e+16,2.747404059668254e+16,2225540922402571.2,2587923508031503.0,357246081883.8253,736620023626.4452,11877664032827.059,275371791493503.1
41.85861126931294,2.2618955402120296e+16,2.7783535707567464e+16,2250084344242758.2,2616463310517723.0,369250759917.9923,761373037586.7351,12276795280095.424,284625231609079.75
42.7957834946992,2.28677351833477e+16,2.8095829748458204e+16,2274832414211308.5,2645241083780109.0,381625994618.5596,786890124795.7927,12688246868179.168,294164304131520.06
43.751699164593184,2.3118593893553524e+16,2.8410957952349096e+16,2299787291499558.0,2674259338588824.5,394382760542.41656,813193914614.7063,13112383684911.887,303997468347142.9
