t(s),Total solute volume 1,Total retention volume 1,Total 1 volume 1,Total 2 volume 1,Total 3 volume 1,Total 4 volume 1,Total 5 volume 1,Total 6 volume 1
0.1,878184692305091.0,1002349173156223.1,60489917771387.09,63674563079745.664,0.0,0.0,0.0,0.0
0.202,1323181049470337.5,1510263370019507.5,91141548812186.11,95939927413235.02,1771461.682961307,3133966.1682002363,40163913.691320054,799254407.4940501
0.30604000000000003,1662079198800571.0,1897078834747223.2,114485068018503.9,120512425591170.89,4494749.873796733,7951848.727172109,101908539.57774295,2027981839.4213357
0.41216080000000005,1948735317281688.5,2224266255048130.2,134230123039863.03,141297009263382.16,7984049.924762937,14124914.933029586,181020854.76182467,3602333374.660731
0.5204040160000001,2203307401983802.0,2514833680819949.0,151765209489223.9,159755274941397.72,12156918.790595835,21507311.3154122,275631630.42599326,5485109666.887824
0.6308120963200001,2435837672741611.0,2780243156826143.0,167782041831280.4,176615354160873.8,16969148.63458029,30020827.934159353,384738545.59630847,7656363850.542191
0.7434283382464002,2652162476803094.0,3027156205773774.0,182682631361871.78,192300423126018.25,22395477.689570747,39620773.13893734,507768842.4748253,10104697696.202604
0.8582969050113283,2856020549065050.5,3259840166762823.0,196724504509112.9,207081566399249.94,28421666.103853498,50281954.61302706,644399662.1872282,12823686114.828728
0.9754628431115548,3049973845695959.5,3481219221562900.0,210084130436799.06,221144543812554.78,35040592.05406845,61991772.842297785,794469532.175865,15810115689.765541
1.094972099973786,3235867122800619.0,3693398951001279.5,222888577113999.38,234623113151539.6,42250089.995119676,74746396.67229487,957929353.0150294,19063009282.91473
1.2168715419732616,3415080227679507.5,3897954296474723.0,235232889296834.75,247617323045310.78,50051651.83604149,88548465.50396958,1134812950.2946448,22583040000.357986
1.3412089728127268,3588676894162443.5,4096099392712796.5,247190337645316.12,260204301674169.66,58449598.40694984,103405623.50113462,1325218289.376645,26372157356.096836
1.4680331522689813,3757497560124690.0,4288793508282101.5,258818812052660.5,272444986692021.53,67450526.38987428,119329541.13263473,1529294935.7187564,30433337726.268745
1.597393815314361,3922219938419981.0,4476810180319696.5,270164993809521.3,284388517044807.4,77062925.98091136,136335238.7624615,1747235386.1724985,34770411837.864456
1.729341691620648,4083400039090592.0,4660784036648164.0,281267181239806.56,296075207369115.06,87296909.31763026,154440606.19931936,1979268911.6499507,39387942234.976
1.863928525453061,4241500829507127.0,4841243508011757.0,292157263829264.06,307538626053781.44,98164013.53894119,173666054.2816088,2225657091.9240255,44291134419.32962
2.001207095962122,4396912794241042.0,5018634294792001.0,302862138402520.5,318807085975179.8,109677055.7668685,194034258.31962717,2486690527.6481357,49485771418.03612
2.1412312378813647,4549969023687721.0,5193336588924680.0,313404748437001.0,329904738528458.9,121850025.22030868,215569967.22952142,2762686394.2649274,54978165105.31739
2.284055862638992,4700956508994658.0,5365677965752915.0,323804862064734.4,340852392589236.56,134698002.53325862,238299860.79580295,3053986612.7187033,60775119798.895096
2.4297369798917723,4850124745569157.0,5535943203936031.0,334079664687411.25,351668138328390.44,148237099.43781683,262252442.96204108,3360956481.8957934,66883905044.96517
2.578331719489608,4997692388269316.0,5704381881581127.0,344244217390163.94,362367829760180.8,162484413.9915814,287457962.6218051,3683983663.5011907,73312235416.80003
2.7298983538794,5143852470732016.0,5871214333503973.0,354311816452171.8,372965463180224.1,177457997.88409153,313948355.7791308,4023477440.801683,80068255763.40584
2.884496320956988,5288776549409509.0,6036636381197473.0,364294278792916.75,383473477645854.4,193176833.33360976,341757205.14765203,4379868315.439031,87160546830.07382
3.0421862473761276,5432618030817862.0,6200823130395657.0,374202171145537.4,393902996190360.56,209660817.4121396,370919710.5375172,4753607171.062939,94598054212.99554
3.2030299723236504,5575514869803515.0,6363932051001292.0,384044995929731.1,404264021518838.56,226930753.07464296,401472675.79899794,5145165789.198591,102390179978.15685
3.3670905717701234,5717591778358691.0,6526105498088856.0,393831343386514.5,414565596127389.3,245008344.88626957,433454499.39263546,5555036274.238222,110546717139.64291
3.5344323832055258,5858962048797002.0,6687472792882541.0,403569017162209.8,424815934505141.3,263916199.30601516,466905175.3575355,5983731179.085466,119077865642.649
3.7051210308696363,5999729070423697.0,6848151953866694.0,413265138777657.06,435022533103503.0,283677828.6020975,501866300.2382428,6431783593.928188,127994234130.39381
3.879223451487029,6139987600255131.0,7008251147172739.0,422926235156161.1,445192262472262.0,304317657.93647325,538381085.6182951,6899747306.86507,137306843140.58804
4.0568079205167695,6279824834729877.0,7167869909821669.0,432558312443640.9,455331444966160.06,325861035.2169316,576494375.5499926,7388197027.28045,147027129550.62204
4.237944078927105,6419321319137829.0,7327100187741133.0,442166918650685.75,465445920684912.94,348334243.39780706,616252668.3161387,7897728664.736964,157166952127.57483
4.422702960505647,6558551723757408.0,7486027221645772.0,451757197113370.6,475541103748603.2,371764514.9748841,657704142.0736201,8428959657.616453,167738598068.2353
4.61115701971576,6697585509773610.0,7644730307115664.0,461333932362113.8,485622030581423.3,396180048.470882,700898684.0185854,8982529346.893158,178754790437.26904
4.803380160110075,6836487503482553.0,7803283449995130.0,470901589673257.75,495693401545540.9,421610026.7483117,745887922.7845463,9559099391.338852,190228696429.8968
4.9994477633122765,6975318393732186.0,7961755934174846.0,480464349333089.0,505759617009046.9,448084637.0189326,792725263.8419518,10159354221.19453,202173936400.06915
5.199436718578522,7114135164757216.0,8120212815634693.0,490026136451792.1,515824808729532.5,475635092.4452003,841465927.7142924,10784001527.937292,214604593606.9502
5.403425452950093,7252991474359451.0,8278715354105095.0,499590647012739.5,525892867274815.9,504293655.25050366,892166990.8633833,11433772788.255554,227535224642.15533
5.611493962009095,7391937985626263.0,8437321391698033.0,509161370721483.2,535967466074872.0,534093661.2724618,944887429.1277165,12109423820.743172,240980870508.1048
5.823723841249277,7531022658970571.0,8596085686250411.0,518741611121643.94,546052082596777.7,565069545.9081589,999688163.6232743,12811735374.151945,254957068324.40326
6.040198318074262,7670291010138282.0,8755060205823348.0,528334503366629.94,556150017052063.9,597256871.4122132,1056632109.0377545,13541513746.31755,269479863644.625
6.261002284435747,7809786338905712.0,8914294389748447.0,537943029972460.75,566264408978893.6,630692355.51882,1115784224.2670712,14299591433.103405,284565823370.4687
6.486222330124463,7949549932436612.0,9073835380751144.0,547570034825129.4,576398251986869.0,665413901.3674992,1177211565.358293,15086827806.903202,300232049254.1355
6.715946776726952,8089621246649586.0,9233728231976112.0,557218235673302.5,586554406907447.4,701460628.7196169,1240983340.7361624,15904109824.409197,316496191983.1066
6.950265712261491,8230038068437003.0,9394016092157480.0,566890235302057.5,596735613555944.0,738872906.4590869,1307170968.7015114,16752352763.496756,333376465844.3395
7.18927102650672,8370836661153804.0,9554740371694042.0,576588531554256.9,606944501280515.1,777692386.3761716,1375848137.1996474,17632500989.199745,350891663967.38416
7.433056447036854,8512051895443080.0,9715940891988654.0,586315526341881.4,617183598447907.0,817962038.2380111,1447090865.8651636,18545528748.860558,369061174148.07916
7.681717575977592,8653717367170888.0,9877656020074930.0,596073533769469.0,627455340994568.8,859726186.1538186,1520977570.3572135,19492440996.633583,387904995256.3952
7.935351927497144,8795865503995922.0,1.003992279027247e+16,605864787474690.9,637762080153716.4,903030546.2463868,1597589129.0057957,20474274247.60674,407443754233.67224
8.194058966047088,8938527661891624.0,1.0202777014374672e+16,615691447276855.4,648106089453835.1,947922265.6449044,1677008951.795684,21492097461.88025,427698723686.0361
8.45794014536803,9081734212762118.0,1.0366253381671622e+16,625555605211959.2,658489571071476.9,994449962.8171699,1759323051.7198958,22547012959.014637,448691840082.14667
8.72709894827539,9225514624143718.0,1.053038554994028e+16,635459291022571.4,668914661610169.4,1042663769.2620137,1844620118.5395887,23640157363.317368,470445722564.6642
9.0016409272409,9369897531856760.0,1.0695206228389002e+16,645404477162130.6,679383437368183.5,1092615372.5853136,1932991594.99174,24772702580.50033,492983692385.9889
9.281673745785717,9514910806362824.0,1.0860747253418038e+16,655393083365689.1,689897919149900.2,1144358060.9853773,2024531755.4902067,25945856806.29165,516329792979.9039
9.567307220701432,9660581613490000.0,1.1027039657952328e+16,665426980832692.4,700460076668822.2,1197946769.1756325,2119337787.3695395,27160865567.634777,540508810681.7242
9.85865336511546,9806936470107500.0,1.1194113735010652e+16,675507996061885.8,711071832584364.5,1253438125.7747092,2217509874.724897,28419012797.158417,565546296110.5294
10.155826432417769,9954001295262198.0,1.1361999096095392e+16,685637914373638.6,721735066209629.8,1310890502.1959198,2319151284.9045715,29721621941.642258,591468586227.9209
10.458942961066125,1.0101801457229714e+16,1.153072472492018e+16,695818483150841.0,732451616922924.8,1370364063.0701191,2424368457.7153325,31070057105.247887,618302827088.6338
10.768121820287448,1.0250361816880044e+16,1.1700319026931522e+16,706051414825967.0,743223287312084.6,1431920818.237722,2533271097.4037304,32465724228.327774,646076997299.1403
11.083484256693197,1.0399706767713092e+16,1.1870809875030638e+16,716338389638747.5,754051846077335.1,1495624676.3473709,2645972267.479927,33910072302.66169,674819932201.1846
11.405153941827061,1.0549860272880054e+16,1.204222465185524e+16,726681058186207.1,764939030715577.2,1561541500.100603,2762588488.4534917,35404594624.012596,704561348797.9647
11.733257020663602,1.0700845899470758e+16,1.2214590288942224e+16,737081043784426.6,775886550006498.8,1629739163.18349,2883239838.5536437,36950830082.9309,735331871441.4904
12.067922161076874,1.0852686850319484e+16,1.2387933303057962e+16,747539944659326.0,786896086318687.1,1700287608.9278612,3008050057.5094867,38550364494.77379,767163058300.313
12.409280604298411,1.1005405993551956e+16,1.256227982995201e+16,758059335981889.4,797969297752009.0,1773258910.7465212,3137146653.4685616,40204831969.94566,800087428627.665
12.75746621638438,1.1159025890075672e+16,1.2737655655763754e+16,768640771761721.5,809107820130852.8,1848727334.3883274,3270661013.1351767,41915916325.400764,834138490850.7294
13.112615540712067,1.131356881919349e+16,1.291408624628806e+16,779285786611310.2,820313268861290.9,1926769402.060822,3408728515.212545,43685352538.48814,869350771502.5311
13.474867851526309,1.1469056802502774e+16,1.3091596774284826e+16,789995897392234.2,831587240663932.9,2007463958.4696379,3551488647.236044,45514928244.25496,905759845018.6609
13.844365208556836,1.162551162622594e+16,1.327021214499934e+16,800772604753287.5,842931315193047.4,2090892238.825578,3699085125.887638,47406485277.3644,943402364421.8129
14.221252512727972,1.1782954862104394e+16,1.3449957020043744e+16,811617394569690.6,854347056551534.6,2177137938.871945,3851666020.884291,49361921259.81659,982316092917.8442
14.605677562982532,1.194140788697499e+16,1.3630855839775656e+16,822531739291502.1,865836014710330.4,2266287286.9864063,4009383882.536653,51383191235.705925,1022539936427.8147
14.997791114242183,1.210089190113626e+16,1.3812932844296518e+16,833517099208715.5,877399726840107.0,2358429118.413169,4172395873.0765276,53472309354.27922,1064113977081.2716
15.397746936527026,1.2261427945602458e+16,1.3996212093181646e+16,844574923639717.8,889039718562305.8,2453654951.683305,4340863901.855489,55631350602.60467,1107079507696.7192
15.805701875257567,1.2423036918333722e+16,1.4180717484042618e+16,855706652049243.5,900757505125943.8,2552059067.2823997,4514954764.51937,57862452589.193954,1151479067276.1077
16.221815912762718,1.2585739589522932e+16,1.436647277001409e+16,866913715101330.8,912554592516010.6,2653738588.6266727,4694840286.266754,60167817379.965324,1197356477540.871
16.64625223101797,1.2749556616012498e+16,1.4553501576248616e+16,878197535652374.5,924432478498783.9,2758793565.4105196,4880697469.302919,62549713387.97135,1244756880537.8447
17.079177275638333,1.2914508554907622e+16,1.474182741549568e+16,889559529688798.4,936392653608899.8,2867327059.389996,5072708644.603219,65010477318.35847,1293726777344.31
17.5207608211511,1.3080615876446928e+16,1.4931473702834022e+16,901001107213606.4,948436602082557.5,2979445232.6688666,5271061628.103916,67552516170.06433,1344314067902.0571
17.97117603757412,1.3247898976186018e+16,1.5122463769621138e+16,912523673085585.5,960565802740902.5,3095257438.555411,5475949881.441157,70178309295.80357,1396568092011.3875
18.430599558325603,1.3416378186544376e+16,1.5314820876717382e+16,924128627814673.1,972781729827281.6,3214876315.0603137,5687572677.362252,72890410521.93224,1450539671516.5432
18.899211549492115,1.358607378776197e+16,1.5508568227037424e+16,935817368316638.9,985085853801647.0,3338417881.10758,5906135269.936791,75691450329.82503,1506281153715.296
19.37719578048196,1.3757006018307814e+16,1.570372897747797e+16,947591288630048.6,997479642095268.1,3466001635.532562,6131849069.698594,78584138100.4423,1563846456025.8691
19.864739696091597,1.392919508477882e+16,1.5900326250264254e+16,959451780598100.5,1009964559828466.1,3597750658.9429307,6364931823.852542,81571264423.80917,1623291111945.4604
20.36203449001343,1.4102661171324232e+16,1.6098383143757274e+16,971400234517773.6,1022542070493939.6,3733791718.5204344,6605607801.684155,84655703475.16762,1684672318335.538
20.869275179813698,1.4277424448626956e+16,1.6297922742756332e+16,983438039758482.1,1035213636607985.6,3874255375.843181,6854107985.312898,87840415459.61241,1748048984069.6943
21.38666068340997,1.4453505082470974e+16,1.6498968128330432e+16,995566585352203.8,1047980720331695.8,4019276097.810017,7110670265.933608,91128449127.05981,1813481780081.044
21.91439389707817,1.4630923241920198e+16,1.6701542387208244e+16,1007787260556830.2,1060844784063981.8,4168992370.750544,7375539645.693701,94522944359.44122,1881033190846.5984
22.452681775019734,1.4809699107131592e+16,1.6905668620751466e+16,1020101455394355.8,1073807291008067.6,4323546817.806056,7648968445.357117,98027134832.05379,1950767567347.249
23.00173541052013,1.498985287682234e+16,1.7111369953535614e+16,1032510561165212.0,1086869705712930.4,4483086319.668398,7931216517.909016,101644350751.0469,2022751181542.4329
23.561770118730532,1.517140477540789e+16,1.7318669541556366e+16,1045015970939942.0,1100033494590852.6,4647762138.765423,8222551468.257884,105378021669.04726,2097052282399.521
24.133005521105144,1.5354375059824604e+16,1.752759058007771e+16,1057619080029151.8,1113300126412099.6,4817730046.983033,8523248879.194566,109231679380.96664,2173741153518.496
24.715665631527248,1.5538784026047242e+16,1.773815631113345e+16,1070321286432433.5,1126671072777500.0,4993150457.01547,8833592543.769907,113208960902.06714,2252890172393.095
25.309978944157795,1.5724652015308178e+16,1.7950390030690448e+16,1083123991266752.2,1140147808569376.0,5174188557.435961,9153874704.254515,117313611530.376,2334573871350.0825
25.91617852304095,1.5911999420021412e+16,1.8164315095475916e+16,1096028599174497.8,1153731812381070.5,5361014451.581043,9484396297.845306,121549487995.56306,2418869000208.6196
26.53450209350177,1.6100846689410358e+16,1.8379954929469428e+16,1109036518711123.9,1167424566925006.5,5553803300.342169,9825467209.284834,125920561696.40135,2505854590701.866
27.165192135371807,1.6291214334833248e+16,1.859733303005077e+16,1122149162711971.2,1181227559418813.5,5752735468.957905,10177406530.55782,130430922028.92732,2595612022702.8877
27.808495978079243,1.6483122934795448e+16,1.8816472973793364e+16,1135367948637518.2,1195142281948763.8,5957996677.899613,10540542827.830114,135084779807.40762,2688225092296.7236
28.464665897640828,1.6676593139632634e+16,1.903739842188297e+16,1148694298895950.0,1209170231809306.2,6169778157.942129,10915214415.791363,139886470780.18594,2783780081739.809
29.133959215593645,1.687164567584111e+16,1.9260133125136716e+16,1162129641141456.2,1223312911817093.2,6388276809.509285,11301769639.560112,144840459242.44223,2882365831347.1587
29.816638399905518,1.7068301350027158e+16,1.9484700928588268e+16,1175675408546237.5,1237571830597285.5,6613695366.380453,11700567164.305056,149951341747.8264,2984073813346.281
30.51297116790363,1.7266581052437026e+16,1.9711125775597716e+16,1189333040043678.5,1251948502839535.5,6846242563.841744,12111976272.728497,155223850920.8525,3088998207735.1924
31.223230591261704,1.7466505760023834e+16,1.993943171143377e+16,1203103980539576.5,1266444449520338.5,7086133311.359093,12536377170.55047,160662859371.81088,3197235980179.655
31.947695203086937,1.7668096538996622e+16,2.016964288626809e+16,1216989681087738.8,1281061198087873.2,7333588869.845475,12974161300.120272,166273383715.83487,3308886961981.8325
32.686649107148675,1.787137454678898e+16,2.0401783557508812e+16,1230991599025567.5,1295800282604719.8,7588837033.586267,13425731662.268671,172060588697.56543,3424053932149.3486
33.44038208929165,1.8076361033373812e+16,2.063587809139011e+16,1245111198064637.5,1310663243843209.0,7852112316.877618,13891503146.49858,178029791422.66974,3542842701589.334
34.20918973107749,1.8283077341840772e+16,2.087195096372263e+16,1259349948330448.8,1325651629327278.0,8123656145.422361,14371902869.592232,184186465697.21008,3665362199447.587
34.993373525699035,1.849154490814156e+16,2.111002675969612e+16,1273709326344912.5,1340766993314003.8,8403717052.514793,14867370522.690487,190536246475.58344,3791724561606.693
35.793240996213015,1.87017852598977e+16,2.135013017261442e+16,1288190814944198.5,1356010896707157.2,8692550880.031527,15378358726.87503,197084934417.41122,3922045221351.02
36.60910581613728,1.8913820014152536e+16,2.1592286001427744e+16,1302795903123907.5,1371384906894208.8,8990420984.228518,15905333397.253101,203838500553.3925,4056443002198.4585
37.44128793246003,1.912767087393954e+16,2.1836519146916244e+16,1317526085802696.2,1386890597497509.5,9297598446.326153,16448774115.51343,210803091059.69754,4195040212890.5796
38.29011369110923,1.934335962352577e+16,2.2082854606363276e+16,1332382863494638.8,1402529548029399.2,9614362287.842451,17009174510.88154,217985032140.00107,4337962744523.325
39.15591596493141,1.956090812217952e+16,2.2331317466546876e+16,1347367741879919.5,1418303343440311.8,9940999690.611237,17587042649.364452,225390835013.73386,4485340169789.516
40.03903428423004,1.9780338296299176e+16,2.258193289486297e+16,1362482231262711.8,1434213573548085.2,10277806221.396797,18182901431.12624,233027201008.51788,4637305844293.205
40.93981496991464,2.000167212973262e+16,2.283472612838462e+16,1377727845904316.8,1450261832336021.2,10625086060.986841,18797288995.787064,240901026754.13904,4793997009882.664
41.85861126931294,2.0224931652104508e+16,2.3089722460650984e+16,1393106103219180.2,1466449717106554.5,10983152237.616451,19430759135.384064,249019409474.69193,4955554899935.267
42.7957834946992,2.045013892496454e+16,2.334694722596969e+16,1408618522820756.8,1482778827476885.5,11352326864.54129,20083881714.672832,257389652374.78748,5122124846512.452
43.751699164593184,2.0677316025560544e+16,2.3606425781010596e+16,1424266625403785.0,1499250764202415.2,11732941381.543093,20757243098.386436,266019270114.90543,5293856389286.816
44.72673314788505,2.0906485028037076e+16,2.3868183483463704e+16,1440051931449248.2,1515867127813527.8,12125336800.113804,21451446585.000774,274915994370.1287,5470903386126.572
