t(s),Total solute volume 1,Total retention volume 1,Total 1 volume 1,Total 2 volume 1,Total 3 volume 1,Total 4 volume 1,Total 5 volume 1,Total 6 volume 1
0.1,1301436301972856.8,2401541677724917.5,422763850992510.6,677341524759550.8,0.0,0.0,0.0,-2.162416271574588e-76
0.202,1878811523624882.5,3714135719570722.5,610320779689948.4,977840603061677.1,59322853722.74739,200259989880.0842,6729188709336.183,240174041641274.88
0.30604000000000003,2269127686621861.5,4793217654413821.0,737112673536421.5,1180983409171667.0,144725278693.24414,488563597035.0405,16423804603792.176,588936791604353.0
0.41216080000000005,2563432033799893.5,5769823348176655.0,832715697507060.1,1334156185790231.8,247701750572.4798,836196225170.4966,28115312657623.617,1010320220446105.0
0.5204040160000001,2797552929686297.5,6692219202189892.0,908768483994239.1,1456006061622619.5,364056587959.1077,1228993992069.409,41326972997209.42,1486971703309495.5
0.6308120963200001,2989974469808326.5,7583867559578696.0,971275481938106.0,1556153214703489.2,491277311562.47064,1658475312897.414,55773383980758.93,2008541256523557.0
0.7434283382464002,3151711459504623.5,8458092761324876.0,1023814785561190.5,1640330377874467.8,627710827341.4586,2119059750710.1902,71266772524862.25,2568222595281672.5
0.8582969050113283,3289937814360072.5,9323264459681756.0,1068716798805155.6,1712271265816229.8,772208195234.9337,2606868806112.2466,87676627548159.73,3161282876150792.5
0.9754628431115548,3409615853897850.0,1.018503251961502e+16,1107593501741314.9,1774558552504149.0,923942479996.766,3119111012985.171,104909009357825.25,3784312548620905.0
1.094972099973786,3514330747426460.5,1.1047426630213722e+16,1141609515359910.8,1829058164431313.0,1082304621579.0299,3653730416396.9507,122894723403558.4,4434797444554498.5
1.2168715419732616,3606759537807521.0,1.1913450954436028e+16,1171634461160729.5,1877163387323114.0,1246839306905.1365,4209190088280.83,141582037627791.94,5110855501121687.0
1.3412089728127268,3688953662878415.0,1.2785429452769138e+16,1198334736561973.0,1919941906391957.8,1417203281635.98,4784331396365.167,160931948300268.34,5811065663958520.0
1.4680331522689813,3762518476675722.5,1.3665217923041248e+16,1222231831304959.0,1958229239414706.2,1593137112686.1978,5378278680239.858,180914973313713.7,6534351986539223.0
1.597393815314361,3828732268707708.0,1.4554340185836132e+16,1243740990158838.5,1992690681145528.5,1774445432973.2358,5990372561770.187,201508908679764.94,7279902519149542.0
1.729341691620648,3888627942483851.0,1.5454078854200402e+16,1263197745706381.8,2023863813477648.0,1960982754033.4236,6620122051524.827,222697217276849.06,8047111030450112.0
1.863928525453061,3943050694936783.5,1.6365537747013102e+16,1280876655162068.0,2052188525101732.2,2152643054230.4294,7267169400855.893,244467846333931.56,8835534213023502.0
2.001207095962122,3992699741612930.5,1.7289685961090068e+16,1297004854552722.5,2078028727673012.5,2349351997077.4585,7931263832727.402,266812343582301.44,9644859677839294.0
2.1412312378813647,4038159128362346.5,1.822738971678536e+16,1311772067712210.0,2101688391970723.8,2551061023810.38,8612241599653.994,289725186248671.5,1.047488163986794e+16
2.284055862638992,4079920892683097.5,1.9179435838117116e+16,1325338130106765.5,2123423602381757.0,2757742807823.084,9310010639031.154,313203264708530.44,1.132548219479012e+16
2.4297369798917723,4118402747281552.5,2.014654937747114e+16,1337838733234664.5,2143451760433341.2,2969387715525.166,10024538625964.88,337245480439363.1,1.2196616729740716e+16
2.578331719489608,4153961768025420.0,2.112940705885124e+16,1349389871076587.8,2161958708784024.8,3186001022083.81,10755843574459.945,361852429710736.1,1.3088302436657924e+16
2.7298983538794,4186905119330098.5,2.212864768151439e+16,1360091324173774.5,2179104313326066.8,3407600700900.742,11503986375444.672,387026152440558.25,1.4000609185167538e+16
2.884496320956988,4217498550724734.5,2.3144880278643296e+16,1370029419687108.2,2195026885282828.8,3634215654334.028,12269064824372.053,412769931171799.4,1.4933652211298124e+16
3.0421862473761276,4245973194610679.5,2.417869059413028e+16,1379279239608657.5,2209846719149778.0,3865884287416.841,13051208806732.686,439088129012131.2,1.5887586218654886e+16
3.2030299723236504,4272531053880297.0,2.523064628297649e+16,1387906403382097.5,2223668948764192.2,4102653350809.2925,13850576392467.707,465986058159115.7,1.68626005890475e+16
3.3670905717701234,4297349468317515.0,2.6301301131662812e+16,1395968518786456.2,2236585871874690.2,4344576996976.9565,14667350650215.371,493469872650026.75,1.7858915472386964e+16
3.5344323832055258,4320584777218612.5,2.739119851800209e+16,1403516371716755.2,2248678856377933.0,4591716006636.284,15501737036368.473,521546480456894.94,1.8876778579188876e+16
3.7051210308696363,4342375343723395.0,2.8500874275066612e+16,1410594908620084.2,2260019914353020.5,4844137152205.16,16353961246657.295,550223471148762.7,1.991646253882247e+16
3.879223451487029,4362844068111615.0,2.963085908401071e+16,1417244052925018.5,2270673010124307.5,5101912672283.839,17224267442573.0,579509056170613.8,2.097826271656429e+16
4.0568079205167695,4382100488847302.5,3.078168049143042e+16,1423499387553443.2,2280695153764695.0,5365119836720.246,18112916783610.5,609412019416411.4,2.2062495405228264e+16
4.237944078927105,4400242548723454.0,3.19538646252591e+16,1429392728642166.5,2290137320298045.5,5633840586047.313,19020186210601.434,639941676254514.9,2.3169496324544236e+16
4.422702960505647,4417358087169457.5,3.3147937666963332e+16,1434952610310162.2,2299045226381133.0,5908161232349.168,19946367436444.215,671107839534989.9,2.429961937489877e+16
4.61115701971576,4433526107287159.0,3.436442712551197e+16,1440204696247729.8,2307459989741481.0,6188172211156.327,20891766109123.66,702920791397328.9,2.545323560251796e+16
4.803380160110075,4448817856513276.5,3.5603862949191936e+16,1445172130763250.0,2315418691615705.0,6473967875964.72,21856701118647.77,735391259923578.5,2.6630732341381524e+16
4.9994477633122765,4463297752266364.0,3.6866778504102296e+16,1449875839474148.0,2322954858509044.0,6765646328546.976,22841504024838.688,768530399860659.4,2.783251250363869e+16
5.199436718578522,4477024178013908.5,3.815371144252553e+16,1454334787904560.8,2330098876514083.5,7063309279474.43,23846518587137.992,802349776777699.4,2.9058993995448612e+16
5.403425452950093,4490050170509527.5,3.946520447996759e+16,1458566204730273.0,2336878348988212.5,7367061934267.566,24872100380957.668,836861354137663.2,3.031060923928668e+16
5.611493962009095,4502424015220109.0,4.080180609618115e+16,1462585775199687.5,2343318406447895.5,7677012901395.211,25918616487817.96,872077482853801.8,3.158780478707047e+16
5.823723841249277,4514189763974103.0,4.216407117272395e+16,1466407809288819.0,2349441975982369.0,7993274118991.466,26986445248704.004,908010892975121.9,3.2891041011135844e+16
6.040198318074262,4525387686454607.0,4.3552561577401864e+16,1470045388366151.2,2355270016236422.5,8315960797686.422,28075976071851.555,944674687204951.6,3.422079186227025e+16
6.261002284435747,4536054665210353.0,4.4967846704172456e+16,1473510493509603.5,2360821722996664.5,8645191377376.032,29187609287622.04,982082336005499.0,3.5577544685785332e+16
6.486222330124463,4546224542269345.0,4.641050397565123e+16,1476814118101928.0,2366114709589043.5,8981087496109.486,30321756044317.902,1020247674081367.4,3.696180008806911e+16
6.715946776726952,4555928424140390.0,4.78811193142021e+16,1479966366908644.2,2371165165619051.5,9323773969561.984,31478838239768.992,1059184898067934.9,3.837407184725671e+16
6.950265712261491,4565194950919318.0,4.938028758664039e+16,1482976543495622.8,2375987997029979.5,9673378779801.354,32659288484328.918,1098908565277809.1,3.981488686265355e+16
7.18927102650672,4574050534334660.0,5.090861302679862e+16,1485853227556782.2,2380596949995449.0,10030033072255.229,33863550091594.816,1139433593381145.5,4.128478513836673e+16
7.433056447036854,4582519568835962.0,5.246670963956206e+16,1488604343484893.8,2385004720781848.0,10393871159952.562,35092077093722.3,1180775260914555.8,4.278431979729112e+16
7.681717575977592,4590624619219028.0,5.405520158945055e+16,1491237221320544.0,2389223053399233.5,10765030534250.691,36345334278677.516,1222949208528995.8,4.4314057122169784e+16
7.935351927497144,4598386587773777.0,5.567472357637812e+16,1493758651049112.0,2393262826594581.0,11143651881377.133,37623797247160.03,1265971440900430.8,4.587457662093168e+16
8.194058966047088,4605824863513108.0,5.732592120085689e+16,1496174931076874.0,2397134131519035.5,11529879104212.033,38927952487263.195,1309858329238018.5,4.746647111391838e+16
8.45794014536803,4612957455682397.0,5.900945132059934e+16,1498491911600800.0,2400846341213877.0,11923859348821.088,40258297465217.08,1354626614334213.8,4.909034684095406e+16
8.72709894827539,4619801113445712.0,6.072598240021637e+16,1500715033487887.5,2404408172902053.5,12325743035318.68,41615340730797.52,1400293410108966.2,5.074682358650569e+16
9.0016409272409,4626371433387696.0,6.2476194855487496e+16,1502849363196534.0,2407827743938314.0,12735683892700.248,42999602036185.734,1446876207607128.0,5.243653482142891e+16
9.281673745785717,4632682956251914.0,6.426078139349629e+16,1504899624201389.5,2411112622157345.0,13153838997335.223,44411612467235.94,1494392879413970.0,5.416012786000704e+16
9.567307220701432,4638749254149937.0,6.608044734976565e+16,1506870225322737.8,2414269871262391.0,13580368814853.637,45851914586255.18,1542861684458546.8,5.591826403117092e+16
9.85865336511546,4644583009316664.0,6.793591102339533e+16,1508765286309685.0,2417306091814002.0,14015437245198.582,47321062585525.766,1592301273179086.8,5.7711618862945144e+16
10.155826432417769,4650196085350714.0,6.982790401108899e+16,1510588660982172.2,2420227458307612.5,14459211670647.709,48819622450910.19,1642730693028080.0,5.954088227929881e+16
10.458942961066125,4655599591761471.0,7.175717154086125e+16,1512343958198728.2,2423039752767514.5,14911863006635.51,50348172134971.086,1694169394298031.0,6.140675880869385e+16
10.768121820287448,4660803942543699.0,7.372447280613227e+16,1514034560884045.2,2425748395232404.5,15373565755231.377,51907301739121.164,1746637236251432.5,6.330996780372642e+16
11.083484256693197,4665818909412788.0,7.573058130084555e+16,1515663643322166.5,2428358471462099.5,15844498061150.277,53497613704386.65,1800154493541075.2,6.52512436713419e+16
11.405153941827061,4670653670258818.0,7.777628515618027e+16,1517234186896502.0,2430874758155754.5,16324841770189.598,55119723010432.78,1854741862908636.8,6.7231336113179976e+16
11.733257020663602,4675316853311585.0,7.986238747938258e+16,1518748994436558.5,2433301745937887.5,16814782490003.01,56774257382546.73,1910420470151552.2,6.925101037567231e+16
12.067922161076874,4679816577452001.0,8.198970669518672e+16,1520210703312859.2,2435643660338731.5,17314509653134.844,58461857506328.49,1967211877349523.5,7.1311047509574104e+16
12.409280604298411,4684160489055322.0,8.415907689026411e+16,1521621797405275.0,2437904480969561.5,17824216582251.3,60183177249872.86,2025138090343507.5,7.341224463865826e+16
12.75746621638438,4688355795708650.0,8.637134816109874e+16,1522984618055923.0,2440087959071188.0,18344100557514.93,61938883893268.74,2084221566461270.2,7.555541523735075e+16
13.112615540712067,4692409297106709.0,8.862738696566054e+16,1524301374105488.0,2442197633593916.5,18874362886058.77,63729658365268.5,2144485222484564.0,7.774138941711846e+16
13.474867851526309,4696327413396878.0,9.092807647922357e+16,1525574151100961.0,2444236845949895.0,19415208973523.934,65556195487011.625,2205952442854015.8,7.997101422146152e+16
13.844365208556836,4700116211215303.0,9.327431695464936e+16,1526804919753283.0,2446208753563817.0,19966848397633.25,67419204222710.51,2268647088108623.5,8.2245153929388e+16
14.221252512727972,4703781427629672.0,9.566702608743936e+16,1527995543715029.0,2448116342334088.5,20529494983778.35,69319407937227.555,2332593503557498.5,8.456469036728208e+16
14.605677562982532,4707328492182082.0,9.810713938584576e+16,1529147786740903.2,2449962438105215.5,21103366882604.438,71257544660495.22,2397816528182205.5,8.69305232290921e+16
14.997791114242183,4710762547204994.0,1.0059561054630874e+17,1530263319287262.0,2451749717241378.0,21688686649582.656,73234367358744.86,2464341503768557.5,8.934357040479829e+16
15.397746936527026,4714088466565707.0,1.0313341183448394e+17,1531343724601130.2,2453480716382130.5,22285681326562.95,75250644212529.81,2532194284267343.0,9.18047683171285e+16
15.805701875257567,4717310872978943.0,1.0572153447210466e+17,1532390504344106.8,2455157841452843.5,22894582525306.438,77307158901539.31,2601401245383952.5,9.431507226651798e+16
16.221815912762718,4720434154013179.0,1.0836098902992115e+17,1533405083791923.2,2456783375995356.5,23515626512998.81,79404710896213.67,2671989294397221.5,9.68754567843143e+16
16.64625223101797,4723462476904168.0,1.110528058269477e+17,1534388816646527.2,2458359488877729.0,24149054299750.195,81544115756186.94,2743985880208280.5,9.948691599425509e+16
17.079177275638333,4726399802277604.0,1.1379803533624107e+17,1535342989493795.8,2459888241436330.0,24795111728089.746,83726205435584.84,2817419003620573.0,1.0215046398224904e+17
17.5207608211511,4729249896873441.0,1.1659774859742872e+17,1536268825936986.0,2461371594098307.5,25454049564467.137,85951828595226.6,2892317227852442.0,1.0486713517450778e+17
17.97117603757412,4732016345355404.0,1.194530376362022e+17,1537167490432961.2,2462811412527906.5,26126123592773.492,88221850921779.64,2968709689284093.0,1.0763798472408754e+17
18.430599558325603,4734702561281348.0,1.2236501589098402e+17,1538040091855844.0,2464209473336100.0,26811594709899.754,90537155453928.1,3046626108440983.0,1.1046408890590592e+17
18.899211549492115,4737311797303080.0,1.2533481864697258e+17,1538887686810385.5,2465567469389131.0,27510729023349.355,92898642915626.17,3126096801215914.0,1.1334654552031515e+17
19.37719578048196,4739847154657953.0,1.283636034777725e+17,1539711282715250.8,2466887014748506.5,28223797950927.098,95307232056505.36,3207152690332383.5,1.1628647430531083e+17
19.864739696091597,4742311592009001.0,1.3145255069480766e+17,1540511840674668.0,2468169649271900.5,28951078322526.52,97763859999526.58,3289825317051981.5,1.1928501735747802e+17
20.36203449001343,4744707933684952.0,1.3460286380471832e+17,1541290278155165.8,2469416842901716.0,29692852484038.793,100269482595955.22,3374146853128753.0,1.2234333956176776e+17
20.869275179813698,4747038877367269.0,1.3781576997494042e+17,1542047471482650.5,2470629999665872.5,30449408403411.1,102825074787762.17,3460150113013795.0,1.2546262903021973e+17
21.38666068340997,4749307001266866.0,1.4109252050766418e+17,1542784258173735.8,2471810461412994.5,31221039778879.855,105431630977544.8,3547868566313367.5,1.2864409754974083e+17
21.91439389707817,4751514770829809.0,1.4443439132236842e+17,1543501439114030.0,2472959511302399.5,32008046149409.863,108090165406073.06,3637336350504100.5,1.3188898103906274e+17
22.452681775019734,4753664545007452.0,1.4784268344713034e+17,1544199780594968.0,2474078377067485.5,32810733007367.43,110801712537574.92,3728588283908980.5,1.3519854001500653e+17
23.00173541052013,4755758582123922.0,1.513187235189025e+17,1544880016219817.0,2475168234069445.5,33629411913461.492,113567327452869.3,3821659878938056.5,1.3857406006818486e+17
23.561770118730532,4757799045370663.0,1.548638642929614e+17,1545542848688566.5,2476230208157032.0,34464400613983.5,116388086250471.1,3916587355597728.5,1.420168523482828e+17
24.133005521105144,4759788007955717.0,1.5847948516171894e+17,1546188951470618.0,2477265378346443.5,35316023160382.086,119265086455788.02,4013407655273022.5,1.455282540590571e+17
24.715665631527248,4761727457932560.0,1.6216699268310237e+17,1546818970373420.8,2478274779334574.5,36184610031206.055,122199447438538.92,4112158454786957.0,1.4910962896320515e+17
25.309978944157795,4763619302731836.0,1.6592782111869805e+17,1547433525014568.2,2479259403857589.5,37070498256454.07,125192310838526.36,4212878180741570.0,1.527623678972573e+17
25.91617852304095,4765465373417164.0,1.697634329818626e+17,1548033210204276.5,2480220204905880.5,37974031544366.22,128244840999895.6,4315606024145195.5,1.5648788929664573e+17
26.53450209350177,4767267428684376.0,1.7367531959600803e+17,1548618597244518.0,2481158097805489.5,38895560410698.695,131358225414024.05,4420381955330653.0,1.6028763973111875e+17
27.165192135371807,4769027158622387.0,1.7766500166325888e+17,1549190235150713.0,2482073962175509.0,39835442310518.61,134533675171182.23,4527246739169263.0,1.641630944506597e+17
27.808495978079243,4770746188252073.0,1.817340298436934e+17,1549748651801305.0,2482968643769878.5,40794041772561.2,137772425421115.06,4636241950585712.0,1.6811575794209024e+17
28.464665897640828,4772426080858464.0,1.858839853453752e+17,1550294355020215.5,2483842956211675.5,41771730536190.32,141075735842692.5,4747409990378617.0,1.7214716449652746e+17
29.133959215593645,4774068341130351.0,1.9011648052539e+17,1550827833596731.2,2484697682627148.5,42768887691004.914,144444891122786.97,4860794101352550.0,1.7625887878786954e+17
29.816638399905518,4775674418120332.0,1.9443315950209184e+17,1551349558247041.8,2485533577186276.0,43785899819134.55,147881201444533.28,4976438384766169.0,1.8045249646250813e+17
30.51297116790363,4777245708037276.0,1.9883569877878282e+17,1551859982521362.0,2486351366556124.0,44823161140268.85,151386002985135.47,5094387817102573.0,1.8472964474043987e+17
31.223230591261704,4778783556882280.0,2.033258078790412e+17,1552359543660216.5,2487151751272790.5,45881073659465.72,154960658423383.16,5214688267167082.0,1.890919830279757e+17
31.947695203086937,4780289262938602.0,2.079052299939152e+17,1552848663403262.5,2487935407037238.5,46960047317784.69,158606557457047.2,5337386513518281.0,1.9354120354224243e+17
32.686649107148675,4781764079124809.0,2.1257574264120694e+17,1553327748753710.2,2488702985940068.5,48060500145791.68,162325117330330.62,5462530262238164.0,1.9807903194767405e+17
33.44038208929165,4783209215220226.0,2.1733915833707686e+17,1553797192701241.0,2489455117619753.0,49182858419984.914,166117783371543.5,5590168165047355.0,2.0270722800469683e+17
34.20918973107749,4784625839970836.0,2.2219732528018576e+17,1554257374906090.5,2490192410358638.5,50327556822187.984,169986029541186.03,5720349837771337.0,2.074275862308154e+17
34.993373525699035,4786015083083059.0,2.271521280486156e+17,1554708662346730.8,2490915452120679.5,51495038601962.41,173931358990624.28,5853125879164011.0,2.1224193657430858e+17
35.793240996213015,4787378037112744.0,2.3220548830979866e+17,1555151409933492.5,2491624811534525.5,52685755742087.51,177955304631539.12,5988547890094826.0,2.171521451007498e+17
36.60910581613728,4788715759255771.0,2.3735936554369066e+17,1555585961090217.0,2492321038825476.0,53900169127161.78,182059429716339.22,6126668493106006.0,2.2216011469256963e+17
37.44128793246003,4790029273046450.0,2.42615757779428e+17,1556012648305987.5,2493004666699399.5,55138748715374.23,186245328429737.44,6267541352346030.0,2.2726778576188493e+17
38.29011369110923,4791319569969250.0,2.4797670234571565e+17,1556431793658694.0,2493676211181651.0,56401973713502.56,190514626491679.28,6411221193886684.0,2.324771369768142e+17
39.15591596493141,4792587610989532.0,2.5344427663518352e+17,1556843709312261.8,2494336172413619.5,57690332755188.38,194868981771825.3,6557763826429715.0,2.3779018600151133e+17
40.03903428423004,4793834328007685.0,2.590205988829678e+17,1557248697989048.8,2494985035409686.5,59004324082546.195,199310084915794.47,6707226162410569.0,2.432089902501525e+17
40.93981496991464,4795060625241878.0,2.6470782895976512e+17,1557647053418978.2,2495623270776744.0,60344455731160.76,203839659983372.1,6859666239505816.0,2.4873564765510707e+17
41.85861126931294,4796267380543028.0,2.7050816917961344e+17,1558039060766757.0,2496251335398724.5,61711245718528.8,208459465098891.84,7015143242551628.0,2.543722974495356e+17
