t(s),Total solute volume 1,Total retention volume 1,Total 1 volume 1,Total 2 volume 1,Total 3 volume 1,Total 4 volume 1,Total 5 volume 1,Total 6 volume 1
0.1,1198922522623410.5,1797285705327306.5,247551059597552.8,350812123106343.5,0.0,0.0,0.0,0.0
0.202,1647595261035163.5,2887367892455869.5,340192089968828.1,482096565841332.1,182691666302.9561,510663411855.65027,12983180377652.922,403807440154733.7
0.30604000000000003,1911225732357417.0,3844334037243538.5,394625969998975.4,559236479605970.0,428074440796.9683,1196579047106.6445,30425065247469.65,947196136545804.2
0.41216080000000005,2088457606019195.5,4752677657377308.0,431220444455160.75,611095626933214.4,708675186588.6716,1980956116980.473,50371505522379.39,1568842843143788.8
0.5204040160000001,2216535539082320.8,5641626042660403.0,457665713933680.75,648572026203214.2,1012912434195.5171,2831424235950.919,71999098663284.92,2243009328107763.5
0.6308120963200001,2313551975633320.5,6524702811811746.0,477697469232376.3,676959638832033.9,1334864859829.6145,3731433941204.95,94886889868765.2,2956540539444209.5
0.7434283382464002,2389569683479058.5,7409296642815861.0,493393450031589.7,699202893089010.8,1671181907723.7124,4671621444776.026,118796695944434.03,3701991116919274.0
0.8582969050113283,2450692577303804.0,8299922203572673.0,506013980129641.75,717087832266478.9,2019846195884.86,5646349406130.093,143585117476497.34,4474876500794242.0
0.9754628431115548,2500858018857456.0,9199578550656374.0,516372037914546.3,731766552836397.6,2379594745676.9272,6652089203099.481,169162392153659.0,5272387864945540.0
1.094972099973786,2542726622721529.0,1.0110395710942458e+16,525016981635273.94,744017567134213.0,2749619531939.8325,7686583937446.637,195471105923545.06,6092727230058504.0
1.2168715419732616,2578163409168684.0,1.1033973432210018e+16,532333896858111.5,754386591667713.0,3129400842997.392,8748382659622.911,222474345887817.6,6934737405125073.0
1.3412089728127268,2608515326998066.0,1.1971572060659742e+16,538600898812943.7,763267752018672.5,3518609221226.14,9836566284199.02,250148728753552.75,7797684178571082.0
1.4680331522689813,2634779677173050.0,1.2924226452704668e+16,544023908160809.06,770952864643182.1,3917045127119.163,10950578946937.318,278480111174805.34,8681122267478752.0
1.597393815314361,2657710641916887.5,1.3892817201315546e+16,548758646903272.1,777662607945432.6,4324600427367.102,12090120362668.357,307460851666503.7,9584809732093414.0
1.729341691620648,2677889026111454.0,1.4878116933729574e+16,552925038443543.75,783566929043449.9,4741233044079.661,13255074970254.176,337088008226724.3,1.0508651623890074e+16
1.863928525453061,2695769268849205.0,1.5880821411806832e+16,556616914435402.25,788798799640740.8,5166949823396.029,14445464051884.738,367362120341450.56,1.145266189466474e+16
2.001207095962122,2711711941019692.0,1.6901571024912278e+16,559908724818290.94,793463725021721.9,5601794693437.641,15661412636894.16,398286367061242.56,1.2416937059660986e+16
2.1412312378813647,2726006708504296.5,1.7940966017004568e+16,562860279210733.9,797646463224983.1,6045840315900.897,16903126170904.584,429865973482693.7,1.340163762609505e+16
2.284055862638992,2738888875220363.5,1.8999577515389824e+16,565520162684197.8,801415865640666.2,6499182098699.281,18170873784578.023,462107785110583.8,1.440697477085075e+16
2.4297369798917723,2750551507723033.5,2.007795567904594e+16,567928239226057.4,804828424744245.0,6961933837036.805,19464976114226.133,495019958012640.7,1.543320063938872e+16
2.578331719489608,2761154459418269.0,2.117663582897618e+16,570117515040614.6,807930914637276.4,7434224498282.296,20785796319683.37,528611730309765.5,1.6480601188752316e+16
2.7298983538794,2770831181117649.0,2.229614313829537e+16,572115544778522.6,810762383858050.8,7916195823571.119,22133733385238.277,562893251746473.1,1.7549490847585858e+16
2.884496320956988,2779693926085693.5,2.3436996277147176e+16,573945506264279.8,813355678410750.1,8408000521375.626,23509217075401.457,597875455360718.5,1.8640208493428948e+16
3.0421862473761276,2787837773978512.5,2.459971028776721e+16,575627031350865.9,815738619194921.9,8909800896048.932,24912704106695.3,633569960090283.0,1.975311439814988e+16
3.2030299723236504,2795343774548079.5,2.578479888481127e+16,577176855025352.0,817934921872873.5,9421767800035.035,26344675224354.895,669988996401374.0,2.0888587893939216e+16
3.3670905717701234,2802281427503789.5,2.6992776321378028e+16,578609327445648.2,819964922492583.8,9944079829748.049,27805632960347.47,707145349251306.2,2.2047025581894616e+16
3.5344323832055258,2808710656227552.5,2.8224158923224636e+16,579936821469153.4,821846155009008.8,10476922706903.28,29296099909990.68,745052314245760.8,2.3228839953656304e+16
3.7051210308696363,2814683391666147.0,2.947946636696227e+16,581170059691602.0,823593814740831.8,11020488802440.19,30816617407383.13,783723663943149.5,2.4434458330710736e+16
3.879223451487029,2820244853172994.5,3.075922275893642e+16,582318378912664.1,825221133152739.2,11574976771147.234,32367744510516.273,823173622038580.6,2.566432205037777e+16
4.0568079205167695,2825434591702801.0,3.2063957557693004e+16,583389945532631.5,826739683100646.4,12140591273023.613,33950057229094.676,863416843723548.8,2.6918885845131228e+16
4.237944078927105,2830287345133992.5,3.339420637281891e+16,584391932157650.0,828159629104387.6,12717542763203.791,35564147944273.82,904468400929158.6,2.8198617374786268e+16
4.422702960505647,2834833743942363.0,3.4750511665458976e+16,585330663305764.2,829489933832191.8,13306047336543.188,37210624981471.016,946343771464618.5,2.9503996880596028e+16
4.61115701971576,2839100896826108.5,3.6133423370208856e+16,586211736325584.5,830738529458229.0,13906326616147.182,38890112306301.23,989058831289079.1,3.0835516937387424e+16
4.803380160110075,2843112879386177.0,3.754349945385191e+16,587040122298000.9,831912460653514.5,14518607677518.326,40603249320380.695,1032629849325093.4,3.2193682285191256e+16
4.9994477633122765,2846891144028913.0,3.898130642318066e+16,587820250672044.9,833018004525976.2,15143123001810.545,42350690738811.01,1077073484350971.2,3.357900972586213e+16
5.199436718578522,2850454865475816.5,4.044741979166391e+16,588556080605035.1,834060771718764.4,15780110453064.82,44133106535027.945,1122406783607837.5,3.4992028073268436e+16
5.403425452950093,2853821233345391.5,4.194242451279983e+16,589251161374287.2,835045792021517.1,16429813275366.816,45951181941684.85,1168647182833085.0,3.643327814800849e+16
5.611493962009095,2857005701001654.5,4.346691538649167e+16,589908683758827.8,835977587184983.9,17092480106694.504,47805617498547.17,1215812507490678.0,3.790331280945021e+16
5.823723841249277,2860022198086405.5,4.502149744360811e+16,590531523922644.4,836860233109294.1,17768365006867.477,49697129140180.19,1263920975014660.5,3.940269701932799e+16
6.040198318074262,2862883312751752.5,4.6606786312953224e+16,591122281041675.4,837697413166336.8,18457727497516.92,51626448317626.17,1312991197918265.2,4.093200793225995e+16
6.261002284435747,2865600448499305.5,4.82234085741295e+16,591683309687631.4,838492464091865.1,19160832612394.617,53594322149389.96,1363042187649413.0,4.249183500943953e+16
6.486222330124463,2868183959646599.5,4.987200209918238e+16,592216747798856.2,839248415623839.6,19877950956657.492,55601513597932.6,1414093359096093.5,4.408278015246248e+16
6.715946776726952,2870643268732137.0,5.155321638543405e+16,592724540921854.9,839968024855858.4,20609358774016.973,57648801668590.78,1466164535663088.0,4.570545785481846e+16
6.950265712261491,2872986968597697.0,5.326771288152863e+16,593208463289048.2,840653806107083.6,21355338020847.758,59736981628404.836,1519275954856091.2,4.7360495369029416e+16
7.18927102650672,2875222911423448.5,5.501616530839288e+16,593670136202561.8,841308056974469.1,22116176446513.176,61866865242800.09,1573448274320912.5,4.904853288778213e+16
7.433056447036854,2877358286614120.0,5.679925997655847e+16,594111044116001.4,841932881122741.6,22892167679298.68,64039281028438.75,1628702578294999.0,5.0770223737702936e+16
7.681717575977592,2879399689126013.5,5.86176961010829e+16,594532548742478.2,842530208277309.8,23683611317453.36,66255074520863.97,1685060384436236.5,5.252623458466241e+16
7.935351927497144,2881353179571523.0,6.047218611512578e+16,594935901464862.9,843101811811212.4,24490813024927.836,68515108555807.24,1742543651000290.5,5.431724564969709e+16
8.194058966047088,2883224337228767.5,6.236345598310086e+16,595322254281110.5,843649324256085.8,25314084631469.85,70820263563233.14,1801174784343051.8,5.614395093479716e+16
8.45794014536803,2885018306911311.5,6.42922455141938e+16,595692669481822.6,844174251016520.1,26153744236799.688,73171437873367.28,1860976646728924.5,5.80070584579451e+16
8.72709894827539,2886739840509035.0,6.625930867694472e+16,596048128227517.2,844677982525185.2,27010116318636.652,75569548034090.66,1921972564429379.5,5.990729049690095e+16
9.0016409272409,2888393333891452.5,6.826541391550612e+16,596389538168356.8,845161805040966.4,27883531844388.92,78015529139202.56,1984186336099096.8,6.1845383841322616e+16
9.281673745785717,2889982859764410.5,7.031134446811563e+16,596717740228331.6,845626910263046.6,28774328386355.75,80510335167150.34,2047642241419561.5,6.382209005288675e+16
9.567307220701432,2891512196986878.0,7.239789868826867e+16,597033514658523.5,846074403909172.5,29682850240317.223,83054939329907.77,2112365050001998.5,6.5838175733141864e+16
9.85865336511546,2892984856783406.0,7.452589036902002e+16,597337586449414.1,846505313385594.1,30609448547412.836,85650334431752.11,2178380030543388.2,6.789442279887902e+16
10.155826432417769,2894404106227976.5,7.669614907080632e+16,597630630179765.8,846920594658574.2,31554481419231.383,88297533237748.31,2245712960230706.2,6.999162876485237e+16
10.458942961066125,2895772989323787.0,7.890952045314386e+16,597913274369146.1,847321138422477.4,32518314066049.15,90997568851799.2,2314390134389858.0,7.213060703372078e+16
10.768121820287448,2897094345960600.0,8.116686661052462e+16,598186105392196.9,847707775646798.1,33501318928172.645,93751495104164.75,2384438376376868.5,7.431218719311571e+16
11.083484256693197,2898370828993958.0,8.346906641280893e+16,598449671005114.5,848081282573652.0,34503875810349.906,96560386948385.56,2455885047709753.5,7.653721531976784e+16
11.405153941827061,2899604919659367.5,8.58170158503938e+16,598704483528342.9,848442385228058.9,35526372019230.305,99425340867582.31,2528758058440434.0,7.880655429065083e+16
11.733257020663602,2900798941507216.0,8.821162838441042e+16,598951022723820.6,848791763495386.9,36569202503856.49,102347475290128.03,2603085877766615.0,8.112108410112331e+16
12.067922161076874,2901955073021070.5,9.065383530219682e+16,599189738400390.6,849130054813549.5,37632769999186.125,105327931014713.34,2678897544884214.5,8.34817021900636e+16
12.409280604298411,2903075359061961.5,9.314458607827134e+16,599421052776784.8,849457857521668.4,38717485172642.82,108367871644846.9,2756222680081547.0,8.588932377201186e+16
12.75746621638438,2904161721263808.0,9.568484874102624e+16,599645362628053.0,849775733901842.6,39823766773705.66,111468484032850.05,2835091496076743.5,8.834488217634926e+16
13.112615540712067,2905215967490383.0,9.827561024534598e+16,599863041238211.2,850084212946312.9,40952041786548.78,114630978733425.86,2915534809600547.5,9.084932919355054e+16
13.474867851526309,2906239800450866.0,1.009178768513514e+17,600074440179182.2,850383792878436.8,42102745585750.28,117856590466887.25,2997584053226768.5,9.340363542856349e+16
13.844365208556836,2907234825560244.0,1.0361267450946016e+17,600279890933774.4,850674943452673.8,43276322095090.336,121146578592154.83,3081271287453162.5,9.600879066137302e+16
14.221252512727972,2908202558120317.0,1.0636104925195122e+17,600479706378409.5,850958108055809.0,44473223949466.26,124502227589636.02,3166629213035801.0,9.866580421482166e+16
14.605677562982532,2909144429889053.5,1.0916406759121069e+17,600674182139551.4,851233705629175.9,45693912659949.984,127924847554113.14,3253691183580142.0,1.0137570532975864e+17
14.997791114242183,2910061795098154.5,1.120228169248403e+17,600863597836199.0,851502132429436.1,46938858782022.13,131415774697777.4,3342491218392410.0,1.0413954354760426e+17
15.397746936527026,2910955935972187.0,1.1493840594779771e+17,601048218219461.1,851763763643520.6,48208542087014.43,134976371863552.5,3433064015595106.5,1.0695838910041691e+17
15.805701875257567,2911828067796941.0,1.1791196507174405e+17,601228294219070.2,852018954871648.4,49503451736798.42,138608029048863.16,3525444965510554.5,1.0983333330856002e+17
16.221815912762718,2912679343579391.5,1.209446468517592e+17,601404063905549.4,852268043490868.0,50824086461756.836,142312163940008.1,3619670164316715.0,1.1276548898606493e+17
16.64625223101797,2913510858337309.5,1.2403762642060075e+17,601575753375939.1,852511349910232.6,52170954742078.75,146090222457308.25,3715776427979738.5,1.1575599085379811e+17
17.079177275638333,2914323653052574.0,1.2719210193066426e+17,601743577570049.0,852749178727548.8,53544574992420.09,149943679311202.78,3813801306467722.5,1.1880599596054282e+17
17.5207608211511,2915118718318616.5,1.3040929500381115e+17,601907741023590.4,852981819796645.2,54945475749972.01,153874038569478.22,3913783098250447.0,1.2191668411210258e+17
17.97117603757412,2915896997709458.5,1.336904511892288e+17,602068438563799.6,853209549213184.1,56374195865983.28,157882834235815.1,4015760865090008.5,1.2508925830855054e+17
18.430599558325603,2916659390895003.0,1.3703684042948336e+17,602225855952686.1,853432630226203.6,57831284700779.76,161971630839852.6,4119774447127399.0,1.2832494518974154e+17
18.899211549492115,2917406756524760.5,1.4044975753493011e+17,602380170482443.5,853651314081919.2,59317302322331.055,166142024038962.06,4225864478270265.0,1.3162499548920931e+17
19.37719578048196,2918139914900010.5,1.4393052266664094e+17,602531551527210.2,853865840805618.4,60832819708410.086,170395641231945.53,4334072401887151.5,1.3499068449658054e+17
19.864739696091597,2918859650452599.0,1.4748048182801587e+17,602680161054870.4,854076439926959.0,62378418952395.125,174734142184861.4,4444440486813832.0,1.3842331252863048e+17
20.36203449001343,2919566714046536.0,1.5110100736523754e+17,602826154102291.4,854283331153448.8,63954693472765.41,179159219669200.0,4557011843677245.0,1.4192420540911618e+17
20.869275179813698,2920261825117379.5,1.547934984767345e+17,602969679217061.9,854486724996429.4,65562248226338.83,183672600112629.16,4671830441542987.0,1.4549471495752144e+17
21.38666068340997,2920945673662696.0,1.5855938173181754e+17,603110878868468.1,854686823353501.6,67201699925305.17,188276044262535.2,4788941124892139.0,1.4913621948685328e+17
21.91439389707817,2921618922095846.0,1.6240011159865565e+17,603249889830271.8,854883820050958.8,68873677258105.09,192971347862593.22,4908389630933615.0,1.5285012431062397e+17
22.452681775019734,2922282206974144.5,1.663171709817498e+17,603386843537523.6,855077901349446.0,70578821114210.23,197760342342605.22,5030222607258051.0,1.5663786225917357e+17
23.00173541052013,2922936140611387.5,1.703120717690838e+17,603521866419529.1,855269246415812.6,72317784812853.77,202644895521846.6,5154487629839945.0,1.6050089420546234e+17
23.561770118730532,2923581312584036.0,1.7438635538910986e+17,603655080210830.2,855458027763811.1,74091234335770.56,207626912326168.72,5281233221393971.0,1.6444070960049514e+17
24.133005521105144,2924218291139279.0,1.785415933777384e+17,603786602241952.1,855644411666125.8,75899848563994.97,212708335519112.1,5410508870092664.0,1.6845882701851514e+17
24.715665631527248,2924847624512712.5,1.8277938795550966e+17,603916545711454.0,855828558539912.5,77744319518777.28,217891146447285.25,5542365048651714.0,1.7255679471212774e+17
25.309978944157795,2925469842162440.0,1.8710137261510774e+17,604045019940771.4,856010623307929.8,79625352606668.27,223177365800274.1,5676853233790181.0,1.7673619117749955e+17
25.91617852304095,2926085455926184.0,1.9150921271939706e+17,604172130613105.9,856190755737087.2,81543666868831.8,228569054385350.34,5814025926072259.0,1.8099862572979402e+17
26.53450209350177,2926694961106968.0,1.9600460611014922e+17,604297979997619.4,856369100756144.6,83499995234637.25,234068313917248.28,5953936670138102.0,1.8534573908899824e+17
27.165192135371807,2927298837492953.0,2.0058928372763856e+17,604422667159987.2,856545798754113.2,85495084779590.94,239677287823291.5,6096640075330723.0,1.8977920397629805e+17
27.808495978079243,2927897550316112.5,2.0526501024127946e+17,604546288160361.6,856720985860782.6,87529696987659.9,245398162064154.53,6242191836726642.0,1.9430072572116387e+17
28.464665897640828,2928491551154447.5,2.1003358469148134e+17,604668936239643.5,856894794210686.5,89604608018046.06,251233165970540.22,6390648756577642.0,1.9891204287931014e+17
29.133959215593645,2929081278781634.0,2.1489684114290224e+17,604790701994927.5,857067352191752.9,91720608976465.3,257184573096075.72,6542068766171560.0,2.0361492786168986e+17
29.816638399905518,2929667159968143.5,2.198566493492795e+17,604911673544906.6,857238784679680.2,93878506190988.27,263254702086719.7,6696510948119759.0,2.0841118757468896e+17
30.51297116790363,2930249610237117.0,2.249149154300115e+17,605031936685949.0,857409213259133.9,96079121492500.6,269445917566988.9,6854035559079620.0,2.133026640716903e+17
31.223230591261704,2930829034578336.5,2.3007358255868403e+17,605151575039522.5,857578756432654.9,98323292499835.58,275760631043313.2,7014704052919715.0,2.1829123521617043e+17
31.947695203086937,2931405828123255.5,2.3533463166370838e+17,605270670191561.4,857747529818174.6,100611872909637.11,282201301824828.56,7178579104336629.0,2.233788153565044e+17
32.686649107148675,2931980376783777.5,2.4070008214126992e+17,605389301824363.2,857915646335919.8,102945732791008.16,288770437961940.3,7345724632931127.0,2.28567356012642e+17
33.44038208929165,2932553057857299.5,2.4617199258075616e+17,605507547841528.1,858083216385467.0,105325758884999.06,295470597202971.6,7516205827753086.0,2.3385884657483082e+17
34.20918973107749,2933124240600479.0,2.5175246150286346e+17,605625484486413.5,858250348013618.0,107752854908993.56,302304387969231.94,7690089172323177.0,2.392553150145617e+17
34.993373525699035,2933694286773723.0,2.574436281105584e+17,605743186454570.9,858417147073724.5,110227941866042.44,309274470348845.56,7867442470140829.0,2.4475882860790048e+17
35.793240996213015,2934263551158544.5,2.632476730530849e+17,605860727000562.0,858583717377069.6,112751958359202.14,316383557109688.44,8048334870687250.0,2.5037149467139254e+17
36.60910581613728,2934832382049545.5,2.6916681920320474e+17,605978178039543.1,858750160836825.1,115325860910932.11,323634414731757.2,8232836895932754.0,2.5609546131070294e+17
37.44128793246003,2935401121722792.0,2.7520333244785766e+17,606095610243980.6,858916577605106.2,117950624287601.11,331029864459364.44,8421020467357905.0,2.6193291818218083e+17
38.29011369110923,2935970106882206.0,2.813595224924329e+17,606213093135804.9,859083066203575.2,120627241829156.38,338572783373478.44,8612958933497929.0,2.6788609726751107e+17
39.15591596493141,2936539669085364.5,2.8763774367883632e+17,606330695174354.5,859249723648048.6,123356725784006.34,346266105484611.94,8808727098020231.0,2.7395727366164e+17
40.03903428423004,2937110135150218.5,2.940403958175481e+17,606448483840327.6,859416645567495.0,126140107649168.14,354112822846596.56,9008401248344786.0,2.8014876637414947e+17
40.93981496991464,2937681827543894.5,3.0056992503385786e+17,606566525716080.0,859583926317805.1,128978438515726.89,362115986691653.5,9212059184817622.0,2.864629391442555e+17
41.85861126931294,2938255064754869.5,3.072288246284674e+17,606684886562455.1,859751659090689.6,131872789419658.14,370278708587118.4,9419780250447346.0,2.929022012696055e+17
42.7957834946992,2938830161649530.5,3.1401963595264986e+17,606803631392427.8,859919936018017.5,134824251698057.16,378604161614223.94,9631645361215626.0,2.994690084490619e+17
