t(s),Total solute volume 1,Total retention volume 1,Total 1 volume 1,Total 2 volume 1,Total 3 volume 1,Total 4 volume 1,Total 5 volume 1,Total 6 volume 1
0.1,1225891390677807.5,1918426285810987.5,281662698191601.44,410872196941578.9,0.0,0.0,0.0,0.0
0.202,1685218154404462.8,3079712325252226.0,387198331382395.3,564821116766134.0,166936546813.4326,487859904982.1538,13253287887661.814,428566638359774.44
0.30604000000000003,1955398274488211.2,4098734999362123.0,449275335405790.75,655375241121320.6,391265657548.2848,1143459386849.4697,31067925922306.99,1006083497380097.1
0.41216080000000005,2137165792332159.0,5065619954304026.0,491038522620054.94,716296815995974.9,647874791117.6677,1893409678311.3884,51447549336524.234,1667129989549891.5
0.5204040160000001,2268590132218982.5,6011616211897822.0,521234783147975.6,760345268373521.2,926161445557.806,2706727194530.415,73549839784904.52,2384263299732350.0
0.6308120963200001,2368179598037526.5,6951194627481804.0,544116613610859.3,793723879242307.1,1220698250269.9197,3567552117296.546,96943650635904.22,3143442635587639.0
0.7434283382464002,2446235709290464.0,7892264727554655.0,562050907106720.06,819885326893941.1,1528411183994.746,4466902035480.834,121384789237844.83,3936712681806204.5
0.8582969050113283,2509011049333530.0,8839660318620287.0,576474266884601.8,840925239919978.6,1847447881232.2065,5399364715519.365,146726113117438.28,4759276836767988.0
0.9754628431115548,2560540969233838.0,9796592452899214.0,588313861465197.8,858196114822486.1,2176647844113.6729,6361549868041.552,172875444821308.2,5608127864844234.0
1.094972099973786,2603553487706601.5,1.07653413664294e+16,598196484661139.0,872612279930396.9,2515268093904.047,7351287403328.553,199773778306553.78,6481338780327479.0
1.2168715419732616,2639961577938300.5,1.1747619134752318e+16,606561664160582.5,884814891252625.0,2862830385751.1,8367180938977.76,227383141803277.34,7377667848272808.0
1.3412089728127268,2671147253009557.0,1.2744774085465978e+16,613726933434326.6,895267147126195.9,3219031245598.347,9408344896860.988,255679451030096.66,8296325924723335.0
1.4680331522689813,2698134048863121.0,1.3757912819366542e+16,619927461689908.1,904312097958718.6,3583686586617.057,10474242654132.354,284648109327478.8,9236833172286572.0
1.597393815314361,2721696164182919.5,1.4787976523844532e+16,625341130019419.2,912209225772476.0,3956696342532.514,11564583191029.94,314281197929571.4,1.0198927526406584e+16
1.729341691620648,2742429936183885.5,1.583579058603945e+16,630104953787824.0,919158400175807.5,4338021178408.5405,12679253033566.057,344575625696586.56,1.1182504395983364e+16
1.863928525453061,2760802036399784.0,1.690209792519061e+16,634326156171897.6,925316031761666.6,4727666747341.561,13818270248277.06,375531878331215.75,1.2187575885530424e+16
2.001207095962122,2777182796200379.0,1.7987582030718258e+16,638089825082761.4,930806241556006.8,5125672804939.193,14981752633351.834,407153153534798.44,1.3214242588906034e+16
2.1412312378813647,2791869760880979.5,1.90928832855549e+16,641464324990042.9,935728755454586.6,5532105533447.497,16169895289685.1,439444751172093.56,1.426267369223406e+16
2.284055862638992,2805104662178220.5,2.0218610789719116e+16,644505196553428.8,940164592766090.4,5947052035623.035,17382954532875.207,472413635830377.7,1.5333092695822508e+16
2.4297369798917723,2817085860122048.0,2.1365351096300092e+16,647258015281904.1,944180236248724.9,6370616325466.481,18621236179755.723,506068118314783.25,1.6425767013827398e+16
2.578331719489608,2827977605036999.5,2.2533674784122452e+16,649760519585530.6,947830736381559.8,6802916370573.426,19885086908294.184,540417620705902.2,1.7541000299133574e+16
2.7298983538794,2837917028685646.5,2.3724141486271508e+16,652044217071429.8,951162054530512.8,7244081885533.941,21174887812488.65,575472501099355.6,1.8679126715186504e+16
2.884496320956988,2847019488112964.0,2.4937303797987868e+16,654135612353761.4,954212854002202.1,7694252669789.485,22491049548528.42,611243921613122.8,1.9840506619687468e+16
3.0421862473761276,2855382697432767.0,2.617371035907013e+16,656057156379388.9,957015884861995.1,8153577345612.908,23834008650424.23,647743748194669.8,2.1025523286205284e+16
3.2030299723236504,2863089956174849.0,2.7433908319972564e+16,657827988177941.6,959599065953472.5,8622212393863.069,25204224716012.832,684984474095697.6,2.223458039846074e+16
3.3670905717701234,2870212696193221.0,2.8718445342160636e+16,659464520043403.2,961986338525440.0,9100321413944.34,26602178248340.855,722979161168842.0,2.3468100126567468e+16
3.5344323832055258,2876812508944463.5,3.0027871242628776e+16,660980903324735.4,964198345698722.6,9588074554423.05,28028368995948.598,761741394731524.5,2.472652164637895e+16
3.7051210308696363,2882942772511407.5,3.136273936384462e+16,662389402253370.5,966252977782774.4,10085648074874.852,29483314676839.887,801285248864204.6,2.6010299999681104e+16
3.879223451487029,2888649967432583.5,3.2723607729929572e+16,663700696270233.5,968165813291795.8,10593224009623.922,30967550000405.773,841625259811771.0,2.7319905219113172e+16
4.0568079205167695,2893974748473939.5,3.4111040035081064e+16,664924126277674.5,969950478161960.6,11110989911324.955,32481625922872.88,882776405736096.0,2.8655821660597216e+16
4.237944078927105,2898952823442795.0,3.5525606499401256e+16,666067896557127.5,971618940296509.1,11639138657664.455,34026109087410.996,924754091490991.5,3.001854749986876e+16
4.422702960505647,2903615678288851.5,3.696788461926802e+16,667139241369454.2,973181752592115.4,12177868308389.635,35601581411525.28,967574137403165.8,3.1408594359894588e+16
4.61115701971576,2907991178886872.5,3.843845983337725e+16,668144563221455.9,974648254633601.4,12727382002801.182,37208639792916.41,1011252771275580.9,3.2826487043564024e+16
4.803380160110075,2912104073226733.5,3.9937926121044696e+16,669089548249856.5,976026741009008.6,13287887890048.883,38847895911426.77,1055806623004539.8,3.427276335175306e+16
4.9994477633122765,2915976412668756.5,4.14668865458996e+16,669979263009567.8,977324602498396.8,13859599086237.602,40519976109570.84,1101252721334518.8,3.5747973971192524e+16
5.199436718578522,2919627907038783.0,4.302595375543804e+16,670818236060898.0,978548445088258.8,14442733653626.373,42225521337872.51,1147608492376096.2,3.725268241988249e+16
5.403425452950093,2923076225339530.0,4.4615750444846136e+16,671610527061451.5,979704190758547.5,15037514598185.127,43965187154102.53,1194891759590364.5,3.878746504034398e+16
5.611493962009095,2926337251523190.0,4.6236909791892696e+16,672359785532847.9,980797163207967.0,15644169882534.021,45739643767731.984,1243120745003623.0,4.035291103297484e+16
5.823723841249277,2929425302945029.0,4.789007586842615e+16,673069301052957.6,981832161071320.9,16262932451884.451,47549576122653.336,1292314071463448.0,4.1949622523318936e+16
6.040198318074262,2932353317679102.5,4.957590403301074e+16,673742046293845.4,982813520700646.0,16894040271066.127,49395684012583.945,1342490765784166.0,4.357821465826927e+16
6.261002284435747,2935133015736952.5,5.129506130843771e+16,674380714063640.9,983745170199602.4,17537736371093.58,51278682224640.7,1393670262659130.5,4.523931572718269e+16
6.486222330124463,2937775038320653.5,5.304822674721273e+16,674987749301527.4,984630676095814.5,18194268904017.59,53199300707433.73,1445872409240416.2,4.693356730464293e+16
6.715946776726952,2940289068512401.0,5.483609178760149e+16,675565376807570.8,985473283791444.5,18863891205040.414,55158284760705.766,1499117470305138.0,4.866162441221914e+16
6.950265712261491,2942683936215086.0,5.665936060240471e+16,676115625354033.0,986275952735297.4,19546861861061.773,57156395244096.23,1553426133942494.5,5.042415569705263e+16
7.18927102650672,2944967709682158.0,5.851875044229103e+16,676640348715414.8,987041387100155.6,20243444784973.457,59194408803049.39,1608819517707776.5,5.222184362549753e+16
7.433056447036854,2947147775587602.5,6.041499197524203e+16,677141244065445.9,987772062619198.1,20953909295143.344,61273118110247.68,1665319175199184.2,5.405538469036528e+16
7.681717575977592,2949230909269748.0,6.2348829623434184e+16,677619868116438.9,988470250129074.2,21678530199629.688,63393332121239.586,1722947103021464.5,5.592548963057661e+16
7.935351927497144,2951223336522829.0,6.432102189869819e+16,678077651316586.6,989138036280075.6,22417587884747.95,65555876343177.31,1781725748106711.8,5.783288366224402e+16
8.194058966047088,2953130788095115.0,6.6332341737537736e+16,678515910371552.5,989777341801851.4,23171368407680.438,67761593115770.086,1841678015368162.0,5.977830672037765e+16
8.45794014536803,2954958547875144.0,6.838357683656356e+16,678935859315816.6,990389937653612.0,23940163592872.895,70011341903727.01,1902827275667170.5,6.176251371055518e+16
8.72709894827539,2956711495599788.0,7.047552998908952e+16,679338619325332.2,990977459338241.8,24724271132010.742,72305999600094.39,1965197374077267.5,6.378627477001675e+16
9.0016409272409,2958394144794617.5,7.26090194235496e+16,679725227434779.8,991541419618478.2,25523994687402.562,74646460840007.25,2028812638432218.0,6.5850375537742104e+16
9.281673745785717,2960010676554074.5,7.478487914431675e+16,680096644298942.8,992083219838744.6,26339643998633.824,77033638324467.39,2093697888147600.2,6.795561743315428e+16
9.567307220701432,2961564969682224.5,7.700395927544405e+16,680453761117900.2,992604160027192.0,27171534992377.746,79468463153840.25,2159878443307575.2,7.010281794316305e+16
9.85865336511546,2963060627641987.5,7.926712640779362e+16,680797405828912.8,993105447928042.5,28019989895274.457,81951885170829.95,2227380134010229.5,7.22928109173184e+16
10.155826432417769,2964501002698812.5,8.157526394997266e+16,681128348653725.4,993588207093661.0,28885337349807.883,84484873312745.39,2296229309966598.5,7.45264468708973e+16
10.458942961066125,2965889217592810.5,8.392927248346195e+16,681447307077979.5,994053484148204.1,29767912533126.477,87068415972921.6,2366452850349592.0,7.680459329578715e+16
10.768121820287448,2967228185028453.0,8.63300701222838e+16,681754950329203.1,994502255319854.9,30668057278766.69,89703521371200.19,2438078173890290.0,7.912813497906611e+16
11.083484256693197,2968520625233352.0,8.877859287753504e+16,682051903411135.0,994935432325831.8,31586120201251.28,92391217933408.81,2511133249219988.5,8.149797432921e+16
11.405153941827061,2969769081804878.5,9.127579502708128e+16,682338750744682.8,995353867683607.4,32522456823543.406,95132554679806.88,2585646605457169.0,8.391503170988747e+16
11.733257020663602,2970975936035899.5,9.382264949069552e+16,682616039459410.1,995758359512320.9,33477429707346.207,97928601622495.75,2661647343039397.0,8.638024578131866e+16
12.067922161076874,2972143419886605.0,9.642014821090118e+16,682884282373975.6,996149655880465.5,34451408586246.117,100780450171811.06,2739165144800600.0,8.889457384920136e+16
12.409280604298411,2973273627749189.0,9.906930253976779e+16,683143960699201.5,996528458748950.8,35444770501703.72,103689213551735.55,2818230287294950.0,9.145899222122218e+16
12.75746621638438,2974368527133980.5,1.0177114363189808e+17,683395526493331.1,996895427552698.1,36457899941901.32,106656027224390.52,2898873652368835.5,9.407449657118315e+16
13.112615540712067,2975429968390553.0,1.045267228438287e+17,683639404895574.4,997251182458776.0,37491188983463.36,109682049323675.98,2981126738982977.5,9.674210231079373e+16
13.474867851526309,2976459693563661.5,1.0733711214006512e+17,683875996160852.4,997596307334587.9,38545037436066.945,112768461098148.83,3065021675287101.5,9.946284496918472e+16
13.844365208556836,2977459344472478.5,1.102034045059563e+17,684105677516101.0,997931352455718.6,39619852989967.48,115916467363232.69,3150591230949894.0,1.0223778058020914e+17
14.221252512727972,2978430470091334.0,1.1312671436761862e+17,684328804856084.2,998256836979677.4,40716051366463.38,119127296962875.27,3237868829747244.0,1.0506798607761496e+17
14.605677562982532,2979374533301336.5,1.161081780191001e+17,684545714294645.8,998573251208786.6,41834056471332.49,122402203240767.92,3326888562412205.5,1.079545596981711e+17
14.997791114242183,2980292917074541.0,1.1914895405698522e+17,684756723585608.1,998881058662887.5,42974300551269.26,125742464521262.11,3417685199750151.0,1.108986213928394e+17
15.397746936527026,2981186930145576.0,1.2225022382262757e+17,684962133425883.4,999180697980244.4,44137224353359.586,129149384600115.78,3510294206022997.0,1.139013132460995e+17
15.805701875257567,2982057812219596.0,1.2541319185220038e+17,685162228652061.6,999472584663054.8,45323277287628.71,132624293245220.03,3604751752606580.5,1.1696379990352622e+17
16.221815912762718,2982906738760243.5,1.286390863347459e+17,685357279340508.2,999757112682202.9,46532917592702.77,136168546707456.92,3701094731925347.0,1.2008726900773746e+17
16.64625223101797,2983734825396712.0,1.3192915957841563e+17,685547541819926.4,1000034655954328.8,47766612504623.38,139783528241850.61,3799360771668860.0,1.2327293164282928e+17
17.079177275638333,2984543131984873.0,1.3528468848507438e+17,685733259604456.9,1000305569702964.0,49024838428857.74,143470648639177.0,3899588249294708.5,1.2652202278741934e+17
17.5207608211511,2985332666353810.5,1.3870697503345838e+17,685914664254484.4,1000570191714235.2,50308081115549.54,147231346768207.6,4001816306822683.0,1.298358017764292e+17
17.97117603757412,2986104387765987.0,1.4219734677106219e+17,686091976171650.8,1000828843496584.8,51616835838055.13,151067090128765.06,4106084865925074.0,1.332155527717361e+17
18.430599558325603,2986859210116409.0,1.4575715731494054e+17,686265405333901.2,1001081831352987.6,52951607574812.016,154979375415777.34,4212434643318278.5,1.3666258524182843e+17
18.899211549492115,2987598004893519.5,1.4938778686160147e+17,686435151975777.6,1001329447373356.4,54312911194587.33,158969729094517.28,4320907166461043.5,1.4017823445060883e+17
19.37719578048196,2988321603922534.5,1.5309064270617773e+17,686601407218743.0,1001571970353989.8,55701271645156.945,163039707987228.06,4431544789564623.5,1.4376386195548525e+17
19.864739696091597,2989030801909724.0,1.5686715977104957e+17,686764353655751.0,1001809666650322.4,57117224145463.234,167190899871335.03,4544390709920574.0,1.4742085611489654e+17
20.36203449001343,2989726358804516.0,1.607188011441154e+17,686924165893968.5,1002042790968606.8,58561314381305.664,171424924089445.4,4659488984551829.0,1.511506326054256e+17
20.869275179813698,2990409001994562.0,1.646470586268767e+17,687081011059119.2,1002271587101629.0,60034098704613.71,175743432171354.78,4776884547192888.0,1.549546349486526e+17
21.38666068340997,2991079428347677.5,1.6865345329253856e+17,687235049264641.1,1002496288613079.2,61536144336357.234,180148108468269.75,4896623225605212.0,1.5883433504790285e+17
21.91439389707817,2991738306113045.0,1.7273953605429386e+17,687386434048506.6,1002717119474766.6,63068029573148.07,184640670799474.25,5018751759233835.0,1.6279123373505123e+17
22.452681775019734,2992386276693158.0,1.7690688824400115e+17,687535312780356.5,1002934294660499.1,64630343997586.82,189222871111659.03,5143317817211584.0,1.6682686132754653e+17
23.00173541052013,2993023956296759.5,1.811571222014168e+17,687681827041275.1,1003148020700110.1,66223688692412.16,193896496151151.44,5270370016717212.0,1.709427781958179e+17
23.561770118730532,2993651937482317.0,1.8549188187419456e+17,687826112978417.5,1003358496196740.9,67848676458507.17,198663368149277.84,5399957941694047.0,1.7514057534123546e+17
24.133005521105144,2994270790600453.5,1.89912843428832e+17,687968301636437.6,1003565912310314.8,69505932036821.73,203525345521100.16,5532132161935940.0,1.7942187498479085e+17
24.715665631527248,2994881065143346.5,1.944217158727576e+17,688108519267511.8,1003770453209783.4,71196092334267.31,208484323577771.5,5666944252546977.0,1.8378833116667837e+17
25.309978944157795,2995483291008071.0,1.9902024168775904e+17,688246887621621.9,1003972296496577.1,72919806653643.22,213542235252762.7,5804446813782453.0,1.8824163035694378e+17
25.91617852304095,2996077979680605.5,2.03710197474938e+17,688383524218584.1,1004171613601407.9,74677736927653.97,218701051842211.1,5944693491277601.0,1.9278349207738982e+17
26.53450209350177,2996665625346320.0,2.084933946114035e+17,688518542603201.1,1004368570156492.9,76470557957075.02,223962783759657.88,6087738996671915.0,1.97415669534909e+17
27.165192135371807,2997246705932599.0,2.1337167991889062e+17,688652052584813.0,1004563326344979.0,78298957653130.03,229329481305431.97,6233639128635817.0,2.0213995026643382e+17
27.808495978079243,2997821684088475.0,2.183469363445119e+17,688784160462383.0,1004756037229286.8,80163637284139.25,234803235450954.25,6382450794307758.0,2.0695815679568902e+17
28.464665897640828,2998391008105955.5,2.2342108365384874e+17,688914969236186.9,1004946853059917.5,82065311726496.44,240386178638235.56,6534232031148947.0,2.1187214730193286e+17
29.133959215593645,2998955112787385.0,2.285960791365776e+17,689044578807084.8,1005135919566136.4,84004709720043.66,246080485594849.4,6689042029223808.0,2.168838163008782e+17
29.816638399905518,2999514420262509.5,2.3387391832484806e+17,689173086164267.2,1005323378229836.0,85982574127896.14,251888374164659.06,6846941153913906.0,2.2199509533798496e+17
30.51297116790363,3000069340759058.5,2.392566357246167e+17,689300585562299.0,1005509366543807.9,87999662200788.92,257812106154598.03,7007990969073520.0,2.2720795369432234e+17
31.223230591261704,3000620273330053.0,2.447463055601463e+17,689427168688225.4,1005694018255506.1,90056745845999.05,263853988197787.84,7172254260635163.0,2.3252439910519338e+17
31.947695203086937,3001167606540893.5,2.5034504253188733e+17,689552924819433.9,1005877463597314.6,92154611900912.81,270016372633300.56,7339795060673144.0,2.3794647849172243e+17
32.686649107148675,3001711719118984.0,2.560550025879529e+17,689677940972928.4,1006059829504316.8,94294062411297.9,276301658402869.72,7510678671934081.0,2.4347627870560845e+17
33.44038208929165,3002252980568666.5,2.6187838370940064e+17,689802302046600.0,1006241239820358.6,96475914914343.4,282712291964854.7,7684971692842733.0,2.491159272872431e+17
34.20918973107749,3002791751753657.5,2.6781742670954666e+17,689926090953061.6,1006421815493282.4,98701002726532.31,289250768225785.2,7862742042992180.0,2.5486759323740176e+17
34.993373525699035,3003328385449358.0,2.7387441604752397e+17,690049388746537.6,1006601674760031.1,100970175236409.23,295919631489789.06,8044058989127143.0,2.6073348780271504e+17
35.793240996213015,3003863226867009.0,2.800516806563116e+17,690172274743301.0,1006780933322327.5,103284298202307.0,302721476426254.0,8228993171629805.0,2.6671586527512067e+17
36.60910581613728,3004396614151648.0,2.8635159478545034e+17,690294826636083.4,1006959704513569.6,105644254055094.69,309658949056027.7,8417616631517246.0,2.7281702380552102e+17
37.44128793246003,3004928878855620.5,2.927765788586791e+17,690417120602866.2,1007138099457535.6,108050942206013.03,316734747756512.7,8610002837960076.0,2.7903930623184074e+17
38.29011369110923,3005460346389236.0,2.99329100346711e+17,690539231410432.1,1007316227219425.6,110505279359656.47,323951624285995.75,8806226716331752.0,2.8538510092171462e+17
39.15591596493141,3005991336450208.5,3.0601167465537414e+17,690661232513026.5,1007494194949796.8,113008199832169.45,331312384827550.0,9006364676798559.0,2.918568426300024e+17
40.03903428423004,3006522163433192.0,3.1282686602935405e+17,690783196146451.1,1007672108021813.8,115560655874715.83,338819891052871.94,9210494643459954.0,2.9845701337136557e+17
40.93981496991464,3007053136820713.0,3.197772884717664e+17,690905193417896.8,1007850070162289.5,118163618002287.52,346477061206415.06,9418696084049642.0,3.051881433081068e+17
41.85861126931294,3007584561556881.0,3.268656066797748e+17,691027294391797.5,1008028183576926.4,120818075327911.81,354286871210175.56,9631050040207360.0,3.120528116535037e+17
42.7957834946992,3008116738404832.5,3.340945369965153e+17,691149568171956.0,1008206549070124.2,123525035902319.56,362252355789506.94,9847639158332300.0,3.1905364759084384e+17
