t(s),Total solute volume 1,Total retention volume 1,Total 1 volume 1,Total 2 volume 1,Total 3 volume 1,Total 4 volume 1,Total 5 volume 1,Total 6 volume 1
0.1,1198922522623410.5,1797285705327306.5,247551059597552.8,350812123106343.5,0.0,0.0,0.0,0.0
0.202,1802521944946269.0,2707148783954186.5,372181032588342.7,527429063548508.75,2195728594.73513,6137408991.496056,156035564633.3452,4852374168847.614
0.30604000000000003,2261196488030006.0,3402446346310731.0,466887211611475.3,661640073613517.9,5563940548.769319,15552129764.73985,395423237525.513,12306033747894.303
0.41216080000000005,2647956644364080.0,3992089125515828.0,546744655349833.3,774808487806489.6,9871347004.912252,27592067342.49765,701568823771.1136,21840305757305.66
0.5204040160000001,2990294907305540.0,4517049499263413.0,617429957609866.1,874978780871699.9,15012826973.104115,41963389664.20482,1066999042146.4706,33221878217528.6
0.6308120963200001,3301928110230303.5,4997758009109697.0,681775342048761.9,966164583356012.6,20930727563.177315,58504947341.564896,1487615620090.3152,46322922179625.99
0.7434283382464002,3590833076154471.0,5446094284944219.0,741427846732085.8,1050699963093610.0,27590875487.817654,77121220837.65634,1960989438835.286,61067697428895.984
0.8582969050113283,3862120299857047.0,5869672276512717.0,797442676143008.1,1130080282496460.2,34972704746.24462,97754725466.0513,2485658657401.092,77410631928584.67
0.9754628431115548,4119290686355480.5,6273713036122897.0,850542689969803.8,1205329928038652.2,43064383968.548645,120372391426.75917,3060782320078.6094,95325512663491.73
1.094972099973786,4364863321002446.5,6661979600009539.0,901248023789333.8,1277185999680438.2,51860112032.49338,144958004571.59412,3685948113208.108,114799489307512.28
1.2168715419732616,4600720327259850.0,7037290224528081.0,949947294593402.6,1346199218389995.2,61358488291.37773,171507650904.58444,4361056514768.006,135829461630871.55
1.3412089728127268,4828310373579663.0,7401821068432779.0,996939620472329.2,1412793473517199.2,71561468670.99951,200026798692.36337,5086246591174.304,158419766005052.28
1.4680331522689813,5048775684782395.0,7757294988476609.0,1042460845663924.0,1477302987109318.8,82473664967.77701,230528339883.18494,5861846190362.586,182580622725746.44
1.597393815314361,5263034965824900.0,8105104731272820.0,1086700662483039.5,1539996577918737.2,94101856819.31544,263031225983.22955,6688337252330.579,208327054711011.7
1.729341691620648,5471839586701971.0,8446396357258575.0,1129814212264805.2,1601094101452850.0,106454641566.01358,297559489362.7916,7566330921311.616,235678111786721.62
1.863928525453061,5675812851551653.0,8782127519049040.0,1171930193568955.2,1660777940357247.5,119542176915.05547,334141523961.54266,8496549254506.506,264656300615780.1
2.001207095962122,5875478179438533.0,9113109265079008.0,1213156680890166.0,1719201250287248.5,133375988047.28246,372809546123.06635,9479811511497.45,295287157417398.2
2.1412312378813647,6071279792939562.0,9440036717080662.0,1253585396394808.8,1776494013516109.0,147968820683.412,413599183893.93695,10517023710493.121,327598922515112.7
2.284055862638992,6263598209956063.0,9763512033981106.0,1293294908638528.5,1832767571935014.2,163334527691.03946,456549160075.2944,11609170568673.145,361622289195054.9
2.4297369798917723,6452762047489339.0,1.0084061904323962e+16,1332353069785602.0,1888118080910857.8,179487980666.64197,501701045084.0574,12757309217765.008,397390207894657.8
2.578331719489608,6639057154812449.0,1.0402151078584316e+16,1370818901407523.0,1942629181708775.8,196445000447.12247,549099062725.69543,13962564265138.234,434937732327246.1
2.7298983538794,6822733777878031.0,1.0718192983521634e+16,1408744073775229.0,1996374097842184.2,214222302197.04044,598789936708.7601,15226123890941.32,474301897896365.75
2.884496320956988,7004012248962049.0,1.1032558151807346e+16,1446174080645070.2,2049417299897741.0,232837451879.1213,650822768977.8726,16549236754364.371,515521625327257.75
3.0421862473761276,7183087555590523.0,1.1345580992224116e+16,1483149182641416.5,2101815842431535.8,252308831729.31345,705248943216.2062,17933209539948.57,558637644245759.3
3.2030299723236504,7360133046656169.0,1.1657565282944526e+16,1519705172488040.0,2153620448401777.8,272655612938.1718,762122048491.13,19379405016124.406,603692432720995.9
3.3670905717701234,7535303466389796.0,1.196878867055586e+16,1555874001456286.5,2204876396927540.2,293897734161.2278,821497819193.1421,20889240508079.562,650730169720818.5
3.5344323832055258,7708737459044597.0,1.2279506386543952e+16,1591684296527153.0,2255624256174914.0,316055884790.80145,883434088284.1111,22464186709074.99,699796698115140.6
3.7051210308696363,7880559652653962.0,1.2589954341761282e+16,1627161790641337.8,2305900493077400.0,339151492152.71387,947990751516.5643,24105766770750.08,750939496374164.1
3.879223451487029,8050882404986722.0,1.2900351721973584e+16,1662329683200474.2,2355737984213240.0,363206711965.84564,1015229740773.4927,25815555625358.098,804207657495025.6
4.0568079205167695,8219807276129944.0,1.3210903179859536e+16,1697208944123024.0,2405166446692191.5,388244421535.70874,1085215005050.5067,27595179502344.348,859651873985447.8
4.237944078927105,8387426278120251.0,1.3521800698074268e+16,1731818571865591.8,2454212803805466.0,414288215256.0318,1158012497889.5684,29446315608986.188,917324427960828.0
4.422702960505647,8553822941434915.0,1.383322518226372e+16,1766175813629792.0,2502901497087530.0,441362402072.44275,1233690170297.5088,31370691950510.156,977279185588619.4
4.61115701971576,8719073230035762.0,1.414534783089401e+16,1800296354298672.8,2551254754063661.5,469492004625.36255,1312317968358.5222,33370087269577.72,1039571595253359.1
4.803380160110075,8883246330393719.0,1.4458331319479618e+16,1834194479352852.0,2599292819123390.5,498702759839.10345,1393967834889.4504,35446331088579.086,1104258688926346.5
4.9994477633122765,9046405335039956.0,1.4772330829569238e+16,1867883216008773.2,2647034153531808.0,529021120764.12164,1478713714598.2175,37601303841013.73,1171399086312323.5
5.199436718578522,9208607837359504.0,1.5087494947178784e+16,1901374456030474.8,2694495609469824.5,560474259511.4417,1566631562295.4426,39836937080514.93,1241053001416652.8
5.403425452950093,9369906451312128.0,1.5403966450877308e+16,1934679063040472.8,2741692582107755.5,593090071144.3263,1657799353782.1685,42155213757929.8,1313282251234108.5
5.611493962009095,9530349267350968.0,1.5721883006161212e+16,1967806966656921.5,2788639143009877.5,626897178413.5015,1752297099095.8557,44558168558373.08,1388150266307552.5
5.823723841249277,9689980253873708.0,1.6041377779889382e+16,2000767245384417.0,2835348157601575.0,661924937239.6832,1850206857845.6865,47047888291414.12,1465722102943184.0
6.040198318074262,9848839611978242.0,1.636257998624355e+16,2033568199863228.2,2881831388973007.0,698203442861.5474,1951612756408.3499,49626512328579.336,1546064456901197.5
6.261002284435747,1.000696409002661e+16,1.6685615373802434e+16,2066217417819808.2,2928099589922484.5,735763536579.2661,2056601006789.005,52296233083202.63,1629245678406967.5
6.486222330124463,1.0164387263485202e+16,1.7010606661790862e+16,2098721831847631.8,2974162584839438.5,774636813033.7174,2165259926980.1013,55059296528370.52,1715335788350175.0
6.715946776726952,1.0321139784659562e+16,1.7337673932307542e+16,2131087770971897.0,3020029342778311.0,814855627969.9015,2277679962674.05,57918002749299.375,1804406495557814.2
6.950265712261491,1.0477249606240224e+16,1.7666934984302998e+16,2163321006806858.8,3065708042869565.5,856453106440.1459,2393953710205.862,60874706526992.56,1896531215042728.0
7.18927102650672,1.0632742181996198e+16,1.7998505654219754e+16,2195426794994582.5,3111206133043736.0,899463151408.7688,2514175940618.375,63931817950450.55,1991785087142761.2
7.433056447036854,1.078764064746737e+16,1.8332500107493852e+16,2227409912513907.0,3156530382903166.5,943920452724.9663,2638443624757.3867,67091803055074.68,2090244997476863.5
7.681717575977592,1.094196598310265e+16,1.8669031104520264e+16,2259274691364946.0,3201686931457289.5,989860496435.1248,2766855959316.158,70357184485215.75,2191989597654404.0
7.935351927497144,1.1095737161952084e+16,1.9008210244183988e+16,2291025049064182.0,3246681330338166.0,1037319574409.6093,2899514393759.49,73730542179097.45,2297099326682285.0
8.194058966047088,1.1248971283731896e+16,1.935014818763562e+16,2322664516326022.0,3291518583028852.5,1086334794262.3116,3036522658066.8525,77214514074567.44,2405656433021934.5
8.45794014536803,1.140168369684211e+16,1.9694954864634716e+16,2354196262256628.0,3336203180566397.5,1136944089544.229,3177986791242.165,80811796834351.56,2517744997254404.0
8.72709894827539,1.1553888109706878e+16,2.0042739664479224e+16,2385623117343344.5,3380739134120784.0,1189186230194.8242,3324015170544.76,84525146589650.08,2633450955317781.5
9.0016409272409,1.170559669263471e+16,2.0393611613282556e+16,2416947594486563.0,3425130004799859.0,1243100833237.183,3474718541402.617,88357379701087.83,2752862122285723.5
9.281673745785717,1.1856820171244174e+16,2.074767953913899e+16,2448171908290047.5,3469378930986225.0,1298728373704.9858,3630210047974.3257,92311373536165.22,2876068216660685.5
9.567307220701432,1.2007567912371482e+16,2.1105052226526532e+16,2479297992798961.5,3513488653474375.0,1356110195791.1177,3790605264331.3276,96390067262485.6,3003160885159078.5
9.85865336511546,1.2157848003266026e+16,2.1465838561137908e+16,2510327517852011.0,3557461538643767.0,1415288524209.3296,3956022226236.5527,100596462656154.03,3134233727969466.5
10.155826432417769,1.2307667324783612e+16,2.1830147666185444e+16,2541261904194230.5,3601299599875653.0,1476306475761.8442,4126581463499.54,104933624924836.64,3269382324467878.0
10.458942961066125,1.2457031619204186e+16,2.2198089031107444e+16,2572102337479837.5,3645004517396897.0,1539208071107.1416,4302406032892.015,109404683545080.0,3408704259377460.5
10.768121820287448,1.2605945553228442e+16,2.2569772633495692e+16,2602849781279664.5,3688577656713272.5,1604038246723.4004,4483621551611.362,114012833113559.42,3552299149362421.5
11.083484256693197,1.2754412776645562e+16,2.2945309054975104e+16,2633504989194721.5,3732020085775876.0,1670842867064.213,4670356231282.32,118761334212024.47,3700268670048567.0
11.405153941827061,1.2902435977108138e+16,2.332480959168352e+16,2664068516166067.0,3775332591008746.5,1739668736904.2078,4862740912490.795,123653514285774.67,3852716583465420.5
11.733257020663602,1.3050016931404212e+16,2.370838635993282e+16,2694540729061263.5,3818515692311273.0,1810563613873.3665,5060909099845.859,128692768535569.9,4009748765906725.5
12.067922161076874,1.3197156553572026e+16,2.4096152397568388e+16,2724921816609075.5,3861569657136910.0,1883576221179.5369,5264996997569.197,133882560822956.56,4171473236208670.0
12.409280604298411,1.3343854940167296e+16,2.448822176149408e+16,2755211798746185.0,3904494513738689.0,1958756260519.8225,5475143545613.303,139226424589043.2,4338000184446739.0
12.75746621638438,1.3490111412960142e+16,2.4884709621778496e+16,2785410535433083.5,3947290063662516.0,2036154425182.0994,5691490456312.655,144727963786829.22,4509442001054468.0
13.112615540712067,1.3635924559308448e+16,2.528573235272042e+16,2815517734990387.5,3989955893560801.0,2115822413339.0505,5914182251573.862,150390853827243.34,4685913306368568.0
13.474867851526309,1.3781292270430664e+16,2.5691407621211884e+16,2845532962001211.5,4032491386391169.5,2197812941537.5679,6143366300613.598,156218842539112.56,4867530980607594.0
13.844365208556836,1.3926211777776324e+16,2.6101854472708e+16,2875455644820947.0,4074895732058778.0,2282179758387.5254,6379192858254.677,162215751143327.5,5054414194291956.0
14.221252512727972,1.4070679687673446e+16,2.6517193415078544e+16,2905285082731231.5,4117167937554405.5,2368977658454.285,6621815103793.3545,168385475241535.16,5246684439115617.0
14.605677562982532,1.421469201441376e+16,2.693754650059789e+16,2935020452771161.0,4159306836635245.5,2458262496360.3936,6871389180452.695,174731985819729.72,5444465559281174.0
14.997791114242183,1.435824421191919e+16,2.736303740630089e+16,2964660816275920.0,4201311099090900.0,2550091201102.4155,7128074235438.536,181259330267181.6,5647883783311171.0
15.397746936527026,1.4501331204120544e+16,2.7793791512915292e+16,2994205125149155.0,4243179239632197.5,2644521790589.5854,7392032460617.456,187971633411170.1,5857067756351024.0
15.805701875257567,1.4643947414164002e+16,2.8229935982562596e+16,3023652227893564.5,4284909626437357.0,2741613386411.8115,7663429133837.002,194873098568059.38,6072148572979348.0
16.221815912762718,1.478608679255131e+16,2.867159983540326e+16,3053000875421143.5,4326500489385795.5,2841426228845.0454,7942432660911.361,201968008611289.44,6293259810543943.0
16.64625223101797,1.492774284430675e+16,2.911891402538691e+16,3082249726662643.0,4367949928007551.0,2944021692102.7812,8229214618296.615,209260727056909.5,6520537563042614.0
17.079177275638333,1.5068908655256668e+16,2.9572011515256292e+16,3111397353993688.0,4409255919172655.0,3049462299843.2114,8523949796482.402,216755699167321.56,6754120475569663.0
17.5207608211511,1.5209576917496554e+16,3.0031027350942012e+16,3140442248493144.5,4450416324543097.5,3157811740941.9473,8826816244127.96,224457453073961.12,6994149779350188.0
17.97117603757412,1.5349739954114352e+16,3.0496098735473564e+16,3169382825047973.0,4491428897806927.5,3269134885541.301,9137995312972.703,232370600919668.56,7240769327386149.0
18.430599558325603,1.548938974323007e+16,3.096736510252476e+16,3198217427316826.0,4532291291712439.0,3383497801387.117,9457671703553.186,240499840021563.7,7494125630738925.0
18.899211549492115,1.562851794140657e+16,3.1444968189701292e+16,3226944332563916.5,4573001064918271.0,3500967770465.481,9786033511759.885,248849954055284.84,7754367895475049.0
19.37719578048196,1.5767115906479328e+16,3.1929052111672212e+16,3255561756372858.5,4613555688673617.0,3621613305951.6567,10123272276268.969,257425814261467.6,8021648060302709.0
19.864739696091597,1.5905174719848462e+16,3.2419763433239068e+16,3284067857249415.0,4653952553340930.0,3745504169484.4404,10469583026886.408,266232380675426.44,8296120834928399.0
20.36203449001343,1.6042685208270486e+16,3.291725124243119e+16,3312460741121065.0,4694188974772290.0,3872711388779.795,10825164333842.191,275274703380998.06,8577943739163697.0
20.869275179813698,1.6179637965182766e+16,3.3421667223709572e+16,3340738465740061.5,4734262200549246.0,4003307275598.0044,11190218358075.473,284557923789578.6,8867277142814243.0
21.38666068340997,1.6316023371591046e+16,3.3933165731357172e+16,3368899044996170.5,4774169416094410.0,4137365444079.1416,11564950902551.842,294087275945410.6,9164284306383474.0
21.91439389707817,1.645183161654353e+16,3.445190386312805e+16,3396940453144166.0,4813907750662485.0,4274960829462.531,11949571464656.191,303868087858214.8,9469131422625548.0
22.452681775019734,1.6587052717214818e+16,3.497804153422593e+16,3424860628950719.0,4853474283216844.0,4416169707205.74,12344293289705.672,313905782864306.44,9781987658982306.0
23.00173541052013,1.6721676538617382e+16,3.5511741551675428e+16,3452657479764362.0,4892866048197283.0,4561069712519.891,12749333425628.727,324205881017367.4,1.0103025200940876e+16
23.561770118730532,1.6855692812956434e+16,3.605316968915021e+16,3480328885511859.5,4932080041183288.0,4709739860338.013,13164912778857.824,334774000510065.6,1.0432419296349364e+16
24.133005521105144,1.6989091158641002e+16,3.660249476231568e+16,3507872702623569.5,4971113224456943.0,4862260565733.904,13591256171484.35,345615859127790.06,1.077034830072911e+16
24.715665631527248,1.7121861098961838e+16,3.715988870474277e+16,3535286767890022.5,5009962532468042.0,5018713664809.231,14028592399725.627,356737275735735.44,1.1116993723622592e+16
25.309978944157795,1.7253992080443938e+16,3.772552664444825e+16,3562568902251306.5,5048624877204284.0,5179182436067.262,14477154293755.486,368144171800662.3,1.1472540276018216e+16
25.91617852304095,1.7385473490880208e+16,3.829958698111105e+16,3589716914520622.0,5087097153467904.0,5343751622291.618,14937178778950.236,379842572948658.9,1.1837175918892454e+16
26.53450209350177,1.7516294677049814e+16,3.888225146401656e+16,3616728605042734.0,5125376244060307.0,5512507452949.596,15408906938603.742,391838610560239.9,1.2211091912911922e+16
27.165192135371807,1.7646444962124624e+16,3.947370527077563e+16,3643601769288034.0,5163459024875209.0,5685537667138.642,15892584078165.441,404138523404199.3,1.2594482869338202e+16
27.808495978079243,1.7775913662763702e+16,4.007413708686526e+16,3670334201382131.0,5201342369900599.0,5862931537096.448,16388459791056.947,416748659311579.3,1.2987546802179094e+16
28.464665897640828,1.7904690105896026e+16,4.068373918603699e+16,3696923697571164.0,5239023156129530.0,6044779892294.147,16896788026122.982,429675476891213.8,1.3390485181630684e+16
29.133959215593645,1.8032763645189452e+16,4.130270751163463e+16,3723368059622243.5,5276498268378937.0,6231175144133.134,17417827156773.701,442925547288280.44,1.3803502988854756e+16
29.816638399905518,1.8160123677203092e+16,4.193124175886617e+16,3749665098158599.5,5313764604016048.0,6422211311265.886,17951840051875.54,456505555987308.06,1.4226808772138052e+16
30.51297116790363,1.8286759657219384e+16,4.256954545807153e+16,3775812635928481.5,5350819077590801.0,6617984045561.564,18499094148448.945,470422304661151.25,1.4660614704477724e+16
31.223230591261704,1.841266111475064e+16,4.32178260590245e+16,3801808511007045.5,5387658625373316.0,6818590658737.363,19059861526231.69,484682713067384.5,1.5105136642641114e+16
31.947695203086937,1.8537817668715788e+16,4.3876295016313064e+16,3827650579929841.5,5424280209794514.0,7024130149676.484,19634418984166.43,499293820993650.94,1.5560594187745408e+16
32.686649107148675,1.866221904227927e+16,4.454516787583396e+16,3853336720756904.5,5460680823788307.0,7234703232454.168,20223048118872.824,514262790253447.4,1.6027210747404596e+16
33.44038208929165,1.8785855077347644e+16,4.52246643624419e+16,3878864836065843.5,5496857495033185.0,7450412365092.802,20826035405162.156,529596906733902.3,1.6505213599491022e+16
34.20918973107749,1.890871574871499e+16,4.591500846879264e+16,3904232855872617.5,5532807290091332.0,7671361779067.796,21443672278656.65,545303582497024.2,1.6994833957558988e+16
34.993373525699035,1.9030791177850612e+16,4.661642854541587e+16,3929438740478395.0,5568527318442977.0,7897657509585.2,22076255220571.773,561390357935993.0,1.7496307037977824e+16
35.793240996213015,1.915207164632117e+16,4.732915739205725e+16,3954480483240906.5,5604014736413892.0,8129407426652.923,22724085844722.336,577864903987982.6,1.8009872128821942e+16
36.60910581613728,1.927254760883935e+16,4.8053432350326e+16,3979356113268726.5,5639266750993346.0,8366721266966.496,23387470986811.953,594735024405075.5,1.8535772660565616e+16
37.44128793246003,1.9392209705931304e+16,4.8789495397685944e+16,4004063698036778.0,5674280623540750.0,8609710666631.081,24066722796066.242,612008658084762.2,1.9074256278629588e+16
38.29011369110923,1.951104877621399e+16,4.953759324282612e+16,4028601345921394.0,5709053673378149.0,8858489194740.67,24762158829269.258,629693881461566.9,1.9625574917826972e+16
39.15591596493141,1.962905586827649e+16,5.029797742244877e+16,4052967208653513.0,5743583281266697.0,9113172387835.975,25474102147262.105,647798910961297.9,2.0189984878755604e+16
40.03903428423004,1.9746222252155508e+16,5.1070904399509656e+16,4077159483688118.0,5777866892764422.0,9373877785261.482,26202881413963.27,666332105519419.8,2.076774690618308e+16
40.93981496991464,1.98625394303987e+16,5.185663566295078e+16,4101176416488566.5,5811902021463541.0,9640724965443.32,26948830997969.57,685301969165065.2,2.135912626947145e+16
41.85861126931294,1.997799914870863e+16,5.2655437828957464e+16,4125016302724365.5,5845686252104894.0,9913835583107.61,27712291076794.27,704717153672132.1,2.1964392845087644e+16
42.7957834946992,2.0092593406159652e+16,5.346758274378233e+16,4148677490380680.5,5879217243567424.0,10193333407461.0,28493607743802.14,724586461278933.0,2.258382120124444e+16
