t(s),Total solute volume 1,Total retention volume 1,Total 1 volume 1,Total 2 volume 1,Total 3 volume 1,Total 4 volume 1,Total 5 volume 1,Total 6 volume 1
0.1,1405356901042544.8,1.6627283363228424e+16,3932847546865173.5,1.1289078915320706e+16,0.0,0.0,0.0,0.355950925957304
0.202,1950879403141277.0,2.3086799206814508e+16,5459491108347810.0,1.5671625347385248e+16,8771499473.81264,68896650343.95789,1050246077658.4235,3675433712702.5444
0.30604000000000003,2397570563837202.5,2.838048112322166e+16,6709548665280456.0,1.926001407685795e+16,21778958081.613445,171868441583.64868,2874696937600.326,10279472908791.379
0.41216080000000005,2784598077574908.0,3.2971443535294656e+16,7792637910412500.0,2.2369092318159396e+16,38324975903.672165,303001717049.66486,5339662799394.809,19434239655511.996
0.5204040160000001,3131721098516763.5,3.709322635694076e+16,8764054945174855.0,2.5157602584967052e+16,58050327572.49111,459407278943.468,8375916205410.701,30954354470162.348
0.6308120963200001,3450319985467935.0,4.088034398223005e+16,9655647633467574.0,2.77169696654635e+16,80753800240.54114,639475029401.4812,11943981786573.605,44742487214801.38
0.7434283382464002,3747484077312233.0,4.441659881996942e+16,1.0487255409705372e+16,3.0104145201287836e+16,106318249777.98366,842268618836.0902,16019630934699.1,60745913860658.64
0.8582969050113283,4027924787659198.5,4.775769610465641e+16,1.1272063098534582e+16,3.2356977615212548e+16,134676479528.18971,1067250731477.4425,20587871826679.242,78940804212394.6
0.9754628431115548,4294940889433682.0,5.094265209397788e+16,1.2019302264271484e+16,3.4501966955486896e+16,165793755171.79877,1314143002831.6736,25639869381991.05,99322178645810.89
1.094972099973786,4550940642597753.0,5.399996402678905e+16,1.2735712382218608e+16,3.655845944278253e+16,199657987530.2271,1582847538426.0305,31171078787694.812,121897974876504.22
1.2168715419732616,4797742369877627.0,5.69511625138343e+16,1.3426381996906824e+16,3.854106213434407e+16,236273794709.3613,1873399499058.8271,37180123082236.65,146686216329805.0
1.3412089728127268,5036757208700821.0,5.981297100654935e+16,1.4095260151178394e+16,4.0461111043454424e+16,275658698176.52625,2185936748664.1167,43668079694850.38,173712928074023.8
1.4680331522689813,5269105502130503.0,6.259868073382787e+16,1.4745482104623566e+16,4.232760614948151e+16,317840574270.1838,2520679530617.2134,50637984581896.555,203010472905516.2
1.597393815314361,5495693874281254.0,6.531906125220426e+16,1.5379585027989936e+16,4.414783056996528e+16,362855884389.307,2877916359218.326,58094479322023.75,234616528402182.75
1.729341691620648,5717268013264165.0,6.798298402096776e+16,1.5999655715428528e+16,4.5927774582148104e+16,410748411490.0781,3257993950180.3145,66043558630917.69,268573409134363.97
1.863928525453061,5934449881277334.0,7.0597861888978856e+16,1.660743471632644e+16,4.767243454237632e+16,461568339097.004,3661309882412.1562,74492384681398.84,304927486095843.4
2.001207095962122,6147764601117790.0,7.31699665999274e+16,1.7204391576759428e+16,4.938602887285299e+16,515371568829.0751,4088307160940.1157,83449146846607.94,343728723620832.94
2.1412312378813647,6357660301617832.0,7.570466316098782e+16,1.779178037660458e+16,5.107215748527536e+16,572219208298.199,4539470137293.082,92922954746536.42,385030353397911.25
2.284055862638992,6564523046383950.0,7.820658614084048e+16,1.837068150735455e+16,5.2733921707209544e+16,632177183950.7715,5015321425186.977,102923756365249.22,428888624918039.0
2.4297369798917723,6768688254603531.0,8.067977451823398e+16,1.8942033633042172e+16,5.437401602826712e+16,695315947588.4263,5516419562327.087,113462274918348.03,475362591892846.56
2.578331719489608,6970449568181209.0,8.312777636983715e+16,1.9506658504761736e+16,5.599479933195859e+16,761710254291.1514,6043357240743.836,124549959935760.27,524513937504826.5
2.7298983538794,7170065827466111.0,8.55537312307357e+16,2.0065280482114556e+16,5.7598350933361704e+16,831438995658.9845,6596759977488.325,136198949452202.9,576406839367980.6
2.884496320956988,7367766625286447.0,8.796043566953147e+16,2.061854207607283e+16,5.918651519597175e+16,904585076684.8329,7177285132611.526,148422041035284.1,631107860955875.2
3.0421862473761276,7563756777468494.0,9.035039606785622e+16,2.1167016459644e+16,6.0760937444401416e+16,981235327577.0503,7785621205299.843,161232669888067.44,688685859921333.2
3.2030299723236504,7758219956642173.0,9.272587152204768e+16,2.171121763700802e+16,6.232309315555896e+16,1061480443927.565,8422487355564.883,174644892677755.72,749211912361250.8
3.3670905717701234,7951321672385228.0,9.508890903124203e+16,2.2251608783394864e+16,6.387431189880849e+16,1145414950166.5442,9088633111198.645,188673376082110.12,812759252509961.0
3.5344323832055258,8143211735498779.0,9.744137259823922e+16,2.2788609141313184e+16,6.5415797132035864e+16,1233137182418.2942,9784838229067.861,203333389277918.66,879403224702008.4
3.7051210308696363,8334026311230474.0,9.978496748000522e+16,2.332259976645639e+16,6.6948642695636584e+16,1324749287730.9546,10511912686652.854,218640799752590.66,949221244954809.4
3.879223451487029,8523889641934788.0,1.0212126053887045e+17,2.3853928348534804e+16,6.847384665101694e+16,1420357237281.262,11270696784736.162,234612071946525.4,1022292771415410.5
4.0568079205167695,8712915501668203.0,1.0445169743316413e+17,2.4382913281932376e+16,6.999232296566709e+16,1520070851643.6897,12062061346030.209,251264268339403.56,1098699283359368.5
4.237944078927105,8901208431761264.0,1.0677761722649189e+17,2.4909847123431636e+16,7.150491143877374e+16,1624003836599.6492,12886907997613.0,268615052671019.8,1178524268019979.0
4.422702960505647,9088864796163130.0,1.0910026487375243e+17,2.543499954557485e+16,7.301238617902424e+16,1732273828260.2263,13746169527410.695,286682695042488.4,1261853214592028.0
4.61115701971576,9275973687467326.0,1.114208019491487e+17,2.5958619872159944e+16,7.451546288290171e+16,1845002446504.2441,14640810306781.559,305486078688229.56,1348773615178181.2
4.803380160110075,9462617708437506.0,1.137403159096365e+17,2.6480939265325196e+16,7.601480511284357e+16,1962315355915.0088,15571826772699.07,325044708246501.8,1439374972655133.8
4.9994477633122765,9648873649115340.0,1.1605982813123318e+17,2.700217262042238e+16,7.75110297365887e+16,2084342333546.2393,16540247964203.719,345378719384679.4,1533748815424323.5
5.199436718578522,9834813075866892.0,1.1838030091155742e+17,2.752252021445185e+16,7.900471165910901e+16,2211217342965.7515,17547136108731.223,366508889656413.5,1631988719021603.2
5.403425452950093,1.0020502845766806e+16,1.2070264359707704e+17,2.8042169145556652e+16,8.04963879547619e+16,2343078614119.526,18593587254672.86,388456650484511.7,1734190334638344.5
5.611493962009095,1.0206005557360162e+16,1.2302771796570733e+17,2.8561294594470772e+16,8.19865614883526e+16,2480068728634.76,19680731947127.062,411244100177119.75,1840451424670995.0
5.823723841249277,1.0391379946951134e+16,1.253563429730525e+17,2.9080060933525116e+16,8.347570409859949e+16,2622334710243.089,20809735944298.062,434894017895418.94,1950871905426766.8
6.040198318074262,1.0576681238042676e+16,1.2768929895252661e+17,2.95986227045478e+16,8.496425940525512e+16,2770028120056.928,21981800972409.38,459429878499159.9,2065553897089409.2
6.261002284435747,1.0761961450313082e+16,1.3002733134491757e+17,3.0117125483528868e+16,8.645264529117416e+16,2923305156474.6934,23198165517339.027,484875868202869.6,2184601781024724.0
6.486222330124463,1.0947269673502036e+16,1.3237115402096365e+17,3.0635706647085004e+16,8.794125610249512e+16,3082326759525.9326,24460105651464.023,511256900980902.5,2308122264489504.0
6.715946776726952,1.1132652310748998e+16,1.347214522506656e+17,3.1154496053437324e+16,8.943046460342515e+16,3247258719497.168,25768935894437.55,538598635663970.56,2436224452776254.5
6.950265712261491,1.1318153295244164e+16,1.370788853649216e+17,3.167361664870461e+16,9.09206237166372e+16,3418271789704.7715,27126010106824.875,566927493673722.2,2569019928765356.5
7.18927102650672,1.1503814283487334e+16,1.3944408914832986e+17,3.219318500773437e+16,9.241206807575683e+16,3595541803303.5312,28532722415702.242,596270677345607.9,2706622839786630.5
7.433056447036854,1.1689674827980228e+16,1.4181767799638053e+17,3.2713311817379036e+16,9.39051154126304e+16,3779249794038.601,29990508171473.715,626656188793799.0,2849149991631514.0
7.681717575977592,1.1875772531785358e+16,1.442002468655589e+17,3.3234102309025564e+16,9.540006779892517e+16,3969582120865.4526,31500844935296.375,658112849275580.5,2996720949491060.5
7.935351927497144,1.2062143187057092e+16,1.4659237304092573e+17,3.3755656646271972e+16,9.689721275897374e+16,4166730596378.092,33065253496628.74,690670319016735.0,3149458145513231.5
8.194058966047088,1.224882089937543e+16,1.4899461774241174e+17,3.427807027287282e+16,9.839682426856915e+16,4370892619000.0127,34685298920531.742,724359117463844.2,3307486992590927.0
8.45794014536803,1.2435838199479964e+16,1.514075275882371e+17,3.48014342254243e+16,9.989916365254227e+16,4582271308905.636,36362591624457.42,759210643934179.8,3470936003922985.0
8.72709894827539,1.2623226143803806e+16,1.538316359314735e+17,3.532583541470634e+16,1.0140448039236736e+17,4801075647652.133,38098788484358.63,795257198639165.2,3639936917824871.5
9.0016409272409,1.281101440503953e+16,1.5626746408371648e+17,3.585135687912961e+16,1.0291301285369315e+17,5027520621513.542,39895593970050.44,832532004063205.5,3814624827199434.0
9.281673745785717,1.2999231353825646e+16,1.5871552243809062e+17,3.637807801333332e+16,1.0442498894254243e+17,5261827368520.355,41754761309843.62,871069226685906.4,3995138313025022.0
9.567307220701432,1.3187904132517284e+16,1.6117631150231126e+17,3.6906074774630616e+16,1.0594062669792266e+17,5504223329218.235,43678093684558.086,910903999042018.0,4181619581184926.5
9.85865336511546,1.3377058721896666e+16,1.6365032285122826e+17,3.743541986969696e+16,1.0746013482772144e+17,5754942401169.689,45667445451103.59,952072442120110.9,4374214601940760.0
10.155826432417769,1.356672000158567e+16,1.6613804000717126e+17,3.796618292363288e+16,1.0898371319400886e+17,6014225097231.729,47724723395893.03,994611688107664.4,4573073251343139.0
10.458942961066125,1.3756911804838812e+16,1.686399392554453e+17,3.849843063330111e+16,1.1051155325319674e+17,6282318707651.547,49851888018424.31,1038559903496656.0,4778349453885990.0
10.768121820287448,1.3947656968321156e+16,1.71156490401489e+17,3.903222690662895e+16,1.1204383845591163e+17,6559477466029.516,52050954845428.586,1083956312569682.6,4990201325746060.0
11.083484256693197,1.4138977377409528e+16,1.736881574754832e+17,3.956763298938268e+16,1.1358074461090547e+17,6845962719205.803,54323995776037.0,1130841221292176.5,5208791317998126.0
11.405153941827061,1.4330894007495592e+16,1.762353993895585e+17,4.010470758075349e+16,1.1512244021684869e+17,7142043101132.492,56673140458466.445,1179256041640996.0,5434286359260219.0
11.733257020663602,1.4523426961715438e+16,1.7879867055219517e+17,4.064350693894263e+16,1.1666908676541696e+17,7447994710797.6045,59100577698759.69,1229243316403382.2,5666857997307187.0
12.067922161076874,1.4716595505480286e+16,1.8137842144392477e+17,4.1184084977795064e+16,1.1822083901868181e+17,7764101294270.337,61608556902139.71,1280846744482913.8,5906682539288277.0
12.409280604298411,1.4910418098138584e+16,1.8397509915801456e+17,4.1726493355404936e+16,1.197778452634563e+17,8090654430939.096,64199389547556.43,1334111206750768.0,6153941190285444.0
12.75746621638438,1.5104912422058364e+16,1.865891479094365e+17,4.2270781555502344e+16,1.2134024754491862e+17,8427953724014.319,66875450696007.484,1389082792480970.2,6408820190056261.0
13.112615540712067,1.5300095409381774e+16,1.8922100951509738e+17,4.281699696232476e+16,1.2290818188153541e+17,8776306995367.831,69639180533211.42,1445808826407561.5,6671510947919300.0
13.474867851526309,1.54959832666693e+16,1.9187112384800592e+17,4.3365184929583736e+16,1.2448177846303325e+17,9136030484778.475,72493085947197.25,1504337896439748.8,6942210175847975.0
13.844365208556836,1.5692591497621768e+16,1.9453992926780243e+17,4.3915388844052136e+16,1.2606116183292925e+17,9507449053651.75,75439742141354.75,1564719882068558.2,7221120019935858.0
14.221252512727972,1.5889934924041272e+16,1.972278630298368e+17,4.4467650184222536e+16,1.2764645105691427e+17,9890896393277.799,78481794283463.92,1627005983494997.8,7508448190486986.0
14.605677562982532,1.6088027705168396e+16,1.9993536167478445e+17,4.5022008574422184e+16,1.292377598781933e+17,10286715237688.057,81621959191189.34,1691248751505626.8,7804408091066004.0
14.997791114242183,1.628688335551277e+16,2.026628614006038e+17,4.5578501834711656e+16,1.3083519686072323e+17,10695257581167.035,84863027054490.8,1757502118117189.8,8109218946903258.0
15.397746936527026,1.6486514761277972e+16,2.0541079841847862e+17,4.613716602684945e+16,1.3243886552115736e+17,11116884900471.508,88207863195369.17,1825821428007697.5,8423105933090332.0
15.805701875257567,1.6686934195466276e+16,2.08179609294243e+17,4.669803549656249e+16,1.3404886445018776e+17,11551968381804.967,91659409865332.34,1896263470747001.8,8746300303032429.0
16.221815912762718,1.6888153331737912e+16,2.1096973127665766e+17,4.726114291233113e+16,1.3566528742387987e+17,12000889152591.355,95220688080927.92,1968886513835735.0,9079039517639494.0
16.64625223101797,1.709018325709005e+16,2.137816026137916e+17,4.782651930087092e+16,1.3728822350552784e+17,12464038518087.953,98894799497664.78,2043750336558323.0,9421567375728694.0
17.079177275638333,1.7293034483414358e+16,2.1661566285865875e+17,4.839419407947644e+16,1.3891775713849998e+17,12941818202875.164,102684928322619.44,2120916264653007.0,9774134146089410.0
17.5207608211511,1.7496716957986086e+16,2.194723531651661e+17,4.8964195085374696e+16,1.405539682305025e+17,13434640597256.693,106594343265995.27,2200447205799213.0,1.0136996701640362e+16
17.97117603757412,1.7701240072933526e+16,2.2235211657534605e+17,4.953654860222568e+16,1.4219693222965091e+17,13942929008601.838,110626399531886.6,2282407685921088.5,1.0510418656074262e+16
18.430599558325603,1.7906612673735148e+16,2.252553982987719e+17,5.0111279383900904e+16,1.4384672019273171e+17,14467117917659.635,114784540848481.72,2366863886305487.0,1.0894670503332472e+16
18.899211549492115,1.811284306678913e+16,2.2818264598498653e+17,5.06884106756673e+16,1.4550339884601267e+17,15007653239873.21,119072301537931.9,2453883681532418.0,1.1290029760207098e+16
19.37719578048196,1.8319939026098772e+16,2.3113430998971168e+17,5.126796423289579e+16,1.4716703063894963e+17,15564992591720.203,123493308626092.45,2543536678215398.5,1.1696781112334276e+16
19.864739696091597,1.85279077991155e+16,2.341108436355562e+17,5.184996033741339e+16,1.4883767379112733e+17,16139605562104.332,128051283992334.33,2635894254550202.0,1.2115216563795268e+16
20.36203449001343,1.873675611178248e+16,2.3711270346788294e+17,5.2434417811617144e+16,1.5051538233277738e+17,16731973988822.299,132750046559622.52,2731029600671845.5,1.2545635590485618e+16
20.869275179813698,1.8946490172819336e+16,2.401403495064585e+17,5.302135403046566e+16,1.5220020613920243e+17,17342592240129.072,137593514525045.88,2829017759820302.0,1.2988345297385442e+16
21.38666068340997,1.9157115677287736e+16,2.4319424549346147e+17,5.361078493145684e+16,1.5389219095941952e+17,17971967501421.3,142585707630957.6,2929935670315572.5,1.3443660579849444e+16
21.91439389707817,1.936863780947597e+16,2.4627485913839408e+17,5.420272502270047e+16,1.555913784393352e+17,18620620067058.3,147730749476886.94,3033862208344918.5,1.3911904288993516e+16
22.452681775019734,1.9581061245142596e+16,2.4938266236040493e+17,5.4797187389197416e+16,1.572978061397725e+17,19289083637339.27,153032869872374.3,3140878231566928.5,1.4393407401215686e+16
23.00173541052013,1.9794390153154996e+16,2.5251813152850355e+17,5.53941836974248e+16,1.5901150754963584e+17,19977905620651.973,158496407230853.88,3251066623536327.5,1.4888509191900168e+16
23.561770118730532,2.00086281965561e+16,2.556817477001172e+17,5.59937241983217e+16,1.6073251209448186e+17,20687647440802.945,164125811004677.1,3364512338953363.0,1.5397557413358676e+16
24.133005521105144,2.0223778533094292e+16,2.5887399685841763e+17,5.6595817728771784e+16,1.6246084514077942e+17,21418884849540.742,169925644161364.6,3481302449744805.0,1.5920908477016536e+16
24.715665631527248,2.0439843815250776e+16,2.6209537014882502e+17,5.720047171168018e+16,1.641965279961309e+17,22172208244280.58,175900585701174.28,3601526191984408.5,1.6458927639833436e+16
25.309978944157795,2.0656826189792724e+16,2.6534636411507037e+17,5.78076921547231e+16,1.6593957790568634e+17,22948222991032.266,182055433215995.0,3725275013657105.0,1.7011989195003994e+16
25.91617852304095,2.087472729687919e+16,2.6862748093518557e+17,5.8417483647845736e+16,1.6769000804496186e+17,23747549752526.848,188395105489549.0,3852642623271894.5,1.7580476666984432e+16
26.53450209350177,2.1093548268750516e+16,2.7193922865777046e+17,5.902984935959458e+16,1.6944782750931507e+17,24570824821542.004,194924645138908.25,3983725039333487.5,1.816478301081631e+16
27.165192135371807,2.1313289728030224e+16,2.7528212143887354e+17,5.964479103236561e+16,1.7121304130030474e+17,25418700459419.64,201649221297284.62,4118620640680793.5,1.8765310815735596e+16
27.808495978079243,2.1533951785658404e+16,2.7865667977980406e+17,6.026230897662113e+16,1.7298565030909386e+17,26291845239756.305,208574132337950.56,4257430217693135.0,1.938247251315968e+16
28.464665897640828,2.1755534038479044e+16,2.820634307661897e+17,6.088240206413758e+16,1.7476565129706832e+17,27190944397245.01,215704808639128.88,4400257024369423.5,2.001669058909882e+16
29.133959215593645,2.1978035566510844e+16,2.855029083085758e+17,6.150506772036823e+16,1.7655303687391654e+17,28116700181654.83,223046815389759.3,4547206831294110.0,2.066839780091462e+16
29.816638399905518,2.2201454929924656e+16,2.889756533848563e+17,6.213030191598513e+16,1.7834779547335075e+17,29069832216920.81,230605855435940.2,4698387979494475.0,2.1338037398448524e+16
30.51297116790363,2.2425790165736656e+16,2.924822142848162e+17,6.275809915762444e+16,1.8014991132654506e+17,30051077865296.562,238387772167667.4,4853911435182904.0,2.2026063349694176e+16
31.223230591261704,2.265103878423898e+16,2.960231468570559e+17,6.338845247789817e+16,1.8195936443346464e+17,31061192596530.652,246398552445586.66,5013890845393008.0,2.2732940571019e+16
31.947695203086937,2.2877197765201964e+16,2.995990147585659e+17,6.402135342476624e+16,1.837761305323596e+17,32100950362041.05,254644329567569.28,5178442594528868.0,2.345914516177962e+16
32.686649107148675,2.3104263553860356e+16,3.032103897072095e+17,6.465679205030379e+16,1.8560018106752387e+17,33171143974029.504,263131386274662.28,5347685861821660.0,2.4205164643451196e+16
33.44038208929165,2.3332232056682396e+16,3.0685785173736595e+17,6.529475689886177e+16,1.8743148315531107e+17,34272585489450.645,271866157795748.66,5521742679677092.0,2.4971498203548628e+16
34.20918973107749,2.35610986369531e+16,3.105419894589849e+17,6.593523499470609e+16,1.892699995486545e+17,35406106598788.53,280855234930561.16,5700737992935322.0,2.5758656944206244e+16
34.993373525699035,2.3790858110210756e+16,3.142634003202936e+17,6.657821182924753e+16,1.911156886004123e+17,36572559019603.28,290105367170778.9,5884799719069113.0,2.6567164135163564e+16
35.793240996213015,2.4021504739530816e+16,3.180226908744047e+17,6.722367134784336e+16,1.9296850422548195e+17,37772814894738.83,299623465858354.8,6074058809289303.0,2.739755547150594e+16
36.60910581613728,2.425303223064821e+16,3.2182047705005216e+17,6.787159593614782e+16,1.9482839586162253e+17,39007767195066.05,309416607380076.4,6268649310532502.0,2.8250379336526044e+16
37.44128793246003,2.4485433726972468e+16,3.25657384426702e+17,6.852196640616189e+16,1.9669530842940976e+17,40278330126724.164,319492036398104.44,6468708428385031.0,2.9126197069248172e+16
38.29011369110923,2.471870180453754e+16,3.295340485142621e+17,6.917476198210049e+16,1.9856918229167075e+17,41585439542807.63,329857169116103.44,6674376590967562.0,3.002558323632683e+16
