t(s),Total solute volume 1,Total retention volume 1,Total 1 volume 1,Total 2 volume 1,Total 3 volume 1,Total 4 volume 1,Total 5 volume 1,Total 6 volume 1
0.1,919935341976466.9,1072551036543860.6,72903600131805.52,79712094435588.67,0.0,0.0,0.0,0.0
0.202,1385986725298030.2,1615922690492650.8,109837526177435.97,120095294154688.9,5398043.048169624,10124447.162491506,141633222.7204443,2987706781.4960103
0.30604000000000003,1740944252647139.8,2029771897578711.2,137967418063586.22,150852247321645.3,13696331.250377037,25688531.926823866,359363794.83662146,7580797684.639198
0.41216080000000005,2041187727731952.2,2379831444836135.5,161761297159870.2,176868245790127.75,24328745.29576615,45630452.00787977,638337410.9444199,13465857575.383665
0.5204040160000001,2307827362971101.5,2690713546401698.5,182892118539035.03,199972482565423.4,37044090.33329376,69479071.72004484,971963147.1354569,20503839827.251072
0.6308120963200001,2551380529189067.5,2974680308411921.5,202193369258031.25,221076284381772.47,51707670.99939723,96981759.37118535,1356706838.8557239,28620186781.683212
0.7434283382464002,2777959914624255.5,3238858458759355.5,220149471384799.3,240709313669095.22,68242520.60187662,127994157.92488587,1790549020.3545656,37772295509.43103
0.8582969050113283,2991481344059422.5,3487813425567017.5,237070748604094.44,259210875359126.4,86605256.73590694,162434900.30645427,2272351416.5227504,47936152796.82805
0.9754628431115548,3194628152139942.0,3724673691456770.5,253169851466059.44,276813479517603.16,106774186.23752832,200263299.30967766,2801544837.8314896,59099750849.13018
1.094972099973786,3389332507501769.5,3951691964687342.0,268599901656069.66,293684547922134.7,128742718.34673184,241466993.468264,3377956353.6275563,71259441304.33615
1.2168715419732616,3577039646807965.0,4170553246858569.0,283475432175783.56,309949309854773.4,152515407.1925248,286054524.42699695,4001705454.192282,84417744660.74284
1.3412089728127268,3758863715836242.5,4382556526297332.5,297884737533260.9,325704305681098.0,178105427.25722864,334050601.97771776,4673137811.593519,98581952896.72884
1.4680331522689813,3935684983094748.0,4588728118263660.0,311897577787226.6,341025810378104.06,205532888.18472597,385492943.3505837,5392781063.390728,113763196686.88574
1.597393815314361,4108213280069542.5,4789895629147653.0,325570206098725.8,355975330610816.44,234823669.8126238,440430088.22599167,6161314246.057901,129975800572.89154
1.729341691620648,4277030966974096.0,4986738049681120.0,338948773707194.0,370603327700364.94,266008594.71111897,498919846.7666927,6979546083.956499,147236824950.73264
1.863928525453061,4442622950894363.5,5179820752691783.0,352071708826836.75,384951818686405.6,299122828.13131225,561028174.1741222,7848399245.108813,165565733933.05283
2.001207095962122,4605398219941384.0,5369620599477409.0,364971423198361.9,399056242254357.75,334205436.16338956,626828341.9796923,8768898748.102533,184984150783.26373
2.1412312378813647,4765705646940890.0,5556544365108993.0,377675564509474.1,412946828119925.3,371299057.0394156,696400321.5476406,9742163337.697397,205515675976.9561
2.284055862638992,4923845819675239.0,5740942531146188.0,390207953925135.94,426649622115665.8,410449655.33134097,769830323.0543417,10769399035.446575,227185751147.0364
2.4297369798917723,5080080052168927.0,5923119791772797.0,402589300219459.25,440187267015929.75,451706338.2034959,847210450.8556716,11851894318.51083,250021557376.9034
2.578331719489608,5234637355328114.0,6103343180773713.0,414837752189214.7,453579606540471.56,495121219.0318324,928638447.6943684,12991016541.286572,274051939711.75122
2.7298983538794,5387719903667368.0,6281848445124474.0,426969331884356.06,466844159044543.0,540749317.8308845,1014217507.9431957,14188209322.79903,299307352043.4362
2.884496320956988,5539507375805853.0,6458845105527032.0,438998278586308.1,479996493621439.75,588648490.7636884,1104056145.3954723,15444990697.17727,325819818093.12537
3.0421862473761276,5690160439339765.0,6634520519389304.0,450937324979294.7,493050532065572.3,638879382.9953239,1198268104.8383327,16762951876.621317,353622905314.9111
3.2030299723236504,5839823577163855.0,6809043176012083.0,462797921132388.25,506018793772289.0,691505400.5670143,1296972309.3006296,18143756513.433044,382751709327.55133
3.3670905717701234,5988627400893684.0,6982565393796819.0,474590417835020.0,518912596195155.44,746592697.9949543,1400292836.793726,19589140374.63417,413242847050.0073
3.5344323832055258,6136690560388910.0,7155225546681331.0,486324217927225.2,531742220317856.4,804210179.2539824,1508358924.5724645,21100912097.030426,445134566141.9201
3.7051210308696363,6284121332733806.0,7327149916236647.0,498007902211344.1,544517048289084.25,864429508.9736916,1621304980.5098226,22680950575.594196,478466317355.8415
3.879223451487029,6431018952564587.0,7498454243453902.0,509649334897989.0,557245678770225.25,927325135.2818643,1739270640.323271,24331209904.11734,513279415432.0308
4.0568079205167695,6577474735002446.0,7669245037490017.0,521255752583896.3,569936024186513.4,992974319.1027945,1862400812.9742022,26053717260.509266,549616624764.926
4.237944078927105,6723573028082415.0,7839620686248842.0,532833839733885.7,582595393267465.9,1061457171.9082072,1990845753.8524806,27850574615.59105,587522287542.4576
4.422702960505647,6869392025676779.0,8009672404193078.0,544389793103914.75,595230561486410.5,1132856699.960817,2124761147.7589335,29723959893.967655,627042348238.9414
4.61115701971576,7015004464973317.0,8179485045562157.0,555929377015258.3,607847831496762.5,1207258854.6273453,2264308203.271609,31676128294.146168,668224381463.5371
4.803380160110075,7160478227891362.0,8349137805594779.0,567457971015899.1,620453085244521.2,1284752588.2638881,2409653757.563405,33709413754.863773,711117622893.0422
4.9994477633122765,7305876862093562.0,8518704828011238.0,578980611169986.1,633051829113769.9,1365429915.2753565,2560970390.9241343,35826230557.17264,755773003068.615
5.199436718578522,7451260034328435.0,8688255733603144.0,590502025984608.0,645649233208654.2,1449385978.0305574,2718436550.3896813,38029075053.92752,802243183880.1064
5.403425452950093,7596683926526142.0,8857856082081853.0,602026667799832.1,658250165674959.2,1536719117.379498,2882236682.003051,40320527520.028145,850582597597.7927
5.611493962009095,7742201583229057.0,9027567777190760.0,613558740322083.5,670859222804844.8,1627530947.5730414,3052561371.3323574,42703254118.17059,900847488340.8478
5.823723841249277,7887863217461585.0,9197449423364706.0,625102222863927.6,683480755540376.9,1721926435.429291,3229607491.95393,45180008976.02412,953095955896.39
6.040198318074262,8033716480953325.0,9367556640830980.0,636660891758859.1,696118892888256.9,1820013983.6279209,3413578361.677658,47753636371.71882,1007388001823.4143
6.261002284435747,8179806703661761.0,9537942344919586.0,648238339343160.5,708777562674409.1,1921905518.0447235,3604683906.3502326,50427073025.340965,1063785577793.0074
6.486222330124463,8326177106752422.0,9708656994429346.0,659837990834260.9,721460509998616.8,2027716579.0650072,3803140831.1209083,53203350494.82525,1122352636130.8835
6.715946776726952,8472868992545824.0,9879748813142442.0,671463119383799.5,734171313693381.2,2137566416.836733,4009172799.096602,56085597675.218346,1183155182540.5742
6.950265712261491,8619921914407501.0,1.005126398795659e+16,683116859541148.8,746913401044826.4,2251578090.4436126,4223010617.3493466,59077043400.79734,1246261330996.4321
7.18927102650672,8767373829113874.0,1.0223246846588184e+16,694802219328208.2,759690060995151.2,2369878570.9953055,4444892430.270383,62181019149.962135,1311741360804.661
7.433056447036854,8915261233858790.0,1.0395740017370462e+16,706522091096986.1,772504456014209.9,2492598848.6460648,4675063920.292559,65400961853.20627,1379667775838.8784
7.681717575977592,9063619289757306.0,1.0568784573310806e+16,718279261317099.5,785359632801066.8,2619874043.566561,4913778516.027135,68740416804.80952,1450115365963.7039
7.935351927497144,9212481933444800.0,1.0742420162271142e+16,730076419419836.4,798258531954019.2,2751843520.90455,5161297607.882118,72203040679.19199,1523161270666.292
8.194058966047088,9361881978150976.0,1.0916685124879154e+16,741916165808162.1,811203996728641.4,2888651009.780805,5417890771.24897,75792604653.1464,1598885044921.33
8.45794014536803,9511851205445054.0,1.109161660156554e+16,753801019127368.0,824198780987458.9,3030444726.3756685,5683835997.361684,79512997635.39883,1677368727320.292
8.72709894827539,9662420448689966.0,1.1267250629937422e+16,765733422878709.4,837245556431237.0,3177377501.1702495,5959419931.948274,83368229605.18173,1758696910500.2676
9.0016409272409,9813619669111978.0,1.1443622233544208e+16,777715751447830.2,850346919190386.8,3329606910.41399,6244938121.809034,87362435061.6991,1842956813912.1445
9.281673745785717,9965478025276476.0,1.1620765502958356e+16,789750315610602.9,863505395845012.4,3487295411.8976283,6540695269.470245,91499876586.55573,1930238358971.8862
9.567307220701432,1.0118023936663468e+16,1.1798713669979736e+16,801839367571410.9,876723448933717.6,3650610485.117359,6847005496.073655,95784948521.4059,2020634246642.2969
9.85865336511546,1.0271285141952368e+16,1.197749917567412e+16,813985105582141.4,890003482003960.1,3819724775.9223456,7164192612.674959,100222180763.23596,2114240037496.428
10.155826432417769,1.0425288752552622e+16,1.21571537328711e+16,826189678184394.2,903347844250454.1,3994816245.7438593,7492590400.135667,104816242679.85974,2211154234316.9214
10.458942961066125,1.0580061301853806e+16,1.2337708383674676e+16,838455188112507.6,916758834782689.0,4176068325.5101075,7832542897.803144,109571947148.35971,2311478367288.9014
10.768121820287448,1.0735628790615e+16,1.251919355247482e+16,850783695890582.2,930238706557890.2,4363670074.35648,8184404701.185115,114494254719.35019,2415317081847.1787
11.083484256693197,1.0892016728864884e+16,1.2701639094894352e+16,863177223153023.1,943789670011662.5,4557816343.246287,8548541268.834051,119588277910.08417,2522778229241.4756
11.405153941827061,1.104925017464364e+16,1.2885074343056032e+16,875637755714767.1,957413896414950.1,4758707943.6225815,8925329238.66798,124859285629.5653,2633972959886.3345
11.733257020663602,1.1207353769880592e+16,1.3069528147513848e+16,888167246414547.5,971113520982832.9,4966551821.2166,9315156753.962727,130312707738.9613,2749015819565.307
12.067922161076874,1.136635177367084e+16,1.325502891615414e+16,900767617752015.8,984890645757930.2,5181561235.1437645,9718423799.261726,135954139750.75362,2868024848561.8228
12.409280604298411,1.1526268093185636e+16,1.344160465034169e+16,913440764337336.2,998747342288767.9,5403955942.42306,10135542546.457735,141789347670.1877,2991121683791.9526
12.75746621638438,1.1687126312426724e+16,1.362928297855511e+16,926188555169953.6,1012685654121350.8,5633962388.060931,10566937711.311125,147824272982.7231,3118431664017.1143
13.112615540712067,1.1848949719014264e+16,1.3818091187732862e+16,939012835761475.1,1026707599120313.0,5871813900.845589,11013046920.679033,154065037791.31894,3250083938217.636
13.474867851526309,1.201176132917754e+16,1.4008056252527338e+16,951915430116154.4,1040815171634353.2,6117750895.002926,11474321090.737911,160517950107.51636,3386211577210.673
13.844365208556836,1.2175583911101646e+16,1.4199204862645764e+16,964898142581088.6,1055010344519231.9,6372021077.87025,11951224816.493477,167189509300.413,3526951688599.0146
14.221252512727972,1.2340440006768138e+16,1.439156344843873e+16,977962759577068.2,1069295071030241.6,6634879663.749011,12444236772.879757,174086411707.77386,3672445535140.1157
14.605677562982532,1.2506351952414292e+16,1.458515820488195e+16,991111051219916.9,1083671286594999.6,6906589594.103178,12953850127.759806,181215556413.62976,3822838656627.315
14.997791114242183,1.2673341897723582e+16,1.478001511408253e+16,1004344772841345.1,1098140910476300.9,7187421764.274647,13480572967.150103,188584051196.87732,3978280995378.428
15.397746936527026,1.2841431823849988e+16,1.4976159966429276e+16,1017665666417322.6,1112705847333913.5,7477655256.892826,14024928733.000298,196199218655.5235,4138927025429.464
15.805701875257567,1.3010643560368328e+16,1.5173618380495352e+16,1031075461911388.0,1127367988693325.2,7777577582.160632,14587456673.869896,204068602511.34787,4304935885534.4604
16.221815912762718,1.3180998801235462e+16,1.537241582179117e+16,1044575878539539.9,1142129214328756.2,8087484925.204217,15168712308.854422,212199974099.91336,4476471516075.2295
16.64625223101797,1.3352519119838546e+16,1.5572577620457836e+16,1058168625962800.0,1156991393567131.2,8407682400.680067,15769267905.122803,220601339050.9921,4653702799987.837
17.079177275638333,1.352522598320085e+16,1.5774128987982024e+16,1071855405412990.9,1171956386518945.2,8738484314.837671,16389712969.438717,229280944164.61493,4836803707815.987
17.5207608211511,1.3699140765408076e+16,1.597709503300726e+16,1085637910756775.4,1187026045241714.5,9080214435.242685,17030654754.049429,238247284488.11087,5025953447004.049
17.97117603757412,1.3874284760314502e+16,1.618150077630919e+16,1099517829502574.0,1202202214840895.8,9433206268.369844,17692718777.33602,247509110599.6521,5221336615546.396
18.430599558325603,1.4050679193581004e+16,1.6387371164997548e+16,1113496843754580.5,1217486734513044.0,9797803345.282873,18376549359.630463,257075436103.96213,5423143360112.343
18.899211549492115,1.42283452340948e+16,1.6594731086001638e+16,1127576631117756.0,1232881438535270.5,10174359515.621984,19082810174.614716,266955545346.02142,5631569538769.418
19.37719578048196,1.4407304004814852e+16,1.6803605378891026e+16,1141758865557312.5,1248388157205029.8,10563239250.128046,19812184816.731804,277159001348.7462,5846816888431.357
19.864739696091597,1.4587576593084346e+16,1.7014018848080472e+16,1156045218215950.0,1264008717733676.2,10964817951.936813,20565377385.045036,287695653980.7808,6069093197160.184
20.36203449001343,1.4769184060447424e+16,1.7225996274461532e+16,1170437358191846.2,1279744945097088.8,11379482276.884396,21343113083.99907,298575648360.72833,6298612481455.471
20.869275179813698,1.4952147452005076e+16,1.7439562426502972e+16,1184936953280066.5,1295598662846347.8,11807630463.07011,22146138841.54398,309809433504.26965,6535595168667.151
21.38666068340997,1.5136487805341626e+16,1.7654742070855342e+16,1199545670680000.8,1311571693881218.8,12249672669.930384,22975223945.09845,321407771220.8408,6780268284672.372
21.91439389707817,1.5322226159050652e+16,1.787155998249486e+16,1214265177671023.2,1327665861188921.0,12706031327.083368,23831160695.83864,333381745266.6662,7032865646959.345
22.452681775019734,1.5509383560887526e+16,1.8090040954437236e+16,1229097142258550.5,1343882988550536.8,13177141493.210848,24714765081.812683,345742770761.1524,7293628063266.409
23.00173541052013,1.5697981075571898e+16,1.8310209807049904e+16,1244043233792416.2,1360224901217087.0,13663451225.250221,25626877470.393295,358502603873.78613,7562803535926.515
23.561770118730532,1.588803979226318e+16,1.8532091396988864e+16,1259105123559251.2,1376693426557305.8,14165421958.176434,26568363320.59271,371673351788.90234,7840647472072.12
24.133005521105144,1.607958083172812e+16,1.875571062578297e+16,1274284485350541.2,1393290394678687.8,14683528895.660576,27540113915.776947,385267482955.8029,8127422899858.987
24.715665631527248,1.6272625353219188e+16,1.898109244808742e+16,1289582996007696.5,1410017639023485.8,15218261411.897371,28543047117.32989,399297837631.9485,8423400690870.293
25.309978944157795,1.6467194561078454e+16,1.9208261879624024e+16,1305002335945427.0,1426876996940970.2,15770123464.901705,29578108139.827522,413777638727.0405,8728859788867.09
25.91617852304095,1.6663309711081736e+16,1.9437244004825744e+16,1320544189654489.5,1443870310237114.0,16339634021.579721,30646270348.296864,428720502956.04694,9044087445053.693
26.53450209350177,1.6860992116533566e+16,1.9668063984196932e+16,1336210246184709.8,1460999425702729.0,16927327494.886135,31748536078.14354,444140452309.33014,9369379460030.434
27.165192135371807,1.706026315412243e+16,1.9900747061402372e+16,1352002199609006.8,1478266195620842.5,17533754193.38519,32885937478.344284,460051925848.2103,9705040432609.18
27.808495978079243,1.7261144269542536e+16,2.013531857009087e+16,1367921749468902.5,1495672478253783.5,18159480783.538307,34059537378.508244,476469791834.42163,10051384015669.291
28.464665897640828,1.7463656982886214e+16,2.037180394045889e+16,1383970601201870.2,1513220138310443.5,18805090765.04422,35270430180.42093,493409360202.0456,10408733179235.594
29.133959215593645,1.7667822893806828e+16,2.061022870555503e+16,1400150466550480.5,1530911047393667.5,19471184959.563885,36519742774.69172,510886395380.59033,10777420480959.9
29.816638399905518,1.787366368645006e+16,2.085061850732195e+16,1416463063953204.2,1548747084427511.5,20158382013.162327,37808635483.128815,528917129477.9505,11157788344190.707
30.51297116790363,1.8081201134146492e+16,2.109299910236824e+16,1432910118916288.2,1566730136063881.5,20867318912.802395,39138303027.47021,547518275832.05457,11550189343816.031
31.223230591261704,1.8290457103854404e+16,2.1337396367457748e+16,1449493364365843.8,1584862097067469.8,21598651517.225098,40509975525.097595,566707042939.93,11954986500063.162
31.947695203086937,1.850145356033706e+16,2.1583836304697468e+16,1466214540978890.5,1603144870677751.0,22353055102.54895,41924919512.35794,586501148772.9486,12372553580440.242
32.686649107148675,1.8714212570053132e+16,2.183234504640025e+16,1483075397491661.8,1621580368946043.5,23131224922.91654,43384438996.10682,606918835486.842,12803275409998.99
33.44038208929165,1.8928756304732748e+16,2.2082948859589076e+16,1500077690983008.5,1640170513045406.2,23933876786.5103,44889876534.07845,627978884534.9277,13247548190098.064
34.20918973107749,1.9145107044604876e+16,2.2335674150105384e+16,1517223187130174.5,1658917233550283.5,24761747647.249428,46442614344.66753,649700632192.7288,13705779825837.916
34.993373525699035,1.9363287181235684e+16,2.2590547466271228e+16,1534513660433687.0,1677822470682413.8,25615596212.467262,48044075446.682686,672103985501.8564,14178390262332.277
35.793240996213015,1.9583319219925856e+16,2.284759550204894e+16,1551950894407412.5,1696888174518624.5,26496203566.851067,49695724829.603935,695209438640.5183,14665811829972.688
36.60910581613728,1.9805225781611676e+16,2.3106845099629308e+16,1569536681729144.2,1716116305155476.0,27404373812.906548,51399070654.83137,719038089727.552,15168489598829.326
37.44128793246003,2.0029029604198924e+16,2.336832325137077e+16,1587272824346347.0,1735508832824901.2,28340934728.18217,53155665488.37032,743611658066.1486,15686881742318.613
38.29011369110923,2.0254753543253344e+16,2.3632057100996364e+16,1605161133530899.8,1755067737954024.5,29306738439.45761,54967107565.33356,768952501832.605,16221459910249.75
39.15591596493141,2.0482420571958692e+16,2.3898073943947616e+16,1623203429875694.0,1774795011161486.5,30302662114.065647,56835042086.57883,795083636214.5675,16772709611342.904
40.03903428423004,2.0712053780241084e+16,2.416640122677656e+16,1641401543225325.2,1794692653181627.0,31329608668.47017,58761162547.712494,822028752001.9686,17341130605287.43
40.93981496991464,2.0943676372949772e+16,2.4437066545447064e+16,1659757312531870.2,1814762674706804.5,32388507494.17772,60747212100.603195,849812234632.6788,17927237304380.773
41.85861126931294,2.1177311666969044e+16,2.4710097642400828e+16,1678272585626015.8,1835007096137158.0,33480315200.998,62794984947.437004,878459183693.2994,18531559184757.88
42.7957834946992,2.1412983087126324e+16,2.498552240222933e+16,1696949218892792.2,1855427947226036.2,34606016377.60964,64906327767.227104,907995432873.907,19154641207184.7
43.751699164593184,2.165071416074812e+16,2.5263368845779844e+16,1715789076840138.5,1876027266608294.5,35766624369.30954,67083141174.55659,938447570373.6031,19797044247349.047
44.72673314788505,2.1890528510704964e+16,2.5543665122508836e+16,1734794031547711.8,1896807101197595.2,36963182072.74752,69327381210.17659,969842959751.6229,20459345535538.26
