t(s),Total solute volume 1,Total retention volume 1,Total 1 volume 1,Total 2 volume 1,Total 3 volume 1,Total 4 volume 1,Total 5 volume 1,Total 6 volume 1
0.1,1390364305082634.2,4522349373840332.0,1040967157064613.5,2091017911693084.5,0.0,0.0,0.0,-7.577716622845604e-138
0.202,2036012236050843.0,6821986690712631.0,1524364624597962.8,3062033367029230.5,33506094682.41465,159993870715.70126,8305358745650.928,191077604323546.94
0.30604000000000003,2499179089476255.0,8647974668903796.0,1871138192267943.2,3758607348712596.5,83079111215.36177,396744164818.3963,20727547980347.297,497842667190617.6
0.41216080000000005,2865968629103478.0,1.0245534290402212e+16,2145753945133047.2,4310235790411519.5,144341421264.27408,689328054821.922,36111388766509.82,886630867511581.0
0.5204040160000001,3170989499819862.5,1.1709945945378976e+16,2374123422728985.0,4768968013870743.0,215080292324.68958,1027175540252.0765,53891588956443.39,1340731164170362.5
0.6308120963200001,3432066603499205.0,1.3088948044924168e+16,2569592151306768.0,5161611573320428.0,293922621778.40204,1403728064901.1763,73720179845811.56,1850259886265267.2
0.7434283382464002,3659831897111389.5,1.4410303310109064e+16,2740120289771729.5,5504156270055904.0,379922661613.741,1814468507297.6553,95358301729643.45,2408642160271484.5
0.8582969050113283,3861254243881238.5,1.5691802035627104e+16,2890925434170013.5,5807082837978717.0,472387966934.88477,2256089669859.036,118631408504246.9,3011179633456095.5
0.9754628431115548,4041209151430275.0,1.6945653481617654e+16,3025657882675676.5,6077723734149346.0,570791323450.9922,2726073561934.8467,143406775492649.16,3654359072984315.0
1.094972099973786,4203273839029319.5,1.8180679432016356e+16,3146995903435470.0,6321458870973966.0,674720635200.9276,3222452029104.213,169580754650588.12,4335472891262702.5
1.2168715419732616,4350169657212106.0,1.940351707908852e+16,3256976974672199.5,6542380987877299.0,783847964059.3284,3743658869667.2764,197070921645663.6,5052391030847525.0
1.3412089728127268,4484026425483656.5,2.061932700145505e+16,3357195694643182.5,6743693198756835.0,897909195475.0289,4288432710057.262,225810928295338.5,5803414412370505.0
1.4680331522689813,4606549423720262.0,2.1832233660936492e+16,3448928808298755.0,6927960136617766.0,1016690037725.7069,4855750133034.609,255746963820800.47,6587175888308138.0
1.597393815314361,4719129731509657.0,2.304561204428714e+16,3533217818475335.0,7097273897031886.0,1140016013546.2793,5444777875502.061,286835228503401.6,7402570574877821.0
1.729341691620648,4822919879677796.0,2.426228121663916e+16,3610925626281340.0,7253367813288074.0,1267745084264.026,6054837600296.103,319040073991262.8,8248705240716150.0
1.863928525453061,4918887349699623.0,2.5484639141783388e+16,3682776586167736.0,7397696916144571.0,1399762075180.8357,6685379271373.494,352332599220579.56,9124860549204322.0
2.001207095962122,5007853416020198.0,2.671475911264297e+16,3749385587218387.5,7531496350235998.0,1535974372176.6777,7335960600719.311,386689567553025.06,1.003046225664245e+16
2.1412312378813647,5090521992353098.0,2.795446031970092e+16,3811279650406578.5,7655824757088929.0,1676308539387.5408,8006230894519.063,422092556431986.94,1.0965058823986402e+16
2.284055862638992,5167501480082395.0,2.920536053597565e+16,3868914286518377.5,7771597133740502.0,1820707619547.5186,8695918159854.241,458527279218149.5,1.192830373063684e+16
2.4297369798917723,5239321604497260.0,3.0468916150338056e+16,3922686101460522.0,7879610153372348.0,1969128950374.4795,9404818676084.723,495983037068166.8,1.2919941306313278e+16
2.578331719489608,5306446588177326.0,3.1746453068648428e+16,3972942659188834.5,7980561977249596.0,2121542377869.2515,10132788461918.098,534452270752678.5,1.3939795242440204e+16
2.7298983538794,5369285599374894.0,3.303919090441056e+16,4019990304423745.5,8075067968426880.0,2277928779626.179,10879736223099.82,573930190469762.8,1.498775917671253e+16
2.884496320956988,5428201140495511.0,3.4348262159137036e+16,4064100443115007.5,8163673307491925.0,2438278833621.293,11645617472498.348,614414467369832.6,1.6063788904358654e+16
3.0421862473761276,5483515856930942.0,3.5674727607801684e+16,4105514640222571.5,8246863232618929.0,2602591983783.56,12430429590012.324,655904974513402.1,1.7167895881942034e+16
3.2030299723236504,5535518118702701.0,3.701958877242378e+16,4144448798699231.5,8325071434006396.0,2770875565073.4966,13234207644267.266,698403567869100.8,1.8300141769937e+16
3.3670905717701234,5584466637418342.0,3.838379813490153e+16,4181096616210939.0,8398686997486380.0,2943144059159.882,14057020838028.926,741913900072608.0,1.9460633818816096e+16
3.5344323832055258,5630594316682645.0,3.9768267575685016e+16,4215632467943887.0,8468060195298337.0,3119418458005.962,14898969468972.635,786441261237582.5,2.064952094659559e+16
3.7051210308696363,5674111487368892.0,4.117387540642202e+16,4248213828855640.5,8533507351731449.0,3299725717364.126,15760182319835.732,831992442292365.1,2.186699038813648e+16
3.879223451487029,5715208644751657.0,4.260147227825184e+16,4278983322969490.5,8595314959598258.0,3484098285754.0776,16640814409060.992,878575617217980.9,2.311326482101962e+16
4.0568079205167695,5754058778859027.0,4.405188618352071e+16,4308070468111668.0,8653743184936077.0,3672573697258.606,17541045046215.896,926200241258289.6,2.438859989161221e+16
4.237944078927105,5790819370066349.0,4.552592672092064e+16,4335593170014598.5,8709028868252916.0,3865194218622.363,18461076146747.707,974876962714916.1,2.569328207950652e+16
4.422702960505647,5825634107218092.0,4.702438875794837e+16,4361659008676541.5,8761388108473228.0,4062006542832.6113,19401130768722.773,1024617546365935.5,2.702762684990301e+16
4.61115701971576,5858634374222348.0,4.854805559702882e+16,4386366351376559.5,8811018498681347.0,4263061522706.58,20361451840625.504,1075434806885721.8,2.8391977052499484e+16
4.803380160110075,5889940542252025.0,5.009770173042136e+16,4409805320146938.0,8858101069509640.0,4468413939087.926,21342301054440.004,1127342550914357.5,2.9786701532604844e+16
4.9994477633122765,5919663097783409.0,5.167409525253617e+16,4432058636336840.0,8902801985636487.0,4678122299125.714,22343957902397.355,1180355526643765.8,3.1212193925934156e+16
5.199436718578522,5947903631249518.0,5.327799998537101e+16,4453202360818187.0,8945274032657909.0,4892248660817.349,23366718839151.875,1234489379965508.8,3.2668871613179836e+16
5.403425452950093,5974755706746212.0,5.491017736258384e+16,4473306545135513.0,8985657925069945.0,5110858480577.44,24410896553923.895,1289760616370796.5,3.4157174814226836e+16
5.611493962009095,6000305629749765.0,5.657138810961734e+16,4492435806296984.5,9024083460866958.0,5334020481073.088,25476819339430.152,1346186567913296.0,3.567756580496981e+16
5.823723841249277,6024633126997833.0,5.826239375080217e+16,4510649835801961.0,9060670544039080.0,5561806536963.167,26564830546320.77,1403785364644718.2,3.7230528242235336e+16
6.040198318074262,6047811950405433.0,5.998395796915239e+16,4528003851793587.0,9095530092823362.0,5794291576510.785,27675288113423.918,1462575910016299.5,3.881656658442375e+16
6.261002284435747,6069910415025609.0,6.173684784033173e+16,4544549001830445.0,9128764848762196.0,6031553497316.098,28808564165428.434,1522577859808766.5,4.0436205597241944e+16
6.486222330124463,6090991879533505.0,6.352183495882884e+16,4560332722625617.0,9160470099320646.0,6273673094651.231,29965044670754.54,1583811604212140.2,4.208998993537151e+16
6.715946776726952,6111115176449072.0,6.533969647155642e+16,4575399062154767.0,9190734324914052.0,6520734001078.334,31145129153312.562,1646298252726381.5,4.377848379215774e+16
6.950265712261491,6130334998263468.0,6.719121603176759e+16,4589788968749440.0,9219639779617214.0,6772822636200.618,32349230452659.355,1710059621596256.0,4.550227061045235e+16
7.18927102650672,6148702244758661.0,6.9077184684262376e+16,4603540551135647.0,9247263013511202.0,7030028165541.519,33577774527752.457,1775118223529869.5,4.726195284863369e+16
7.433056447036854,6166264336075914.0,7.099840169126246e+16,4616689312828535.0,9273675343518076.0,7292442467671.15,34831200300096.938,1841497259481460.2,4.905815179659067e+16
7.681717575977592,6183065495470305.0,7.295567530699891e+16,4629268363831017.0,9298943278645812.0,7560160108806.759,36109959532591.45,1909220612305668.5,5.089150743710467e+16
7.935351927497144,6199147005166319.0,7.494982350794317e+16,4641308612193128.0,9323128904778758.0,7833278324206.299,37414516740822.8,1978312842113721.8,5.2762678348626264e+16
8.194058966047088,6214547438285939.0,7.69816746846737e+16,4652838937656838.0,9346290233482562.0,8111897005754.9375,38745349133942.95,2048799183181980.2,5.467234164592671e+16
8.45794014536803,6229302869442423.0,7.905206830057506e+16,4663886349327854.0,9368481518723978.0,8396118695214.371,40102946582597.664,2120705542280760.0,5.662119295552226e+16
8.72709894827539,6243447066270260.0,8.116185552189898e+16,4674476129074248.0,9389753544919424.0,8686048582666.015,41487811611666.22,2194058498306617.2,5.860994642313418e+16
9.0016409272409,6257011663883768.0,8.331189982314222e+16,4684631962143898.0,9410153889309892.0,8981794509732.775,42900459415831.38,2268885303114625.5,6.063933475076453e+16
9.281673745785717,6270026324018573.0,8.550307757121014e+16,4694376056313773.0,9429727161299398.0,9283466977211.232,44341417896219.41,2345213883458894.0,6.271010926124606e+16
9.567307220701432,6282518880403421.0,8.773627859141848e+16,4703729250730045.0,9448515221084942.0,9591179156787.336,45811227716552.04,2423072843959887.0,6.482303998836685e+16
9.85865336511546,6294515471731099.0,9.001240671802718e+16,4712711115463562.0,9466557379636384.0,9905046906545.785,47310442377423.78,2502491471026281.0,6.697891579088587e+16
10.155826432417769,6306040663442288.0,9.23323803316932e+16,4721340042689480.0,9483890581851512.0,10225188790015.04,48839628307474.305,2583499737667070.0,6.917854448894534e+16
10.458942961066125,6317117559400095.0,9.469713288596157e+16,4729633330298189.0,9500549574507508.0,10551726098518.93,50399364970362.92,2666128309136774.5,7.142275302155012e+16
10.768121820287448,6327767904415484.0,9.710761342468645e+16,4737607258656180.0,9516567060452662.0,10884782876631.537,51990244986572.66,2750408549363093.5,7.371238762393586e+16
11.083484256693197,6338012178479714.0,9.956478709207307e+16,4745277161157958.0,9531973840325904.0,11224485950554.137,53612874269180.195,2836372528111791.0,7.604831402377782e+16
11.405153941827061,6347869683469219.0,1.0206963563685784e+17,4752657489142113.0,9546798942955512.0,11570964959253.797,55267872172826.37,2924053028848771.0,7.843141765531011e+16
11.733257020663602,6357358623008162.0,1.0462315791199488e+17,4759761871684490.0,9561069745467320.0,11924352388220.95,56955871655205.35,3013483557263826.0,8.086260389052758e+16
12.067922161076874,6366496176103407.0,1.0722637037108264e+17,4766603170728753.0,9574812084026964.0,12284783605719.713,58677519450470.08,3104698350424431.5,8.334279828674275e+16
12.409280604298411,6375298565104094.0,1.0988030756265144e+17,4773193531967860.0,9588050356046860.0,12652396901418.982,60433476254020.25,3197732386531757.0,8.587294684984555e+16
12.75746621638438,6383781118482853.0,1.1258602262333246e+17,4779544431848325.0,9600807614605134.0,13027333527305.48,62224416918201.51,3292621395254156.5,8.845401631269645e+16
13.112615540712067,6391958328886529.0,1.1534458777083437e+17,4785666721032939.0,9613105655750256.0,13409737740791.809,64051030658500.01,3389401868616452.5,9.108699442814894e+16
13.474867851526309,6399843906860675.0,1.1815709479758707e+17,4791570664624360.0,9624965099299204.0,13799756849942.854,65914021269867.75,3488111072425816.5,9.377289027625722e+16
13.844365208556836,6407450830613260.0,1.2102465556582955e+17,4797265979423195.0,9636405463679064.0,14197541260753.652,67814107352859.59,3588787058217674.0,9.651273458528285e+16
14.221252512727972,6414791392148294.0,1.2394840250487298e+17,4802761868468361.0,9647445235308918.0,14603244526420.3,69752022549302.48,3691468675706856.5,9.930758006616491e+16
14.605677562982532,6421877240069022.0,1.269294891112043e+17,4808067053083845.0,9658101932973314.0,15017023398553.531,71728515787258.52,3796195585731572.5,1.0215850176016082e+17
14.997791114242183,6428719419322790.0,1.2996909045205846e+17,4813189802635742.0,9668392167595882.0,15439037880291.162,73744351535072.55,3903008273679207.5,1.0506659739940952e+17
15.397746936527026,6435328408134503.0,1.3306840367303965e+17,4818137962184380.0,9678331697785098.0,15869451281272.979,75800310064329.23,4011948063384815.5,1.0803298778020525e+17
15.805701875257567,6441714152353547.0,1.362286485103394e+17,4822918978199919.0,9687935481489692.0,16308430274446.316,77897187721571.89,4123057131494421.5,1.1105881714880582e+17
16.221815912762718,6447886097418686.0,1.3945106780806421e+17,4827539922494447.0,9697217724071982.0,16756144954676.934,80035797208659.0,4236378522286840.5,1.1414525359962904e+17
16.64625223101797,6453853218127594.0,1.4273692804115866e+17,4832007514510537.0,9706191923079288.0,17212768899144.143,82216967871661.88,4351956162948665.0,1.172934894857217e+17
17.079177275638333,6459624046381121.0,1.46087519844384e+17,4836328142093328.0,9714870909969638.0,17678479229503.734,84441545998222.62,4469834879298413.5,1.2050474184141387e+17
17.5207608211511,6465206697057862.0,1.4950415854779187e+17,4840507880862945.0,9723266889025458.0,18153456675806.543,86710395123315.67,4590060411956787.0,1.2378025281708973e+17
17.97117603757412,6470608892161218.0,1.5298818471910752e+17,4844552512293326.0,9731391473669220.0,18637885642163.652,89024396343373.88,4712679432960871.0,1.271212901260375e+17
18.430599558325603,6475837983368966.0,1.565409647134286e+17,4848467540595213.0,9739255720376610.0,19131954274153.895,91384448638753.11,4837739562821071.0,1.3052914750335371e+17
18.899211549492115,6480900973104688.0,1.6016389123062077e+17,4852258208492245.0,9746870160366548.0,19635854527970.758,93791469204529.17,4965289388020381.0,1.3400514517690427e+17
19.37719578048196,6485804534240172.0,1.6385838388078864e+17,4855929511972267.0,9754244829232522.0,20149782241310.89,96246393789631.94,5095378478956207.0,1.3755063035035656e+17
19.864739696091597,6490555028529247.0,1.6762588975817546e+17,4859486214088744.0,9761389294665828.0,20673937206006.92,98750177044335.77,5228057408325866.0,1.4116697769831563e+17
20.36203449001343,6495158523865194.0,1.7146788402385027e+17,4862932857881305.0,9768312682409552.0,21208523242411.957,101303792876139.47,5363377769957295.0,1.4485558987361866e+17
20.869275179813698,6499620810446095.0,1.7538587049751814e+17,4866273778478949.0,9775023700570398.0,21753748275543.76,103908234814074.5,5501392198087287.0,1.486178980268459e+17
21.38666068340997,6503947415926555.0,1.7938138225879302e+17,4869513114443956.0,9781530662405872.0,22309824412999.945,106564516381499.75,5642154387090067.0,1.5245536233813178e+17
21.91439389707817,6508143619627086.0,1.834559822582585e+17,4872654818410590.0,9787841507694234.0,22876968024657.266,109273671477442.0,5785719111659531.0,1.5636947256136502e+17
22.452681775019734,6512214465867379.0,1.87611263938642e+17,4875702667067720.0,9793963822787022.0,23455399824169.89,112036754766557.36,5932142247448895.0,1.6036174858088032e+17
23.00173541052013,6516164776484542.0,1.918488518664154e+17,4878660270531229.0,9799904859435706.0,24045344952283.523,114854842077794.77,6081480792172243.0,1.6443374098076138e+17
23.561770118730532,6519999162592411.0,1.9617040237414198e+17,4881531081148187.0,9805671552476738.0,24647033061983.92,117729030811851.03,6233792887172496.0,1.6858703162687818e+17
24.133005521105144,6523722035633793.0,2.005776042138805e+17,4884318401771732.0,9811270536453752.0,25260698405500.254,120660440357515.02,6389137839461135.0,1.7282323426179712e+17
24.715665631527248,6527337617773830.0,2.050721792219512e+17,4887025393542596.0,9816708161248338.0,25886579923184.98,123650212517007.61,6547576144235121.0,1.771439951127111e+17
25.309978944157795,6530849951678770.0,2.09655882995376e+17,4889655083210425.0,9821990506786700.0,26524921334293.4,126699511940428.27,6709169507876975.0,1.815509935125483e+17
25.91617852304095,6534262909721080.0,2.1433050558029757e+17,4892210370025704.0,9827123396883696.0,27175971229687.88,129809526569429.86,6873980871444349.0,1.8604594253442358e+17
26.53450209350177,6537580202649129.0,2.1909787217268192e+17,4894694032230767.0,9832112412281428.0,27839983166492.594,132981468090245.1,7042074434655739.0,1.9063058963960816e+17
27.165192135371807,6540805387756597.0,2.2395984383161357e+17,4897108733176214.0,9836962902935476.0,28517215764726.31,136216572396198.86,7213515680379148.0,1.953067173392049e+17
27.808495978079243,6543941876584143.0,2.289183182054826e+17,4899457027087168.0,9841679999597850.0,29207932805941.992,139516100059844.56,7388371399631328.0,2.0007614386971645e+17
28.464665897640828,6546992942183820.0,2.3397523027138157e+17,4901741364502151.0,9846268624742082.0,29912403333902.85,142881336814867.38,7566709717094934.0,2.0494072388270966e+17
29.133959215593645,6549961725974215.0,2.39132553088006e+17,4903964097405550.0,9850733502873078.0,30630901757326.004,146313594047907.25,7748600117161561.0,2.099023491487865e+17
29.816638399905518,6552851244212529.0,2.4439229856238067e+17,4906127484073267.0,9855079170260576.0,31363707954726.414,149814209300453.75,7934113470509071.0,2.149629492760702e+17
30.51297116790363,6555664394107818.0,2.4975651823071478e+17,4908233693649676.0,9859309984133200.0,32111107381393.52,153384546780976.97,8123322061221412.0,2.2012449244344016e+17
31.223230591261704,6558403959597941.0,2.5522730405370176e+17,4910284810472879.0,9863430131366624.0,32873391178536.17,157025997887461.22,8316299614460002.0,2.2538898614873834e+17
31.947695203086937,6561072616811313.0,2.6080678922658125e+17,4912282838163889.0,9867443636697562.0,33650856284630.406,160739981740506.38,8513121324695543.0,2.307584779721876e+17
32.686649107148675,6563672939232849.0,2.6649714900427686e+17,4914229703494435.0,9871354370493268.0,34443805549007.56,164527945727186.66,8713863884509711.0,2.3623505635527034e+17
33.44038208929165,6566207402592552.0,2.7230060154193702e+17,4916127260046961.0,9875166056103470.0,35252547847719.24,168391366055833.03,8918605513976245.0,2.4182085139531418e+17
34.20918973107749,6568678389493409.0,2.7821940875119626e+17,4917977291679630.0,9878882276820514.0,36077398201719.33,172331748321941.44,9127425990631408.0,2.4751803565604726e+17
34.993373525699035,6571088193794654.0,2.842558771724904e+17,4919781515808019.0,9882506482471584.0,36918677897401.13,176350628085384.75,9340406680043892.0,2.533288249943895e+17
35.793240996213015,6573439024765045.0,2.9041235886375584e+17,4921541586514746.0,9886041995664872.0,37776714609531.57,180449571459136.53,9557630566994418.0,2.592554794037483e+17
36.60910581613728,6575733011020025.0,2.966912523058432e+17,4923259097497111.0,9889492017710838.0,38651842526623.48,184630175709700.28,9779182287276040.0,2.6530030387410323e+17
37.44128793246003,6577972204255377.0,3.030950033249912e+17,4924935584862625.0,9892859634237470.0,39544402478788.92,188894069869455.1,1.000514816012566e+16,2.7146564926916182e+17
38.29011369110923,6580158582789819.0,3.0962610603269766e+17,4926572529781259.0,9896147820518104.0,40454742068117.17,193242915361126.1,1.023561622129817e+16,2.777539132208811e+17
39.15591596493141,6582294054927307.0,3.1628710378334086e+17,4928171361002861.0,9899359446528034.0,41383215801622.0,197678406634598.75,1.0470676256794556e+16,2.8416754104165197e+17
40.03903428423004,6584380462149921.0,3.230805901498986e+17,4929733457247639.0,9902497281746538.0,42330185226803.77,202202271816294.06,1.0710419837255536e+16,2.907090266544555e+17
40.93981496991464,6586419582150889.0,3.300092099181197e+17,4931260149476999.0,9905563999718296.0,43296019069873.53,206816273371333.2,1.0954940353032892e+16,2.973809135412993e+17
41.85861126931294,6588413131717200.0,3.3707566009951974e+17,4932752723051758.0,9908562182388682.0,44281093376685.5,211522208778721.75,1.12043330499504e+16,3.041857957102564e+17
