t(s),Total solute volume 1,Total retention volume 1,Total 1 volume 1,Total 2 volume 1,Total 3 volume 1,Total 4 volume 1,Total 5 volume 1,Total 6 volume 1
0.1,858476762157242.6,970941579421749.6,55300119698977.766,57164697565528.79,0.0,0.0,0.0,0.0
0.202,1258499179266558.2,1492135834538517.8,81068187776618.03,83801598941843.9,158781386453.27618,273215792988.49323,3357897102008.3535,64976974272045.96
0.30604000000000003,1539288815851398.8,1910828479032308.5,99155690244318.08,102498965607424.02,392244420157.6508,674991409231.495,8295889044652.988,160521882455128.78
0.41216080000000005,1758688366280395.5,2283124231968275.0,113288654543037.7,117108457214082.58,678874951509.8119,1168334494300.517,14359346520469.922,277832197964476.25
0.5204040160000001,1939053706308347.2,2629641874446852.5,124907169287413.0,129118718479007.69,1007895214150.1213,1734720257264.218,21320611051926.957,412499053848745.44
0.6308120963200001,2091857648806520.5,2960485784984675.5,134750273616057.88,139293707045589.14,1372671173638.9558,2362751025693.3022,29039616510204.656,561809116806969.9
0.7434283382464002,2223946224213755.8,3281445802654359.5,143258965259117.44,148089289955850.97,1768689623485.7021,3044676798070.4854,37421126474242.484,723916830329834.1
0.8582969050113283,2339806124531046.0,3596188710344444.5,150722261480722.9,155804229394213.0,2192696789480.1936,3774913738139.4033,46396526598578.07,897491957812263.8
0.9754628431115548,2442571521745629.0,3907206603391537.5,157342054858457.1,162647225237660.28,2642258735244.0234,4549288180835.557,55914533548879.984,1081539721084833.5
1.094972099973786,2534535095549893.0,4216285810287914.0,163266031931066.9,168770943635841.8,3115509500162.855,5364603526772.822,65935872228464.78,1275297753915710.2
1.2168715419732616,2617433363421772.5,4524761898072122.0,168606053180689.22,174291016719142.8,3610994729395.406,6218371369255.047,76429971408559.92,1478172127243302.8
1.3412089728127268,2692617816235587.0,4833668647859506.0,173449177000186.84,179297438265905.94,4127568708494.4473,7108634465304.184,87372788109369.86,1689695225074656.5
1.4680331522689813,2761163446559212.0,5143830102879939.0,177864650712705.12,183861790441220.56,4664323457345.606,8033844839359.362,98745309552181.47,1909496737317907.5
1.597393815314361,2823940713597635.0,5455920066198438.0,181908546305767.38,188042035836071.22,5220538154711.775,8992776848520.332,110532484781719.02,2137282970674023.5
1.729341691620648,2881665035888631.0,5770502013626128.0,185626948580474.97,191885813112741.7,5795642030612.929,9984463407178.402,122722440912080.08,2372821669694405.5
1.863928525453061,2934931877878140.0,6088056715670474.0,189058215307986.44,195432773367964.16,6389186502522.706,11008148107128.234,135305894724274.56,2615930619782449.0
2.001207095962122,2984242268999146.5,6409001867547439.0,192234621080791.66,198716279410644.44,7000823845177.251,12063248572694.014,148275702339307.38,2866468923299676.5
2.1412312378813647,3030021774839022.0,6733706362925055.0,195183579370052.5,201764669023828.34,7630290593694.573,13149327955192.25,161626508921759.2,3124330212221512.0
2.284055862638992,3072634869610575.5,7062500882761616.0,197928568350741.5,204602212006290.78,8277394448498.004,14266072449198.906,175354472390041.72,3389437293506274.5
2.4297369798917723,3112396005544301.0,7395685890569742.0,200489843953811.44,207249847266994.66,8942003818192.273,15413273345316.498,189457042879432.88,3661737873761702.5
2.578331719489608,3149578262662661.0,7733537765189099.0,202884997054897.38,209725758800761.38,9624039381126.928,16590812554723.307,203932784872916.2,3941201109862015.0
2.7298983538794,3184420195054084.5,8076313572023528.0,205129394487736.06,212045831571532.12,10323467213226.475,17798650827678.914,218781232440671.75,4227814800428605.0
2.884496320956988,3217131311974216.0,8424254822988515.0,207236532117856.6,214224016490794.8,11040293146002.074,19036818088202.46,234002770487515.94,4521583080683920.0
3.0421862473761276,3247896511213133.5,8777590474499139.0,209218320424838.2,216272625628945.6,11774558101371.15,20305405449353.61,249598536655363.28,4822524517026141.0
3.2030299723236504,3276879698317594.5,9136539343896772.0,211085317640162.12,218202573213947.2,12526334209732.734,21604558576408.992,265570339791921.88,5130670522147025.0
3.3670905717701234,3304226766049064.0,9501312076772608.0,212846921673647.16,220023574029031.28,13295721561690.3,22934472140781.465,281920591825390.2,5446064029493004.0
3.5344323832055258,3330068065966405.0,9872112763757824.0,214511529324302.03,221744307991732.9,14082845476540.488,24295385163800.44,298652250576432.8,5768758379258618.0
3.7051210308696363,3354520473075723.0,1.0249140281036192e+16,216086669277967.84,223372557635872.62,14887854195327.988,25687577091907.727,315768771560313.3,6098816378199054.0
3.879223451487029,3377689121646912.5,1.0632589411149548e+16,217579113922647.7,224915323697010.16,15710916925093.969,27111364477195.023,333274067229803.8,6436309503250885.0
4.0568079205167695,3399668873226476.0,1.1022651787644076e+16,218994973912843.94,226378922865248.75,16552222175453.98,28567098162154.562,351172472416152.56,6781317224885734.0
4.237944078927105,3420545564975630.5,1.1419516697401272e+16,220339778583200.78,227769070910219.53,17411976339932.75,30055160886928.96,369468714963915.8,7133926430741474.0
4.422702960505647,3440397076610328.5,1.1823371767192174e+16,221618544677115.22,229090953727045.8,18290402483342.348,31575965252579.273,388167890742723.1,7494230933699062.0
4.61115701971576,3459294246623938.0,1.2234403555436138e+16,222835835366644.8,230349288346249.3,19187739303501.42,33129951985945.844,407275442367174.25,7862331051442680.0
4.803380160110075,3477301662562801.0,1.2652798065882238e+16,223995811159345.56,231548375557035.5,20104240241181.242,34717588461287.19,426797141074175.2,8238333246826372.0
4.9994477633122765,3494478345489429.5,1.3078741196628616e+16,225102273989034.12,232692145484684.6,21040172716648.96,36339367441591.305,446739071301805.0,8622349820205382.0
5.199436718578522,3510878345102925.0,1.3512419135319564e+16,226158705551394.3,233784197218736.28,21995817474801.63,37995806008688.766,467107617590376.9,9014498646372658.0
5.403425452950093,3526551259067828.0,1.3954018709334106e+16,227168300757363.28,234827833394335.53,22971468023826.777,39687444656357.6,487909453488593.4,9414902949945784.0
5.611493962009095,3541542687763573.0,1.4403727698175288e+16,228133997026520.62,235826090473323.66,23967430154734.438,41414846524750.03,509151532198571.7,9823691114033796.0
5.823723841249277,3555894633778871.5,1.4861735113991716e+16,229058500021142.3,236781765345975.75,24984021531077.27,43178596757869.766,530841078735277.3,1.0240996517821482e+16
6.040198318074262,3569645853943946.0,1.5328231455135652e+16,229944306322911.16,237697438772311.62,26021571339810.156,44979301968640.26,552985583410430.94,1.0666957399377622e+16
6.261002284435747,3582832170443446.0,1.5803408936835484e+16,230793723473735.25,238575496098640.88,27080419995592.277,46817589798426.83,575592796479603.1,1.1101716740546018e+16
6.486222330124463,3595486746527067.5,1.6287461702387276e+16,231608887736079.4,239418145616726.16,28160918891961.254,48694108559824.23,598670723815015.9,1.1545422171240564e+16
6.715946776726952,3607640331489364.5,1.6780586017723954e+16,232391779873723.66,240227434876627.62,29263430193752.99,50609526953139.08,622227623486588.4,1.1998225890850748e+16
6.950265712261491,3619321478889606.5,1.7282980451769472e+16,233144239208733.75,241005265217640.8,30388326665930.625,52564533848365.516,646272003150500.9,1.2460284604788694e+16
7.18927102650672,3630556741399516.5,1.7794846044615942e+16,233867976172883.62,241753404742915.97,31535991534654.98,54559838125599.77,670812618158726.0,1.2931759474481644e+16
7.433056447036854,3641370845179323.5,1.83163864652557e+16,234564583540356.25,242473499930905.16,32706818376991.152,56596168567817.93,695858470314923.5,1.3412816079345344e+16
7.681717575977592,3651786846273903.5,1.8847808160344344e+16,235235546502253.4,243167086049548.34,33901211036127.242,58674273800762.08,721418807212288.6,1.3903624389469508e+16
7.935351927497144,3661826271176356.0,1.9389320495260116e+16,235882251721211.47,243835596516194.6,35119583559385.316,60794922275392.06,747503122097606.8,1.4404358747913944e+16
8.194058966047088,3671509243415137.0,1.9941135888543388e+16,236505995485709.62,244480371326853.6,36362360156656.4,62958902288958.59,774121154213181.4,1.491519786165692e+16
8.45794014536803,3680854597773963.0,2.0503469940655056e+16,237107991067724.8,245102664661925.25,37629975177186.02,65167022041269.92,801282889574648.1,1.5436324800358316e+16
8.72709894827539,3689879983543364.5,2.1076541557860416e+16,237689375373841.38,245703651761572.84,38922873102894.64,67420109723173.055,828998562148180.5,1.5967927002207358e+16
9.0016409272409,3698601958023365.5,2.1660573071942628e+16,238251214968371.78,246284435151926.4,40241508556635.89,69719013634648.11,857278655395283.0,1.6510196286212418e+16
9.281673745785717,3707036071342911.5,2.225579035635576e+16,238794511537130.34,246846050293082.56,41586346323987.98,72064602330252.33,886133904157471.6,1.7063328870370896e+16
9.567307220701432,3715196943529455.5,2.2862422939349696e+16,239320206851996.4,247389470711057.53,42957861387332.35,74457764789932.67,915575296856675.1,1.762752539522323e+16
9.85865336511546,3723098334648735.5,2.3480704114535172e+16,239829187289069.06,247915612668283.34,44356538971122.98,76899410613479.27,945614077990263.5,1.82029909523542e+16
10.155826432417769,3730753208735780.5,2.4110871049296092e+16,240322287946892.25,248425339420689.2,45782874597368.09,79390470237108.56,976261750902312.8,1.8789935117455916e+16
10.458942961066125,3738173792153912.5,2.475316489141027e+16,240800296405731.88,248919465103731.88,47237374150453.734,81931895170856.5,1007530080815046.5,1.938857198761047e+16
10.768121820287448,3745371626943800.0,2.5407830874195236e+16,241263956164146.34,249398758284837.28,48720553950535.54,84524658255629.23,1039431098106468.8,1.9999120222489836e+16
11.083484256693197,3752357619660961.5,2.607511842046061e+16,241713969784924.8,249863945215414.97,50232940834801.09,87169753938904.39,1071977101821999.5,2.0621803089203652e+16
11.405153941827061,3759142086143603.0,2.6755281245514344e+16,242151001778878.25,250315712811878.7,51775072245982.75,89868198568204.27,1105180663409532.8,2.1256848510556244e+16
11.733257020663602,3765734792603742.5,2.7448577459443772e+16,242575681251790.7,250754711391850.75,53347496327557.414,92621030701583.75,1139054630668754.8,2.190448911649853e+16
12.067922161076874,3772144993391797.5,2.81552696688688e+16,242988604337082.34,251181557188844.75,54950772025127.67,95429311434460.11,1173612131906724.2,2.2564962298584784e+16
12.409280604298411,3778381465746800.0,2.88756250783403e+16,243390336434299.16,251596834666231.78,56585469193524.336,98294124742223.73,1208866580292997.5,2.3238510267264264e+16
12.75746621638438,3784452541811427.5,2.96099155915409e+16,243781414271410.62,252001098649076.2,58252168709214.06,101216577838129.14,1244831678408360.0,2.3925380111853276e+16
13.112615540712067,3790366138161784.5,3.0358417912427644e+16,244162347807018.53,252394876290477.84,59951462587630.44,104197801546043.16,1281521422982264.8,2.462582386305243e+16
13.474867851526309,3796129783075878.0,3.1121413646441092e+16,244533621986894.6,252778668887339.28,61683954105079.46,107238950687695.7,1318950109814768.8,2.5340098557883456e+16
13.844365208556836,3801750641742177.0,3.1899189401892948e+16,244895698367833.62,253152953558970.5,63450257924899.76,110341204484128.12,1357132338879558.2,2.6068466306935444e+16
14.221252512727972,3807235539589116.0,3.2692036891632796e+16,245249016620456.12,253518184800560.25,65251000227578.67,113505766971085.47,1396083019605125.8,2.6811194363818856e+16
14.605677562982532,3812590983898618.5,3.3500253035083268e+16,245593995921480.78,253874795922392.88,67086818844551.85,116733867428149.7,1435817376331992.2,2.756855519673606e+16
14.997791114242183,3817823183850710.5,3.4324140060725864e+16,245931036244925.56,254223200384587.34,68958363395427.766,120026760821448.56,1476350953944057.5,2.8340826562084756e+16
15.397746936527026,3822938069131982.0,3.516400560910848e+16,246260519560802.22,254563793036208.78,70866295428395.84,123385728259811.05,1517699623672959.8,2.912829158001835e+16
15.805701875257567,3827941307228050.0,3.6020162836440664e+16,246582810949039.97,254896951266745.6,72811288563595.03,126812077464277.45,1559879589074522.5,2.993123881189448e+16
16.221815912762718,3832838319508838.5,3.689293051883474e+16,246898259635641.3,255223036077208.47,74794028639222.61,130307143250901.48,1602907392176844.5,3.074996233954606e+16
16.64625223101797,3837634296205309.5,3.7782633157244296e+16,247207199957430.53,255542393077404.5,76815213860183.97,133872288026809.02,1646799919799976.0,3.1584761846317184e+16
17.079177275638333,3842334210367181.0,3.86896010831477e+16,247509952261163.44,255855353415362.28,78875554949081.56,137508902299504.75,1691574410047355.8,3.243594269980796e+16
17.5207608211511,3846942830883080.5,3.961417056501601e+16,247806823742241.94,256162234644327.22,80975775299360.88,141218405199444.66,1737248458969613.0,3.3303816036277988e+16
17.97117603757412,3851464734637226.5,4.055668391560467e+16,248098109227803.06,256463341532253.38,83116611130421.3,145002245015903.84,1783840027401513.2,3.4188698846659664e+16
18.430599558325603,3855904317870091.0,4.1517489600097304e+16,248384091908536.84,256758966818296.4,85298811644521.94,148861899746204.6,1831367447973157.2,3.5090914064136396e+16
18.899211549492115,3860265806804726.5,4.249694234513233e+16,248665044023193.94,257049391920401.28,87523139185300.98,152798877658374.6,1879849432296695.8,3.601079065324352e+16
19.37719578048196,3864553267594804.0,4.349540324873647e+16,248941227499406.62,257334887597729.75,89790369397739.72,156814717867327.53,1929305078330228.0,3.694866370044914e+16
19.864739696091597,3868770615645921.0,4.451323989118334e+16,249212894554135.9,257615714571354.47,92101291389397.95,160910990924679.16,1979753877920530.5,3.7904874506177304e+16
20.36203449001343,3872921624357151.0,4.555082644679531e+16,249480288256769.16,257892124106341.44,94456707892753.6,165089299422316.6,2031215724526645.8,3.887977067823336e+16
20.869275179813698,3877009933325813.5,4.660854379670304e+16,249743643057647.34,258164358558095.53,96857435428472.75,169351278609864.5,2083710921126506.0,3.987370622659662e+16
21.38666068340997,3881039056055125.5,4.768677964257157e+16,250003185284560.6,258432651885602.66,99304304469442.83,173698597026191.72,2137260188308863.2,4.088704165954189e+16
21.91439389707817,3885012387200800.0,4.878592862130082e+16,250259133609555.3,258697230133970.28,101798159605395.55,178132957145130.72,2191884672553123.2,4.1920144081052824e+16
22.452681775019734,3888933209390133.5,4.99063924207052e+16,250511699488186.88,258958311888495.38,104339859707945.89,182656096035576.34,2247605954699707.0,4.297338728949519e+16
23.00173541052013,3892804699643829.5,5.104857989617337e+16,250761087573202.53,259216108702292.03,106930278095871.52,187269786036158.2,2304446058613778.5,4.4047151877508136e+16
23.561770118730532,3896629935429123.0,5.22129071883065e+16,251007496104455.78,259470825499354.25,109570302700451.3,191975835444679.06,2362427460045370.5,4.514182533308314e+16
24.133005521105144,3900411900369974.5,5.339979784153164e+16,251251117276738.1,259722660954790.7,112260836230681.6,196776089222527.56,2421573095689024.0,4.6257802141787896e+16
24.715665631527248,3904153489638190.5,5.460968292368187e+16,251492137587058.53,259971807853812.3,115002796338182.77,201672429714286.28,2481906372446202.0,4.739548389010427e+16
25.309978944157795,3907857515047764.5,5.584300114653479e+16,251730738162802.6,260218453430957.28,117797115781604.5,206666777382757.8,2543451176893935.0,4.855527936983501e+16
25.91617852304095,3911526709872693.0,5.7100198987295176e+16,251967095072079.3,260462779690900.12,120644742590329.86,211761091559649.25,2606231884963241.0,4.973760468354634e+16
26.53450209350177,3915163733407121.0,5.838173081100848e+16,252201379617469.7,260704963712107.94,123546640227281.05,216957371212150.28,2670273371831081.5,5.094288335100124e+16
27.165192135371807,3918771175285364.5,5.96880589938844e+16,252433758614308.44,260945177934499.9,126503787750614.73,222257655725680.75,2735601022029505.0,5.2171546416544376e+16
27.808495978079243,3922351559577860.0,6.101965404751189e+16,252664394654530.6,261183590432197.28,129517179974093.0,227664025703034.0,2802240739776153.5,5.342403255739414e+16
28.464665897640828,3925907348678058.5,6.2376994743940456e+16,252893446357052.1,261420365172338.47,132587827625910.27,233178603780227.0,2870218959530029.5,5.4700788192796776e+16
29.133959215593645,3929440946994143.0,6.376056824160018e+16,253121068605577.3,261655662260911.84,135716757505743.86,238803555459299.03,2939562656776897.5,5.600226759399759e+16
29.816638399905518,3932954704458461.5,6.517087021203328e+16,253347412774664.75,261889638176436.8,138905012639797.48,244541089958367.16,3010299359048493.5,5.7328932994977016e+16
30.51297116790363,3936450919866627.0,6.660840496740041e+16,253572626944820.7,262122445992316.88,142153652433588.9,250393461079221.88,3082457157180040.5,5.868125470390382e+16
31.223230591261704,3939931844057394.0,6.807368558873056e+16,253796856107333.97,262354235588575.7,145463752822231.72,256362968092763.97,3156064716810851.0,6.005971121525146e+16
31.947695203086937,3943399682943722.5,6.956723405487036e+16,254020242359530.3,262585153853698.0,148836406417951.1,262451956642591.5,3231151290132282.0,6.1464789322520664e+16
32.686649107148675,3946856600404612.5,7.1089581372095064e+16,254242925091051.1,262815344877186.56,152272722654564.62,268662819667050.7,3307746727888372.5,6.2896984231512104e+16
33.44038208929165,3950304721046718.0,7.264126770433128e+16,254465041161749.12,263044950133458.0,155773827928642.8,274997998340070.12,3385881491633738.5,6.435679967408686e+16
34.20918973107749,3953746132844093.0,7.422284250394661e+16,254686725071731.16,263274108657617.5,159340865737069.8,281459983031109.06,3465586666253855.5,6.584474802235108e+16
34.993373525699035,3957182889663854.0,7.583486464304957e+16,254908109124049.7,263502957213641.78,162974996810700.84,288051314284550.9,3546893972753167.0,6.73613504031995e+16
35.793240996213015,3960617013685226.5,7.74779025452459e+16,255129323580535.8,263731630455453.53,166677399243806.34,294774583818885.0,3629835781315876.5,6.890713681314623e+16
36.60910581613728,3964050497718456.5,7.915253431779182e+16,255350496811171.06,263960261081343.28,170449268618986.03,301632435546027.75,3714445124645305.0,7.048264623337053e+16
37.44128793246003,3967485307430362.5,8.085934788407571e+16,255571755437449.53,264188979982157.53,174291818127222.22,308627566611121.6,3800755711586955.5,7.208842674490042e+16
38.29011369110923,3970923383482194.0,8.259894111636837e+16,255793224470092.84,264417916383659.75,178206278682729.75,315762728453192.44,3888801941041315.0,7.372503564385514e+16
39.15591596493141,3974366643585519.0,8.437192196876245e+16,256015027441484.38,264647197983429.6,182193899032249.75,323040727887016.1,3978618916171834.0,7.53930395566607e+16
40.03903428423004,3977816984481401.0,8.617890861022754e+16,256237286533158.28,264876951082648.25,186255945858423.78,330464428206567.1,4070242458914277.5,7.709301455515122e+16
40.93981496991464,3981276283847689.5,8.802052955770552e+16,256460122698662.03,265107300713108.4,190393703876870.38,338036750310429.0,4163709124793223.5,7.882554627146558e+16
41.85861126931294,3984746402139096.0,8.989742380914965e+16,256683655782090.6,265338370759740.38,194608475926573.06,345760673849550.7,4259056218052033.5,8.05912300126404e+16
42.7957834946992,3988229184364481.0,9.18102409764315e+16,256908004632565.25,265570284078954.84,198901583053185.7,353639238397726.75,4356321807102424.0,8.239067087480208e+16
43.751699164593184,3991726461805199.5,9.375964141801043e+16,257133287214932.78,265803162613069.9,203274364584827.94,361675544645210.9,4455544740300138.0,8.4224483856847e+16
