t(s),Total solute volume 1,Total retention volume 1,Total 1 volume 1,Total 2 volume 1,Total 3 volume 1,Total 4 volume 1,Total 5 volume 1,Total 6 volume 1
0.1,1343181032126672.5,2872917611672401.5,563076449980376.4,966660129565354.2,0.0,0.0,0.0,-1.5603494592410886e-89
0.202,2016608548744181.5,4313646542756013.5,845384801987264.0,1451312590448828.0,62467347.51653415,234487277.09291926,9169762715.99963,331134858401.7854
0.30604000000000003,2531173244956419.0,5414776389720469.0,1061096067767514.8,1821634489124287.0,158380504.99570644,594531642.4774959,23270190123.404785,848564769980.6968
0.41216080000000005,2966665092606674.5,6346929690408204.0,1243659110975871.2,2135049228144155.5,281236592.6955849,1055717976.3234867,41336081622.47651,1513585645314.7017
0.5204040160000001,3353473549394402.5,7175089372590126.0,1405813532884080.2,2413427503633046.0,428137373.3899906,1607166068.7464805,62939929217.179085,2309811445943.5137
0.6308120963200001,3706795552489913.5,7931751136370678.0,1553930059500471.8,2667706249295701.0,597526518.728358,2243033444.5418797,87852401627.84744,3228582123001.193
0.7434283382464002,4035477201380700.0,8635830757827441.0,1691717074567684.8,2904251826310661.0,788513377.3573378,2959976605.890529,115942297844.19225,4264964780561.663
0.8582969050113283,4345190091686254.0,9299456299862128.0,1821552174310123.2,3127145968536797.5,1000594705.463243,3756106379.9910917,147135486014.73608,5416173141852.133
0.9754628431115548,4639822671231212.0,9930943283614264.0,1945065439471349.8,3339187113947287.0,1233517469.6412692,4630472875.981948,181394679367.91165,6680800294703.899
1.094972099973786,4922175756836948.0,1.0536281889775238e+16,2063431003729788.5,3542390954231916.5,1487202838.4205446,5582780148.93877,218708237702.27493,8058396755893.359
1.2168715419732616,5194344732968617.0,1.1119954180446458e+16,2177527275642625.0,3738265495539456.5,1761700497.9813228,6613214701.897397,259083438685.37146,9549217941869.646
1.3412089728127268,5457945121579233.0,1.1685416403350668e+16,2288031500044266.5,3927973396586274.0,2057159499.900518,7722336049.202865,302542184967.13403,11154063460374.158
1.4680331522689813,5714253363741885.0,1.2235399998345946e+16,2395478775278851.5,4112433286379775.0,2373808794.341864,8911003638.894922,349118137945.9571,12874169995050.855
1.597393815314361,5964298727474000.0,1.277210810223e+16,2500300581986454.5,4292385908438597.5,2711943767.1097527,10180326313.444569,398854735724.6871,14711137325145.78
1.729341691620648,6208925572671403.0,1.3297348672678432e+16,2602850885258640.5,4468438931617679.5,3071916672.154162,11531626393.877731,451803784668.26294,16666875802992.51
1.863928525453061,6448836863511738.0,1.381262751739736e+16,2703424375523737.0,4641098265112343.0,3454129688.8654323,12966413617.248993,508024437416.7612,18743568268819.203
2.001207095962122,6684625389388422.0,1.4319215043470618e+16,2802269556710845.0,4810790527538162.0,3859029805.3874235,14486365928.90056,567582439724.9033,20943641997731.2
2.1412312378813647,6916796681524007.0,1.4818195252035178e+16,2899598353149997.5,4977879539557648.0,4287105007.6886015,16093315176.467297,630549569521.5526,23269747813812.723
2.284055862638992,7145786170200021.0,1.5310502419653442e+16,2995593302074388.0,5142678671594252.0,4738881425.127518,17789236394.507755,697003216765.913,25724744450190.0
2.4297369798917723,7371972255237909.0,1.5796949042606954e+16,3090413032911882.0,5305460250394988.0,5214921191.849925,19576239776.323765,767026068669.323,28311686832520.934
2.578331719489608,7595686417593443.0,1.627824745552891e+16,3184196506178253.5,5466462836141906.0,5715820854.381422,21456564696.164116,840705875309.8713,31033817354434.3
2.7298983538794,7817221149999474.0,1.6755026787605848e+16,3277066338091116.5,5625896929976426.0,6242210203.443698,23432575323.935127,918135277684.6691,33894559475612.715
2.884496320956988,8036836254152931.0,1.7227846426879282e+16,3369131440421002.5,5783949505958298.0,6794751440.742123,25506757497.372013,999411685061.9535,36897513153042.38
3.0421862473761276,8254763896781501.0,1.7697206831436692e+16,3460489140050964.0,5940787649815302.0,7374138614.395496,27681716602.672832,1084637191869.6145,40046451741842.945
3.2030299723236504,8471212710348322.0,1.8163558298416104e+16,3551226898037704.0,6096561510137926.0,7981097273.029631,29960176275.98244,1173918526763.9463,43345320091844.055
3.3670905717701234,8686371149616797.0,1.8627308142391044e+16,3641423716721053.0,6251406714031723.0,8616384300.415775,32344977782.62721,1267367028267.977,46798233631123.914
3.5344323832055258,8900410262312104.0,1.9088826621420996e+16,3731151301216147.0,6405446361106654.0,9280787901.26218,34839079963.76797,1365098642653.5461,50409478275588.98
3.7051210308696363,9113485993883810.0,1.954845186731539e+16,3820475025595664.0,6558792682168486.0,9975127715.280277,37445559664.58634,1467233940699.8557,54183511039366.484
3.879223451487029,9325741118410106.0,2.0006494016874304e+16,3909454742346427.5,6711548428851732.0,10700255041.567554,40167612576.59124,1573898150685.558,58124961247741.09
4.0568079205167695,9537306866971252.0,2.0463238696588396e+16,3998145465001713.5,6863808045527333.0,11457053159.10909,43008554440.74722,1685221205524.8164,62238632274965.75
4.237944078927105,9748304309301100.0,2.0918949980103416e+16,4086597947344997.5,7015658663649455.0,12246437732.105864,45971822569.03614,1801337802385.541,66529503745182.61
4.422702960505647,9958845532771708.0,2.137387291262776e+16,4174859177653467.0,7167180950247062.0,13069357291.104292,49060977650.570335,1922387473461.4814,71002734147099.1
4.61115701971576,1.0169034653777044e+16,2.182823567724404e+16,4262972802681316.0,7318449835796392.0,13926793782.686632,52279705815.07821,2048514666832.7314,75663663822837.31
4.803380160110075,1.0378968689641008e+16,2.2282251463249864e+16,4350979493173388.5,7469535141715675.0,14819763181.901384,55631820931.91062,2179868836557.9287,80517818299132.42
4.9994477633122765,1.058873831377239e+16,2.2736120085101736e+16,4438917260434498.5,7620502123834962.0,15749316162.749039,59121267126.98194,2316604541308.846,85570911935280.47
5.199436718578522,1.0798428512546768e+16,2.3190029391467948e+16,4526821731701696.0,7771411945140887.0,16716538822.957108,62752121503.50912,2458881550993.082,90828851867256.0
5.403425452950093,1.1008119159041678e+16,2.3644156496727268e+16,4614726390660412.0,7922322088682206.0,17722553460.02567,66528597055.21663,2606864960920.74,96297742231506.69
5.611493962009095,1.12178855160784e+16,2.4098668861536212e+16,4702662788325221.0,8073286719598985.0,18768519396.13877,70455045762.97844,2760725313161.052,101983888655286.86
5.823723841249277,1.1427798678882428e+16,2.455372524451055e+16,4790660728608062.0,8224357003696375.0,19855633850.0417,74535961867.76752,2920638724809.5596,107893803003159.8
6.040198318074262,1.1637925965944706e+16,2.5009476543368616e+16,4878748432171590.0,8375581388739619.0,20985132854.40747,78775985314.36809,3086787022948.4546,114034208371602.83
6.261002284435747,1.184833126526348e+16,2.5466066540887704e+16,4966952681577629.0,8527005853637327.0,22158292217.56814,83179905361.6291,3259357886134.6553,120412044325580.9
6.486222330124463,1.205907534200036e+16,2.59236325685736e+16,5055298950260063.0,8678674129855418.0,23376428528.784763,87752664356.15782,3438544992294.0107,127034472372578.97
6.715946776726952,1.2270216112645054e+16,2.6382306098936356e+16,5143811517457695.0,8830627898727843.0,24640900206.48251,92499361667.30388,3624548172937.443,133908881670976.83
6.950265712261491,1.2481808890007196e+16,2.6842213275608132e+16,5232513570917654.0,8982906967772461.0,25953108589.096275,97425257782.09747,3817573573646.58,141042894970825.12
7.18927102650672,1.2693906602712056e+16,2.7303475389164444e+16,5321427298910313.0,9135549428657528.0,27314499068.356464,102535778559.50464,4017833820804.026,148444374786109.84
7.433056447036854,1.2906559992341164e+16,2.776620930536898e+16,5410573972872938.0,9288591799079922.0,28726562265.00882,107836519643.97789,4225548194567.4077,156121429798482.03
7.681717575977592,1.3119817790912408e+16,2.823052785160527e+16,5499974021811300.0,9442069150493966.0,30190835247.103832,113333251038.8093,4440942808106.973,164082421493192.47
7.935351927497144,1.3333726881018438e+16,2.869654016645631e+16,5589647099431468.0,9596015223359928.0,31708902791.11554,119031921840.2616,4664250793145.253,172335971028678.72
8.194058966047088,1.3548332440625496e+16,2.9164352016716624e+16,5679612144841080.0,9750462531352568.0,33282398686.262363,124938665133.87709,4895712491853.479,180890966341832.78
8.45794014536803,1.376367807426706e+16,2.9634066085550108e+16,5769887437547246.0,9905442455778928.0,34913007082.50052,131059803054.7293,5135575655173.975,189756569491546.47
8.72709894827539,1.3979805932139872e+16,3.0105782235018932e+16,5860490647382840.0,1.0060985331289054e+16,36602463882.75165,137401852013.72661,5384095647651.455,198942224243607.0
9.0016409272409,1.4196756818415004e+16,3.057959774579786e+16,5951438879911818.0,1.0217120523825404e+16,38352558180.0057,143971528092.37717,5641535658867.381,208457663900466.8
9.281673745785717,1.4414570289912092e+16,3.1055607536530944e+16,6042748717794434.0,1.03738765016367e+16,40165133740.01921,150775752608.71014,5908166921583.364,218312919379820.7
9.567307220701432,1.4633284746141692e+16,3.153390436498689e+16,6134436258534137.0,1.0531280900079698e+16,42042090530.391785,157821657857.30325,6184268936708.973,228518327546302.44
9.85865336511546,1.4852937511600012e+16,3.2014579012906676e+16,6226517148976276.0,1.0689360580844868e+16,43985386296.87311,165116593026.6061,6470129705219.479,239084539800959.4
10.155826432417769,1.5073564911092508e+16,3.24977204562118e+16,6319006616884761.0,1.0848141686165364e+16,45997038187.81057,172668130296.9824,6766045967157.062,250022530933496.47
10.458942961066125,1.5295202338773996e+16,3.2983416022048256e+16,6411919499884349.0,1.1007649688503872e+16,48079124427.70291,180484071123.0915,7072323447858.291,261343608242589.97
10.768121820287448,1.5517884321512074e+16,3.34717515339694e+16,6505270272023284.0,1.1167909436153906e+16,50233786040.88152,188572452704.4484,7389277111557.588,273059420929864.62
11.083484256693197,1.574164457711242e+16,3.3962811446417148e+16,6599073068182093.0,1.132894519514341e+16,52463228626.390594,196941554648.1745,7717231422524.793,285181969773408.0
11.405153941827061,1.5966516067884486e+16,3.4456678969529076e+16,6693341706528825.0,1.1490780687784884e+16,54769724185.18538,205599905828.15576,8056520613901.447,297723617086973.3
11.733257020663602,1.6192531049973318e+16,3.4953436185191596e+16,6788089709199539.0,1.1653439128178616e+16,57155613000.81984,214556291444.98895,8407488964408.089,310697096971269.75
12.067922161076874,1.6419721118837594e+16,3.545316415515588e+16,6883330321363163.0,1.1816943254942094e+16,59623305574.83361,223819760291.2708,8770491083100.966,324115525864000.94
12.409280604298411,1.6648117251212852e+16,3.595594302195105e+16,6979076528813034.0,1.198131536141036e+16,62175284618.1002,233399632226.95892,9145892202363.682,337992413395564.94
12.75746621638438,1.6877749843864458e+16,3.6461852103252424e+16,7075341074212503.0,1.214657732352554e+16,64814107099.43869,243305505869.69705,9534068479325.486,352341673557549.1
13.112615540712067,1.7108648749402366e+16,3.697096998029354e+16,7172136472108906.0,1.2312750625612094e+16,67542406352.83256,253547266505.14932,9935407305904.266,367177636191424.3
13.474867851526309,1.7340843309402338e+16,3.748337458085531e+16,7269475022818358.0,1.2479856384213484e+16,70362894244.64783,264135094222.56534,10350307627678.713,382515058805037.7
13.844365208556836,1.7574362385054336e+16,3.799914325730962e+16,7367368825273853.0,1.264791537014925e+16,73278363402.27562,275079472280.93335,10779180271800.178,398369138724757.9
14.221252512727972,1.7809234385535814e+16,3.85183528601509e+16,7465829788919764.0,1.2816948028934538e+16,76291689505.67587,286391195711.2554,11222448284160.69,414755525591378.56
14.605677562982532,1.804548729428963e+16,3.904107980740718e+16,7564869644727693.0,1.2986974499692022e+16,79405833643.33064,298081380160.61414,11680547276040.117,431690334208035.8
14.997791114242183,1.8283148693367664e+16,3.956740015028567e+16,7664499955401731.0,1.3158014632671372e+16,82623844734.16237,310161470983.8776,12153925780460.97,449190157748726.9
15.397746936527026,1.8522245785986892e+16,4.009738963537277e+16,7764732124834173.0,1.333008800548242e+16,85948862017.01434,322643252589.00354,12643045618485.742,467272081336152.94
15.805701875257567,1.876280541743082e+16,4.0631123763685016e+16,7865577406867525.0,1.3503213938137384e+16,89384117609.3228,335538858042.1205,13148382275697.463,485953695997886.06
16.221815912762718,1.9004854094415404e+16,4.116867784683428e+16,7967046913413063.0,1.3677411506988552e+16,92932939136.66148,348860778938.62976,13670425289110.482,505253113010073.75
16.64625223101797,1.9248418003030212e+16,4.171012706055254e+16,8069151621971929.0,1.385269955763962e+16,96598752434.8743,362621875546.81573,14209678644763.61,525188978638102.06
17.079177275638333,1.9493523025352948e+16,4.225554649579789e+16,8171902382600041.0,1.4029096716903176e+16,100385084326.55096,376835387230.5289,14766661186254.88,545780489283901.75
17.5207608211511,1.9740194754828224e+16,4.2805011207644776e+16,8275309924355176.0,1.420662140386855e+16,104295565473.64532,391514943157.71594,15341907034482.893,567047407049756.0
17.97117603757412,1.9988458510492936e+16,4.335859626214668e+16,8379384861260292.0,1.4385291840139222e+16,108333933308.07787,406674573301.67566,15935966018864.281,589010075728767.2
18.430599558325603,2.0238339350123116e+16,4.391637678133995e+16,8484137697814859.0,1.4565126059294578e+16,112504035042.19412,422328719742.11835,16549404120305.654,611689437232268.6
18.899211549492115,2.0489862082370976e+16,4.447842798654878e+16,8589578834082961.0,1.4746141915624724e+16,116809830761.0104,438492248273.2266,17182803926211.658,635107048464818.1
19.37719578048196,2.0743051277954784e+16,4.504482524013435e+16,8695718570384012.0,1.4928357092183426e+16,121255396598.1965,455180460326.0818,17836765097818.33,659285098657501.5
19.864739696091597,2.09979312799584e+16,4.561564408582387e+16,8802567111610640.0,1.511178910820071e+16,125844927997.8098,472409105212.9787,18511904850146.87,684246427170650.2
20.36203449001343,2.1254526213293932e+16,4.619096028773976e+16,8910134571195373.0,1.5296455325892672e+16,130582743063.81526,490194392701.2959,19208858444878.85,710014541777159.0
20.869275179813698,2.151285999337365e+16,4.677084986824899e+16,9018430974746140.0,1.5482372956702832e+16,135473285999.48267,508553005924.7602,19928279696458.992,736613637437963.8
21.38666068340997,2.1772956334037188e+16,4.7355389144731816e+16,9127466263369322.0,1.5669559067006904e+16,140521130638.78406,527502114640.076,20670841491740.4,764068615581335.2
21.91439389707817,2.2034838754772816e+16,4.794465476537404e+16,9237250296697058.0,1.5858030583309746e+16,145730984071.9613,547059388837.0602,21437236323489.965,792405103897998.9
22.452681775019734,2.2298530587270064e+16,4.853872374407121e+16,9347792855634194.0,1.6047804296961522e+16,151107690367.47293,567243012710.5886,22228176838080.05,821649476664230.8
23.00173541052013,2.2564054981338204e+16,4.913767349453067e+16,9459103644839316.0,1.623889686841674e+16,156656234392.56934,588071699002.7894,23044396397697.66,851828875605364.1
23.561770118730532,2.283143491022087e+16,4.9741581863652216e+16,9571192294952790.0,1.6431324831059362e+16,162381745734.7909,609564703724.0864,23886649657409.348,882971231312355.1
24.133005521105144,2.3100693175336344e+16,5.035052716425971e+16,9684068364583748.0,1.6625104594613948e+16,168289502726.72144,631741841261.883,24755713157424.31,915105285224282.9
24.715665631527248,2.337185241046828e+16,5.096458820725485e+16,9797741342067188.0,1.6820252448162084e+16,174384936576.36993,654623499885.7428,25652385930906.766,948260612189927.1
25.309978944157795,2.364493508543328e+16,5.158384433325871e+16,9912220647001214.0,1.7016784562781498e+16,180673635605.59967,678230657658.1974,26577490127692.465,982467643621730.1
25.91617852304095,2.3919963509245316e+16,5.2208375443800856e+16,1.0027515631573604e+16,1.7214716993823494e+16,187161349599.05887,702584898760.3613,27531871654271.586,1017757691255765.5
26.53450209350177,2.4196959832798324e+16,5.283826203211536e+16,1.0143635581686684e+16,1.741406568284388e+16,193853994266.1077,727708430241.7571,28516400830406.098,1054162971531488.0
27.165192135371807,2.447594605108661e+16,5.3473585213597704e+16,1.026058971788763e+16,1.7614846459200336e+16,200757655818.28888,753624099203.8496,29531973062754.797,1091716630605337.1
27.808495978079243,2.4756944004978104e+16,5.411442675597421e+16,1.0378387196112366e+16,1.7817075041329328e+16,207878595664.9064,780355410426.9778,30579509535886.25,1130452770012433.5
28.464665897640828,2.503997538255911e+16,5.4760869109232984e+16,1.0497037108248966e+16,1.802076703771336e+16,215223255229.3378,807926544450.5325,31659957921065.23,1170406472990881.8
29.133959215593645,2.5325061720062824e+16,5.541299543536264e+16,1.0616548482527004e+16,1.8225937947549296e+16,222798260888.73953,836362376116.3086,32774293103203.42,1211613831483371.2
29.816638399905518,2.5612224402396376e+16,5.607088963794277e+16,1.073693028373844e+16,1.843260316112786e+16,230610429039.82877,865688493585.1923,33923517926372.895,1254111973831063.0
30.51297116790363,2.5901484663278212e+16,5.673463639162825e+16,1.0858191413295314e+16,1.8640777959932416e+16,238666771293.48853,895931217837.4142,35108663958282.938,1297939093174850.5
31.223230591261704,2.6192863584997508e+16,5.740432117156816e+16,1.098034070912887e+16,1.88504775164657e+16,246974499800.95926,927117622666.7949,36330792274131.02,1343134476579465.2
31.947695203086937,2.64863820978059e+16,5.8080030282796584e+16,1.1103386945434436e+16,1.9061716893812264e+16,255541032714.42447,959275555179.5007,37590994260239.445,1389738534895880.2
32.686649107148675,2.6782060978951176e+16,5.876185088963305e+16,1.1227338832266488e+16,1.9274511044942944e+16,264373999784.8417,992433656808.0111,38890392437898.336,1437792833377951.5
33.44038208929165,2.7079920851361716e+16,5.94498710451268e+16,1.1352205014987078e+16,1.9488874811767948e+16,273481248099.88867,1026621384851.0784,40230141307838.07,1487340123069210.5
34.20918973107749,2.7379982181990036e+16,6.014417972058074e+16,1.1477994073571418e+16,1.9704822923945044e+16,282870847964.94073,1061869034550.6455,41611428215761.586,1538424372976002.0
34.993373525699035,2.76822652798227e+16,6.084486683518694e+16,1.1604714521773688e+16,1.9922369997447096e+16,292551098930.02924,1098207761716.7578,43035474239370.13,1591090803043421.8
35.793240996213015,2.79867902935637e+16,6.155202328580437e+16,1.1732374806155854e+16,2.014153053289499e+16,302530535965.76337,1135669605911.659,44503535097321.04,1645385917950585.2
36.60910581613728,2.8293577208997716e+16,6.226574097691208e+16,1.1860983304982132e+16,2.0362318913659748e+16,312817935791.2026,1174287514204.375,46016902080561.73,1701357541741995.0
37.44128793246003,2.8602645846038252e+16,6.298611285076605e+16,1.1990548326981966e+16,2.0584749403738456e+16,323422323356.746,1214095365507.1948,47576903006488.625,1759054853311988.2
38.29011369110923,2.891401585546795e+16,6.3713232917789016e+16,1.2121078109983004e+16,2.08088361454083e+16,334352978485.09906,1255127995505.529,49184903196380.76,1818528422759324.2
39.15591596493141,2.9227706715373748e+16,6.444719628722244e+16,1.2252580819417116e+16,2.1034593156660844e+16,345619442673.38257,1297421222192.8157,50842306476565.86,1879830248629193.8
40.03903428423004,2.9543737727283244e+16,6.51880991980672e+16,1.2385064546700496e+16,2.126203432842155e+16,357231526059.5512,1341011872022.098,52550556203778.93,1943013796060119.0
40.93981496991464,2.9862128012005764e+16,6.59360390503422e+16,1.251853730749017e+16,2.1491173421556664e+16,369199314556.2132,1385937806686.2,54311136315174.43,2008134035853215.0
