t(s),Total solute volume 1,Total retention volume 1,Total 1 volume 1,Total 2 volume 1,Total 3 volume 1,Total 4 volume 1,Total 5 volume 1,Total 6 volume 1
0.1,1012905215437994.5,1251976985692815.0,109237715628389.53,129834054626431.92,0.0,0.0,0.0,0.0
0.202,1525704439124984.0,1885893739417367.2,164541030773198.6,195564592904788.8,92344601.31462699,196924748.27077702,3339581400.135585,80047763644.97682
0.30604000000000003,1916316603097724.8,2368829090223638.0,206666967192596.06,245633208655624.28,234289053.42491043,499621290.8317212,8472980704.078033,203104386645.58228
0.41216080000000005,2246707225563371.0,2777365238097241.5,242298254768588.2,287982635022959.44,416150230.089183,887440294.489445,15049977762.537525,360769174034.13617
0.5204040160000001,2540102202969915.0,3140206093969333.5,273939712182756.16,325589964455770.4,633629334.4032438,1351214568.4414766,22915102482.76821,549314414503.3566
0.6308120963200001,2808075492778159.0,3471655277616480.0,302839543773819.5,359938745317706.8,884420073.5395137,1886025943.4814181,31984946410.031788,766740354364.2976
0.7434283382464002,3057354469035782.0,3780026801563379.5,329723269528026.1,391891291533564.94,1167203513.6314704,2489061795.4005857,42211809682.175285,1011903391010.1821
0.8582969050113283,3292248902923352.5,4070646979378653.5,355055680774419.6,422000029007018.9,1481235091.5803444,3158734346.60317,53568764861.04942,1284157939565.0115
0.9754628431115548,3515712121014319.0,4347165860239326.0,379155281796617.7,450643514749415.3,1826141134.8633387,3894246744.2457685,66042297919.02195,1583179993174.634
1.094972099973786,3729870687482541.0,4612211827676373.0,402251413909129.4,478094331476213.75,2201806176.660291,4695352759.605455,79628232926.03856,1908869416622.0784
1.2168715419732616,3936315204427719.5,4867750974913904.0,424515617092175.2,504556362354686.8,2608305246.355198,5562212397.51496,94329283304.03455,2261291238379.6724
1.3412089728127268,4136271829452948.5,5115299065870325.0,446080127466272.06,530186776104520.9,3045860672.094664,6495299777.795038,110153489574.3733,2640638196558.2217
1.4680331522689813,4330709272141571.0,5356053759426760.0,467049416427976.9,555109741792167.94,3514813240.988541,7495341634.376918,127113176356.5756,3047205733814.211
1.597393815314361,4520408620467035.0,5590980898598862.0,487507721144771.4,579425379170869.1,4015602258.1013527,8563274791.105974,145224231195.67453,3481374707943.6777
1.729341691620648,4706010632753273.0,5820872951779773.0,507524144801033.94,603215820557916.4,4548751378.604803,9700215948.818027,164505592178.17612,3943599108035.597
1.863928525453061,4888048778962824.0,6046389843309761.0,527156219966851.56,626549446062596.0,5114858329.680231,10907439767.310982,184978876222.19174,4434397143164.545
2.001207095962122,5066972943924160.0,6268088244414280.0,546452464894876.25,649483921862754.5,5714587338.356323,12186362717.727201,206668105228.59232,4954344677202.011
2.1412312378813647,5243166823087132.0,6486443069697549.0,565454259581935.1,672068429990425.1,6348663494.315943,13538531061.259098,229599502210.90637,5504070341288.55
2.284055862638992,5416960944654727.0,6701863569009135.0,584197250153094.5,694345337506972.8,7017868530.152639,14965611850.568926,253801338687.6962,6084251875261.122
2.4297369798917723,5588642588800488.0,6914705584989701.0,602712418608984.8,716351467947049.8,7723037662.508145,16469386193.53879,279303820441.9838,6695613388879.841
2.578331719489608,5758463460645135.0,7125281034939094.0,621026910325194.1,738119084839752.2,8465057242.778659,18051744243.427856,306139002558.9494,7338923324961.069
2.7298983538794,5926645707776330.0,7333865347066692.0,639164683017342.4,759676663033491.5,9244863036.707388,19714681530.1314,334340727207.4765,8014992967760.959
2.884496320956988,6093386698032005.0,7540703364845984.0,657147022005626.4,781049501111633.0,10063439000.664577,21460296350.627552,363944579384.51917,8724675381990.644
3.0421862473761276,6258862855413438.0,7746014087554083.0,674992953902472.5,802260213079327.8,10921816456.379763,23290788009.125008,394987857069.62213,9468864697292.05
3.2030299723236504,6423232771054232.0,7949994515055706.0,692719582117901.0,823329127127108.2,11821073590.119421,25208455749.092472,427509553113.0807,10248495674008.805
3.3670905717701234,6586639749572130.0,8152822794948951.0,710342361473263.1,844274612021928.6,12762335219.871569,27215698256.814945,461550346816.67065,11064543501320.082
3.5344323832055258,6749213910901511.0,8354660820476681.0,727875324875313.4,865113346519770.6,13746772787.032362,29315013643.70185,497152603633.55096,11918023790017.59
3.7051210308696363,6911073938678744.0,8555656391741397.0,745331271872492.4,885860543473441.2,14775604538.737698,31508999835.14839,534360381762.9235,12809992730572.092
3.879223451487029,7072328545025578.0,8755945026529097.0,762721926625864.2,906530137588336.8,15850095874.274305,33800355309.297993,573219444678.6776,13741547393456.19
4.0568079205167695,7233077705853917.0,8955651487621598.0,780058071131720.5,927134943763619.0,16971559834.576912,36191880140.93806,613777278832.8129,14713826153522.441
4.237944078927105,7393413709036822.0,9154891078920962.0,797349658262566.4,947686791446656.6,18141357718.12283,38686477314.94051,656083115930.0773,15728009223967.994
4.422702960505647,7553422048870584.0,9353770751688552.0,814605908231233.8,968196639285037.4,19360899809.895546,41287154280.82494,700187959291.8142,16785319288329.234
4.61115701971576,7713182193431087.0,9552390053770554.0,831835391347139.9,988674673486223.0,20631646212.735416,43997024725.66343,746144613922.6796,17887022221245.445
4.803380160110075,7872768246161432.0,9750841948175858.0,849046099365837.4,1009130392619748.9,21955107772.497368,46819310547.033394,794007719969.9764,19034427890553.016
4.9994477633122765,8032249518927425.0,9949213522304688.0,866245507290708.0,1029572681071405.0,23332847090.124416,49757344011.31925,843833789326.3262,20228891034735.1
5.199436718578522,8191691030559784.0,1.0147586605150654e+16,883440627138733.1,1050009872946325.0,24766479615.105,52814570085.569405,895681245175.6863,21471812210930.387
5.403425452950093,8351153942356599.0,1.0346038306653594e+16,900638054907652.2,1070449807891600.6,26257674815.89416,55994548933.48039,949610464322.7905,22764638809668.86
5.611493962009095,8510695939992096.0,1.0544641490876166e+16,917844011763288.2,1090899880049334.0,27808157423.786385,59300958568.0229,1005683822179.0796,24108866133290.844
5.823723841249277,8670371569653427.0,1.0743465192668898e+16,935064380290512.2,1111367081142575.5,29419708747.48488,62737597654.825226,1063965740305.3894,25506038535657.805
6.040198318074262,8830232534914530.0,1.0942574985867292e+16,952304736509910.4,1131858038528601.5,31094168056.23259,66308388461.77659,1124522736434.2788,26957750621307.203
6.261002284435747,8990327959792724.0,1.1142033309751098e+16,969570378247352.4,1152379048917450.8,32833434029.902885,70017379951.41808,1187423476914.027,28465648502660.0
6.486222330124463,9150704622564348.0,1.1341899759419904e+16,986866350350069.5,1172936108342410.8,34639466274.8866,73868751013.65247,1252738831532.2134,30031431114274.34
6.715946776726952,9311407164202896.0,1.1542231344861182e+16,1004197467165846.8,1193534938877551.8,36514286904.9937,77866813837.1016,1320541930690.6592,31656851583465.215
6.950265712261491,9472478264282488.0,1.1743082723182948e+16,1021568331519306.2,1214181011211595.0,38459982155.13165,82016017508.22543,1390908292573.9114,33343731877318.434
7.18927102650672,9633958849799630.0,1.1944506405291198e+16,1038983357209258.5,1234879571308135.0,40478704217.30516,86320951298.7953,1463915615871.3516,35093911702746.19
7.433056447036854,9795888182430868.0,1.2146552944380578e+16,1056446778454007.6,1255635651750558.8,42572672826.9286,90786348985.41042,1539644245385.9539,36909328477926.2
7.681717575977592,9958304035740084.0,1.2349271104237526e+16,1073962668979096.4,1276454094349296.0,44744177226.37374,95417092415.86897,1618176972377.4639,38791966927049.04
7.935351927497144,1.0121242806715936e+16,1.2552708011855334e+16,1091534954052015.1,1297339564465540.0,46995578038.18585,100218215658.3263,1699599169611.8406,40743873658525.03
8.194058966047088,1.0284739626235626e+16,1.27569092957565e+16,1109167422395271.9,1318296565170481.0,49329309235.09791,105194909202.46074,1783998862609.682,42767158874079.695
8.45794014536803,1.0448828459234382e+16,1.2961919211650962e+16,1126863736989266.0,1339329450085037.0,51747880176.66034,110352524302.70927,1871466803303.3254,44863998134490.92
8.72709894827539,1.061354219572324e+16,1.3167780756843098e+16,1144627444888185.0,1360442435046463.2,54253877713.41346,115696577465.53792,1962096546136.6177,47036634183882.84
9.0016409272409,1.0778912733651094e+16,1.337453577462064e+16,1162461986156346.0,1381639608729640.8,56849968359.64989,121232755082.99203,2055984526645.4382,49287378833488.64
9.281673745785717,1.0944971054481996e+16,1.3582225049702628e+16,1180370702018881.8,1402924942334534.5,59538900535.93448,126966918215.00778,2153230142561.1187,51618614905892.875
9.567307220701432,1.1111747292250206e+16,1.3790888395689716e+16,1198356842309086.0,1424302298437673.0,62323506882.65487,132905107523.20207,2253935837482.812,54032798240857.32
9.85865336511546,1.1279270796763204e+16,1.4000564735347354e+16,1216423572284553.2,1445775439093504.8,65206706645.97386,139053548359.07486,2358207187168.4116,56532459763919.99
10.155826432417769,1.1447570191543118e+16,1.4211292174452062e+16,1234573978875969.0,1467348033261308.0,68191508137.65286,145418656009.73898,2466152988497.2085,59120207619040.1
10.458942961066125,1.161667342702714e+16,1.4423108069846316e+16,1252811076424531.0,1489023663624443.0,71281011270.29953,152007041104.50784,2577885351160.4033,61798729366636.45
10.768121820287448,1.1786607829488428e+16,1.4636049092273194e+16,1271137811957875.5,1510805832860967.0,74478410169.6846,158825515185.8383,2693519792138.8975,64570794248444.09
11.083484256693197,1.1957400146085334e+16,1.4850151284497964e+16,1289557070048469.8,1532697969418127.2,77786995865.84569,165881096448.2981,2813175333030.801,67439255520681.75
11.405153941827061,1.2129076586403498e+16,1.5065450115166498e+16,1308071677293738.0,1554703432837143.8,81210159064.78577,173181015649.40805,2936974600293.6143,70407052857093.5
11.733257020663602,1.2301662860812878e+16,1.5281980528802618e+16,1326684406452723.5,1576825518669837.2,84751393002.63983,180732722196.36298,3065043928469.1987,73477214823491.72
12.067922161076874,1.2475184215929104e+16,1.5499776992302402e+16,1345397980270439.2,1599067463024070.8,88414296384.26845,188543890412.79413,3197513466462.1655,76652861425499.17
12.409280604298411,1.2649665467436596e+16,1.571887353824591e+16,1364215075017728.5,1621432446770988.2,92202576408.3003,196622425989.90735,3334517286944.967,79937206731240.97
12.75746621638438,1.2825131030504628e+16,1.5939303805314198e+16,1383138323771495.8,1643923599443769.0,96120051880.72635,204976472626.46152,3476193498965.7046,83333561570816.56
13.112615540712067,1.3001604948003394e+16,1.6161101076068946e+16,1402170319457692.5,1666544002854337.0,100170656419.21814,213614418862.22623,3622684363836.991,86845336314422.78
13.474867851526309,1.3179110916705908e+16,1.6384298312327294e+16,1421313617677115.2,1689296694451933.5,104358441750.405,222544905109.69678,3774136414387.316,90476043731081.67
13.844365208556836,1.3357672311643974e+16,1.6608928188340706e+16,1440570739332064.5,1712184670445049.0,108687581102.43251,231776830888.99973,3930700577658.0854,94229301929971.52
14.221252512727972,1.3537312208768292e+16,1.6835023121966934e+16,1459944173070148.0,1735210888705990.8,113162372695.175,241319362271.06723,4092532301132.8667,98108837386429.42
14.605677562982532,1.3718053406049552e+16,1.706261530400535e+16,1479436377559976.2,1758378271475647.8,117787243330.56036,251181939534.31192,4259791682587.4404,102118488054750.53
14.997791114242183,1.3899918443144024e+16,1.72917367258509e+16,1499049783611985.2,1781689707884163.8,122566752085.52896,261374285040.18552,4432643603651.772,106262206569972.61
15.397746936527026,1.4082929619734056e+16,1.7522419205605862e+16,1518786796156409.2,1805148056301902.0,127505594110.21715,271906411333.14554,4611257867177.906,110544063540893.28
15.805701875257567,1.4267109012646186e+16,1.7754694412778308e+16,1538649796089373.8,1828756146533568.8,132608604534.03137,282788629470.7158,4795809338509.968,114968250936627.83
16.221815912762718,1.4452478491837386e+16,1.7988593891681578e+16,1558641141996964.0,1852516781867352.8,137880762482.34445,294031557589.4669,4986478090755.131,119539085569081.22
16.64625223101797,1.4639059735333176e+16,1.822414908364201e+16,1578763171766253.8,1876432740989715.0,143327195206.62375,305646129712.91235,5183449554157.399,124261012673764.55
17.079177275638333,1.48268742431942e+16,1.8461391348109564e+16,1599018204091507.2,1900506779775590.8,148953182330.86487,317643604807.43744,5386914669677.537,129138609591452.42
17.5207608211511,1.5015943350579272e+16,1.8700351982761588e+16,1619408539883006.8,1924741632962832.0,154764160217.28052,330035576092.56995,5597070046886.858,134176589553235.34
17.97117603757412,1.5206288239969172e+16,1.8941062242678444e+16,1639936463585318.2,1949140015719015.0,160765726454.2698,342833980612.03345,5814118126283.13,139379805571594.05
18.430599558325603,1.539792995260748e+16,1.9183553358666516e+16,1660604244411166.8,1973704625107973.0,166963644469.76303,356051109072.18414,6038267346141.427,144753254440172.34
18.899211549492115,1.5590889399212208e+16,1.9427856554794844e+16,1681414137496612.8,1998438141462792.0,173363848273.11008,369699615954.59045,6269732314014.194,150302080845003.4
19.37719578048196,1.5785187370005714e+16,1.96740030652101e+16,1702368384982738.0,2023343229671426.8,179972447328.75903,383792529909.6879,6508733982997.892,156031581590000.56
19.864739696091597,1.5980844544106892e+16,1.992202415028453e+16,1723469217028594.8,2048422540380607.8,186795731565.04456,398343264438.57513,6755499832886.45,161947209939585.72
20.36203449001343,1.6177881498326362e+16,2.01719511121524e+16,1744718852759684.8,2073678711123216.8,193840176521.48502,413365628870.20935,7010264056334.362,168054580081412.97
20.869275179813698,1.6376318715401564e+16,2.0423815309682132e+16,1766119501156097.2,2099114367373838.8,201112448638.05746,428873839641.40015,7273267750155.005,174359471712183.5
21.38666068340997,1.657617659170539e+16,2.0677648172930216e+16,1787673361883860.0,2124732123536847.5,208619410690.0026,444882531887.1756,7544759111882.573,180867834749639.25
21.91439389707817,1.6777475444459766e+16,2.0933481217118116e+16,1809382626072902.8,2150534583871100.0,216368127371.78976,461406771349.2712,7824993641728.977,187585794173877.2
22.452681775019734,1.6980235518483386e+16,2.1191346056171804e+16,1831249477044733.8,2176524343354762.8,224365871033.9487,478462066610.62384,8114234350069.813,194519655001199.22
23.00173541052013,1.7184476992498576e+16,2.145127441585866e+16,1853276090992661.8,2202703988493825.5,232620127576.5528,496064381663.98486,8412751970596.273,201675907393774.4
23.561770118730532,1.7390219985023136e+16,2.171329814655662e+16,1875464637617167.0,2229076098077233.2,241138602503.2253,514230148822.8596,8720825179272.919,209061231908473.47
24.133005521105144,1.7597484559868204e+16,2.1977449235685412e+16,1897817280718851.5,2255643243881669.5,249929227139.6086,532976281983.22833,9038740819244.111,216682504888286.4
24.715665631527248,1.7806290731263404e+16,2.2243759819829896e+16,1920336178751125.5,2282407991328434.0,259000165020.33066,552320190244.6096,9366794131834.676,224546803999818.16
25.309978944157795,1.8016658468627744e+16,2.2512262196582136e+16,1943023485334796.0,2309372900095048.0,268359818448.5773,572279791899.2563,9705288993793.664,232661413920418.97
25.91617852304095,1.822860770100416e+16,2.2782988836127516e+16,1965881349736237.0,2336540524683587.5,278016835232.4549,592873528798.407,10054538160932.566,241033832178581.34
26.53450209350177,1.844215832117297e+16,2.305597239259837e+16,1988911917311072.8,2363913414948029.5,287980115602.42914,614120381104.7135,10414863518312.465,249671775151300.66
27.165192135371807,1.8657330189459996e+16,2.3331245715218204e+16,2012117329914820.8,2391494116582305.5,298258819314.1802,636039882440.1357,10786596337138.236,258583184222172.4
27.808495978079243,1.8874143137251772e+16,2.360884185925568e+16,2035499726282027.5,2419285171570936.0,308862372941.32086,658652135438.7731,11170077538519.303,267776232104064.06
28.464665897640828,1.909261697023115e+16,2.3888794096809736e+16,2059061242375212.2,2447289118603754.0,319800477362.4994,681977827714.2386,11565657964261.053,277259329330266.97
29.133959215593645,1.9312771471344548e+16,2.4171135927442244e+16,2082804011704829.8,2475508493456194.0,331083115447.4732,706038248251.4528,11973698654853.531,287041130918118.5
29.816638399905518,1.953462640351047e+16,2.4455901088676576e+16,2106730165621427.5,2503945829336556.0,342720559946.85315,730855304232.777,12394571134825.598,297130543209126.44
30.51297116790363,1.9758201512079684e+16,2.474312356637717e+16,2130841833580935.2,2532603657201292.5,354723381590.2597,756451538308.6746,12828657705637.92,307536730889723.06
31.223230591261704,1.998351652705499e+16,2.503283760502548e+16,2155141143384087.8,2561484506039567.0,367102457397.7509,782850146323.214,13276351746288.975,318269124196817.7
31.947695203086937,2.0210591165078492e+16,2.5325077717905996e+16,2179630221390682.2,2590590903127936.0,379868979209.4135,810074995504.912,13738058021812.078,329337426312404.3
32.686649107148675,2.0439445131191772e+16,2.5619878697214244e+16,2204311192709499.2,2619925374256040.5,393034462438.12573,838150643133.5156,14214192999843.828,340751620951513.8
33.44038208929165,2.0670098120376936e+16,2.591727562409945e+16,2229186181364374.5,2649490443924059.5,406610755050.5341,867102355693.5603,14705185175446.484,352521980147891.25
34.20918973107749,2.0902569818879844e+16,2.6217303878650724e+16,2254257310437051.5,2679288635512387.5,420610046781.38043,896956128525.6045,15211475404369.96,364659072241795.0
34.993373525699035,2.113687990532217e+16,2.651999914983718e+16,2279526702186970.0,2709322471424118.5,435044878586.3425,927738705986.1943,15733517244940.254,377173770074404.25
35.793240996213015,2.1373048051601876e+16,2.6825397445407416e+16,2304996478148480.0,2739594473200500.5,449928152338.6374,959477602127.7156,16271777308763.975,390077259393326.94
36.60910581613728,2.16110939235843e+16,2.713353510175606e+16,2330668759205337.5,2770107161609549.5,465273140774.66223,992201121909.4191,16826735620439.053,403381047473762.8
37.44128793246003,2.1851037181582948e+16,2.7444448793760056e+16,2356545665642530.5,2800863056707591.5,481093497693.96405,1025938382950.9009,17398885986464.148,417096971959868.44
38.29011369110923,2.2092897480626468e+16,2.775817554458577e+16,2382629317175103.0,2831864677873542.5,497403268418.8742,1060719337839.4133,17988736373538.7,431237209930923.75
39.15591596493141,2.233669447050783e+16,2.8074752735467424e+16,2408921832953479.0,2863114543815240.0,514216900519.14325,1096574797002.356,18596809296445.9,445814287196865.25
40.03903428423004,2.258244779560947e+16,2.8394218115451388e+16,2435425331544529.0,2894615172546935.0,531549254806.84406,1133536452156.2927,19223642215711.184,460841087827737.4
40.93981496991464,2.2830177094492676e+16,2.8716609811100508e+16,2462141930887362.5,2926369081336720.0,549415616606.85004,1171636900343.6648,19869787945224.973,476330863921588.0
41.85861126931294,2.3079901999240052e+16,2.904196633614577e+16,2489073748222367.5,2958378786622246.5,567831707308.0339,1210909668568.307,20535815070018.414,492297245615242.94
42.7957834946992,2.333164213453417e+16,2.937032660107061e+16,2516222899991889.0,2990646803892624.5,586813696200.297,1251389239040.6052,21222308374374.668,508754251342329.94
43.751699164593184,2.3585417116451948e+16,2.9701729922606796e+16,2543591501710158.0,3023175647533855.0,606378212602.3467,1293111075042.7847,21929869280454.742,525716298342756.8
