t(s),Total solute volume 1,Total retention volume 1
0.1,3749719969724703.0,3766231474968908.0
0.20500000000000002,5532081822747568.0,5782543066414006.0
0.31525000000000003,6762218230348032.0,7415736198982600.0
0.4310125,7695446077847844.0,8885350414586786.0
0.552563125,8436923769827342.0,1.0273473978170516e+16
0.6801912812500001,9043835089089506.0,1.1621722441462778e+16
0.8142008453125001,9551539730871120.0,1.2955111360666742e+16
0.9549108875781251,9983297137982964.0,1.429050166810619e+16
1.1026564319570316,1.0354955829420938e+16,1.5640269754604672e+16
1.2577892535548831,1.0677647108862646e+16,1.7014131955350202e+16
1.4206787162326273,1.0959462802249744e+16,1.8420143368229212e+16
1.5917126520442588,1.1206515643068676e+16,1.986528637349142e+16
1.771298284646472,1.1423601983931632e+16,2.1355838300692572e+16
1.9598631988787958,1.1614612332684982e+16,2.2897612480264188e+16
2.1578563588227357,1.1782787409004982e+16,2.4496122926823744e+16
2.3657491767638725,1.193088170972148e+16,2.615670102683707e+16
2.5840366356020663,1.2061271715960552e+16,2.7884581045618624e+16
2.8132384673821695,1.2176030277432976e+16,2.9684964839054864e+16
3.053900390751278,1.2276979641643526e+16,3.156307241512802e+16
3.306595410288842,1.2365730519555016e+16,3.3524182727502236e+16
3.5719251808032846,1.244371173976915e+16,3.557366766644372e+16
3.850521439843449,1.2512193409836462e+16,3.771702129768224e+16
4.143047511835621,1.2572305520329262e+16,3.995988579350741e+16
4.450199887427402,1.262505330572065e+16,4.2308075089089736e+16
4.7727098817987725,1.2671330265264798e+16,4.476759701247649e+16
5.111345375888711,1.2711929466282942e+16,4.7344674436687e+16
5.4669126446831475,1.2747555450421444e+16,5.0045765764535064e+16
5.8402582769173055,1.2778825438071208e+16,5.287758548446795e+16
6.232271190763171,1.280628933747776e+16,5.584712428904075e+16
6.64388475030133,1.2830429767735078e+16,5.896166948299383e+16
7.076078987816397,1.285167030409226e+16,6.222882568681557e+16
7.529882937207217,1.2870382032100066e+16,6.5656535940011224e+16
8.006377084067578,1.288688941551139e+16,6.9253103297986536e+16
8.506695938270958,1.2901475636507742e+16,7.302721300796984e+16
9.032030735184506,1.2914387451555846e+16,7.698795534322942e+16
9.583632271943731,1.2925839587451484e+16,8.114484917103293e+16
10.162813885540919,1.2936018699946726e+16,8.550786632802437e+16
10.770954579817966,1.294508691873949e+16,9.008745687641718e+16
11.409502308808865,1.295318500464294e+16,9.489457531517357e+16
12.079977424249309,1.2960435146550104e+16,9.99407078217578e+16
12.783976295461775,1.2966943427020332e+16,1.0523790060188278e+17
13.523175110234865,1.2972801985823852e+16,1.1079878942673402e+17
14.29933386574661,1.297809091059167e+16,1.1663663043936248e+17
15.114300559033941,1.2982879882912386e+16,1.2276533231425781e+17
15.970015586985639,1.2987229606909212e+16,1.2919948985652261e+17
16.868516366334923,1.2991193045649094e+16,1.359544191295957e+17
17.81194218465167,1.2994816488806956e+16,1.4304619420312728e+17
18.802539293884255,1.299814047294606e+16,1.504916856154396e+17
19.84266625857847,1.3001200573671962e+16,1.5830860064802736e+17
20.93479957150739,1.300402808685069e+16,1.6651552551278675e+17
22.08153955008276,1.3006650614102548e+16,1.751319695561712e+17
23.2856165275869,1.300909256593261e+16,1.8417841158820173e+17
24.549897353966244,1.301137559415764e+16,1.936763484483197e+17
25.877392221664557,1.3013518963749176e+16,2.03648345924375e+17
27.271261832747786,1.3015539872835574e+16,2.1411809214569254e+17
28.734824924385176,1.3017453728387052e+16,2.2511045357607386e+17
30.271566170604437,1.3019274384039214e+16,2.3665153373786342e+17
31.88514447913466,1.3021014345579604e+16,2.4876873480375517e+17
33.57940170309139,1.3022684948816258e+16,2.614908221989254e+17
35.35837178824596,1.302429651385356e+16,2.748479923622695e+17
37.22629037765826,1.3025858479206368e+16,2.8887194382209274e+17
39.187604896541174,1.3027379518674172e+16,3.035959517484575e+17
41.246985141368235,1.3028867643464564e+16,3.190549461516299e+17
43.40933439843665,1.3030330291686204e+16,3.352855939036125e+17
45.67980111835848,1.3031774407019076e+16,3.523263847676729e+17
48.06379117427641,1.3033206508103478e+16,3.7021772162905696e+17
50.56698073299023,1.3034632749964906e+16,3.8900201512865446e+17
53.19532976963975,1.3036058978600714e+16,4.0872378291044986e+17
55.95509625812174,1.3037490779693218e+16,4.294297537029061e+17
58.85285107102783,1.3038933522276208e+16,4.511689764641913e+17
61.895493624579224,1.3040392398066738e+16,4.7399293483131866e+17
65.0902683058082,1.3041872457074516e+16,4.9795566712374624e+17
68.44478172109861,1.3043378640018206e+16,5.231138921629521e+17
71.96702080715355,1.3044915808006746e+16,5.4952714118077894e+17
75.66537184751122,1.304648876988322e+16,5.772578961011046e+17
79.54864043988678,1.3048102307578046e+16,6.06371734491477e+17
83.62607246188112,1.3049761199773538e+16,6.369374814939203e+17
87.90737608497518,1.3051470244145736e+16,6.690273690570324e+17
92.40274488922395,1.3053234278417046e+16,7.027172028048347e+17
97.12288213368515,1.3055058200426036e+16,7.380865368915653e+17
102.07902624036942,1.3056946987398392e+16,7.752188572056988e+17
107.28297755238789,1.3058905714582782e+16,8.142017733010057e+17
112.74712643000728,1.306093957339864e+16,8.551272194472735e+17
118.48448275150766,1.3063053889229612e+16,8.980916652084992e+17
124.50870688908304,1.3065254138982624e+16,9.431963359719187e+17
130.8341422335372,1.3067545968524378e+16,9.905474438669481e+17
137.47584934521407,1.3069935210096958e+16,1.0402564295292433e+18
144.4496418124748,1.3072427899807714e+16,1.0924402151813024e+18
151.77212390309853,1.30750302952827e+16,1.14722146951747e+18
159.46073009825346,1.3077748893567884e+16,1.2047288848977654e+18
167.53376660316616,1.308059044935843e+16,1.2650974673715374e+18
176.01045493332447,1.3083561993633406e+16,1.3284688400685117e+18
184.9109776799907,1.3086670852770888e+16,1.3949915605112724e+18
194.25652656399023,1.3089924668216666e+16,1.4648214524194424e+18
204.06935289218976,1.309333141677901e+16,1.5381219525917919e+18
214.37282053679925,1.309689943162099e+16,1.6150644734679813e+18
225.19146156363922,1.310063742402233e+16,1.6958287819865562e+18
236.5510346418212,1.3104554505983188e+16,1.780603395369975e+18
248.47858637391226,1.31086602137429e+16,1.869585994480701e+18
261.00251569260786,1.311296453228861e+16,1.962983855404548e+18
274.15264147723826,1.3117477920929896e+16,2.0610142999281587e+18
287.96027355110016,1.3122211340018592e+16,2.1639051655867633e+18
302.4582872286552,1.3127176278894446e+16,2.2718952959656184e+18
317.681201590088,1.3132384707366062e+16,2.385235052375846e+18
333.6652616695924,1.3137849431524448e+16,2.504186845368576e+18
350.44852475307204,1.314358361001681e+16,2.6290256913928924e+18
368.07095099072563,1.3149601157772556e+16,2.7600397904825385e+18
386.5744985402619,1.3155916678968886e+16,2.897531128147475e+18
406.003223467275,1.316254550439259e+16,3.0418161016381824e+18
426.40338464063876,1.3169503730900352e+16,3.193226171217746e+18
447.82355387267074,1.3176808262736646e+16,3.352108537070234e+18
470.3147315663043,1.3184476854898448e+16,3.5188268424456064e+18
493.93046814461957,1.3192528158722492e+16,3.693761903605945e+18
518.7269915518506,1.3200981769855474e+16,3.8773124670940104e+18
544.7633411294431,1.3209858278764628e+16,4.069895994793139e+18
572.1015081859153,1.321917932394818e+16,4.271949477185372e+18
600.8065835952111,1.322896764801184e+16,4.483930275142167e+18
630.9469127749717,1.3239247156786244e+16,4.706316990497229e+18
662.5942584137202,1.3250042981669486e+16,4.939610365553181e+18
695.8239713344062,1.326138154539023e+16,5.184334211561136e+18
730.7151699011266,1.327329063139885e+16,5.441036366083567e+18
767.350928396183,1.3285799457106654e+16,5.710289679004098e+18
805.8184748159922,1.3298938751207086e+16,5.992693026782639e+18
846.2093985567918,1.3312740835327908e+16,6.288872354365927e+18
888.6198684846314,1.3327239710278326e+16,6.599481743953735e+18
933.150861908863,1.3342471147172914e+16,6.92520450958446e+18
979.9084050043062,1.335847278373122e+16,7.266754316240099e+18
1029.0038252545216,1.3375284226071064e+16,7.624876321876517e+18
1080.5540165172476,1.3392947156334898e+16,8.000348340458388e+18
1134.68171734311,1.3411505446508138e+16,8.393982023716132e+18
1191.5158032102656,1.3431005278813454e+16,8.806624058942281e+18
1251.191593370779,1.3451495273086998e+16,9.239157379703134e+18
1313.851173039318,1.3473026621569882e+16,9.692502385857432e+18
1379.6437316912838,1.3495653231573576e+16,1.0167618168740778e+19
1448.725918275848,1.3519431876507138e+16,1.0665503736792738e+19
1521.2622141896404,1.3544422355783184e+16,1.1187199236268452e+19
1597.4253248991224,1.3570687664150516e+16,1.173378716098376e+19
1677.3965911440787,1.3598294171033374e+16,1.2306393544293212e+19
1761.3664207012828,1.3627311810490338e+16,1.2906189125685035e+19
1849.534741736347,1.3657814282439998e+16,1.3534390483501275e+19
1942.1114788231646,1.36898792658352e+16,1.4192261124343654e+19
2039.3170527643229,1.3723588644502586e+16,1.4881112518713606e+19
2141.382905402539,1.3759028746399196e+16,1.5602305071348793e+19
2248.552050672666,1.379629059707268e+16,1.6357249013563544e+19
2361.0796532062996,1.3835470188144208e+16,1.714740520367502e+19
2479.233635866615,1.387666876166466e+16,1.797428582030052e+19
2603.295317659946,1.3919993111223372e+16,1.883945493195087e+19
2733.560083542943,1.3965555900711202e+16,1.974452892492049e+19
2870.3380877200907,1.4013476001659756e+16,2.0691176769994908e+19
3013.9549921060952,1.4063878850087146e+16,2.168112010697063e+19
3164.7527417114,1.4116896823783338e+16,2.2716133124419105e+19
3323.0903787969705,1.4172669640955274e+16,2.37980422105431e+19
3489.3448977368193,1.423134478112616e+16,2.492872534938631e+19
3663.9121426236607,1.429307792913636e+16,2.6110111235088945e+19
3847.207749754844,1.4358033443024956e+16,2.7344178075360965e+19
4039.6681372425865,1.442638484647196e+16,2.86329520539002e+19
4241.751544104716,1.4498315346350378e+16,2.997850542016047e+19
4453.9391213099525,1.457401837576239e+16,3.1382954173709636e+19
4676.73607737545,1.4653698162712678e+16,3.2848455309479473e+19
4910.6728812442225,1.4737570324291218e+16,3.4377203589540483e+19
5156.306525306434,1.4825862485889356e+16,3.5971427806728462e+19
5414.221851571756,1.4918814924546376e+16,3.76333865055696e+19
5685.032944150344,1.50166812350046e+16,3.936536312660379e+19
5969.384591357861,1.5119729016428034e+16,4.1169660541489545e+19
6267.953820925754,1.5228240576998016e+16,4.304859494830663e+19
6581.451511972043,1.5342513652723568e+16,4.500448909938961e+19
6910.624087570645,1.5462862135783304e+16,4.7039664837958476e+19
7256.255291949178,1.5589616806531416e+16,4.915643492492517e+19
7619.168056546638,1.572312606194699e+16,5.135709414370558e+19
8000.22645937397,1.5863756631770572e+16,5.3643909678826275e+19
8400.337782342669,1.6011894271857002e+16,5.601911077376527e+19
8820.454671459804,1.6167944422379332e+16,5.848487768497563e+19
9261.577405032795,1.6332332816466268e+16,6.104332996258862e+19
9724.756275284435,1.6505506022669922e+16,6.369651410402572e+19
10211.094089048658,1.6687931902389806e+16,6.644639064480322e+19
10721.748793501092,1.6880099961091402e+16,6.929482077127657e+19
11257.936233176148,1.7082521569939954e+16,7.224355256298055e+19
11820.933044834956,1.7295730032442988e+16,7.52942069975408e+19
12412.079697076704,1.7520280468996104e+16,7.844826387871844e+19
13032.78368193054,1.7756749491024704e+16,8.170704787775994e+19
13684.522866027066,1.800573463588523e+16,8.50717149094362e+19
14368.84900932842,1.826785353402415e+16,8.854323909640844e+19
15087.391459794842,1.854374278124844e+16,9.212240060805669e+19
15841.861032784585,1.8834056491472828e+16,9.580977469167529e+19
16634.054084423817,1.913946450901296e+16,9.960572224372426e+19
17465.856788645007,1.946065026188267e+16,1.0351038229543946e+20
18339.249628077258,1.979830826046787e+16,1.0752366680715277e+20
19256.31210948112,2.0153141200711644e+16,1.1164525818308103e+20
20219.227714955177,2.0525856723205836e+16,1.1587460992036825e+20
21230.289100702936,2.091716379934707e+16,1.2021095080345957e+20
22291.903555738085,2.1327768771103164e+16,1.2465329303666834e+20
23406.59873352499,2.1758371056616104e+16,1.2920044467618557e+20
24577.028670201238,2.2209658536263444e+16,1.3385102667576282e+20
25805.980103711303,2.268230263223426e+16,1.3860349479705274e+20
27096.37910889687,2.317695309246126e+16,1.43456166555624e+20
28451.298064341714,2.3694232488940276e+16,1.4840725327696465e+20
29873.9629675588,2.4234730443921036e+16,1.5345489722371562e+20
31367.76111593674,2.479899760850977e+16,1.5859721362655973e+20
32936.24917173358,2.5387539440112124e+16,1.6383233730766327e+20
34583.16163032026,2.6000809860165348e+16,1.6915847342866897e+20
36312.41971183628,2.6639204922278668e+16,1.7457395172700688e+20
38128.1406974281,2.7303056681235612e+16,1.8007728342779147e+20
40034.647732299505,2.7992627520533416e+16,1.8566721983827775e+20
42036.48011891448,2.8708105262883092e+16,1.9134281145439692e+20
44138.4041248602,2.9449599445256184e+16,1.9710346624307983e+20
46345.42433110321,3.021713917801262e+16,2.0294900562118725e+20
48662.795547658374,3.10106730176067e+16,2.0887971654511798e+20
51096.035325041295,3.1830071257691856e+16,2.1489639806884528e+20
53650.93709129336,3.267513098043087e+16,2.210004007363501e+20
56333.58394585803,3.35455841080935e+16,2.2719365725948146e+20
59150.363143150935,3.444110855756715e+16,2.334787031030138e+20
62107.981300308486,3.5361342433312136e+16,2.3985868585882757e+20
65213.480365323914,3.630590100654225e+16,2.4633736263818022e+20
68474.25438359012,3.72743960316556e+16,2.5291908513520117e+20
71898.06710276962,3.826645675919914e+16,2.5960877249884026e+20
75493.0704579081,3.928175183383091e+16,2.6641187267036214e+20
79267.82398080351,4.032001113266119e+16,2.733343133689312e+20
83231.31517984369,4.1381046520256216e+16,2.8038244440473413e+20
87392.98093883587,4.246477048518222e+16,2.8756297343180987e+20
91762.72998577767,4.357121168821933e+16,2.948828975871962e+20
96350.96648506656,4.470052659647221e+16,3.023494336701535e+20
101168.61480931989,4.585300659456347e+16,3.099699495741993e+20
106227.14554978588,4.702908023935675e+16,3.177518995856803e+20
111538.60282727519,4.822931063598852e+16,3.257027659085129e+20
117115.63296863895,4.9454388232637544e+16,3.3383000838186146e+20
122971.5146170709,5.070511962935467e+16,3.421410238544452e+20
129120.19034792445,5.198241324376244e+16,3.5064311610441033e+20
135576.29986532067,5.328726285001368e+16,3.593434765920085e+20
142355.21485858673,5.462073009179783e+16,3.6824917575014783e+20
149473.07560151606,5.59839270602625e+16,3.7736716399852526e+20
156946.82938159187,5.737799992896268e+16,3.867042812464737e+20
164794.27085067148,5.8804114465423864e+16,3.9626727335276544e+20
173034.08439320506,6.0263444014915336e+16,4.060628138491842e+20
181685.88861286532,6.17571603029492e+16,4.160975292073278e+20
190770.2830435086,6.328642715565557e+16,4.263780260206825e+20
200308.89719568403,6.485239701545415e+16,4.3691091866321564e+20
210324.44205546824,6.6456209951654824e+16,4.477028562416294e+20
220840.76415824165,6.8098994742817096e+16,4.5876054794934105e+20
231882.90236615375,6.978187154318225e+16,4.7009078622572924e+20
243477.14748446146,7.150595563546933e+16,4.817004673988272e+20
255651.10485868453,7.327236180746715e+16,4.9359660972464164e+20
268433.76010161877,7.508220895740318e+16,5.057863689204315e+20
281855.5481066997,7.693662461911456e+16,5.182770514191423e+20
295948.42551203474,7.883674918950598e+16,5.3107612565013876e+20
310745.9467876365,8.078373972698512e+16,5.441912316847809e+20
326283.34412701835,8.27787732630772e+16,5.5763018958385526e+20
342597.6113333693,8.482304962619397e+16,5.714010067580625e+20
359727.5919000378,8.691779381568637e+16,5.85511884612608e+20
377714.0714950397,8.906425798721429e+16,5.999712247006817e+20
396599.8750697917,9.126372342214982e+16,6.14787634362553e+20
416429.9688232813,9.351750118816669e+16,6.299699327754144e+20
437251.56726444536,9.582693331114931e+16,6.45527156731893e+20
459114.24562766764,9.819339553678965e+16,6.614685654865711e+20
482070.057909051,1.0061829686191374e+17,6.778036467467569e+20
506173.6608045036,1.0310308076964592e+17,6.945421224250792e+20
531482.4438447288,1.0564922623861928e+17,7.116939544693167e+20
558056.6660369652,1.0825824869252642e+17,7.292693508124583e+20
585959.5993388135,1.1093170093681918e+17,7.472787714588988e+20
615257.6793057541,1.1367117410103427e+17,7.657329347155076e+20
646020.6632710418,1.1647829859545422e+17,7.84642823573743e+20
678321.796434594,1.1935474508668882e+17,8.040196922478842e+20
712237.9862563238,1.2230222549482619e+17,8.238750728738991e+20
747849.98556914,1.253224940138451e+17,8.442207823732918e+20
785242.5848475969,1.284173481564804e+17,8.650689294862372e+20
824504.8140899768,1.3158862982448507e+17,8.864319219782218e+20
865730.1547944758,1.3483822640509682e+17,9.08322474024636e+20
909016.7625341996,1.3816807189446088e+17,9.30753613777626e+20
954467.7006609096,1.4158014804872565e+17,9.537386911198383e+20
1002191.1856939552,1.450764855635271e+17,9.772913856096094e+20
1052300.844978653,1.4865916528258144e+17,1.0014257146223452e+21
1104915.9872275856,1.5233031943611334e+17,1.026156041692973e+21
1160161.886588965,1.5609213290985558e+17,1.0514970850643843e+21
1218170.0809184134,1.599468445453902e+17,1.0774639264470065e+21
1279078.6849643341,1.6389674847259562e+17,1.104072019994658e+21
1343032.719212551,1.679441954749946e+17,1.1313372015020944e+21
1410184.4551731786,1.720915943888308e+17,1.1592756978296745e+21
1480693.7779318376,1.763414135366769e+17,1.1879041365607574e+21
1554728.5668284295,1.806961821964645e+17,1.2172395558976141e+21
1632465.095169851,1.851584921067777e+17,1.2472994148017e+21
1714088.4499283438,1.897309990093271e+17,1.278101603384355e+21
1799792.972424761,1.9441642422951354e+17,1.3096644535540735e+21
1889782.721045999,1.9921755629602115e+17,1.342006749926765e+21
1984271.9570982992,2.0413725260041443e+17,1.3751477410053848e+21
2083485.654953214,2.091784410977065e+17,1.409107150635673e+21
2187660.0377008747,2.1434412204893558e+17,1.443905189744799e+21
2297043.1395859187,2.1963736980676646e+17,1.4795625683698972e+21
2411895.3965652147,2.2506133464519203e+17,1.5161005079836046e+21
2532490.2663934757,2.3061924463441434e+17,1.5535407541240476e+21
2659114.8797131497,2.3631440756203258e+17,1.5919055893366623e+21
2792070.7236988074,2.4215021290166803e+17,1.6312178464356392e+21
2931674.359883748,2.4813013383021066e+17,1.671500922092893e+21
3078258.1778779356,2.5425772929487808e+17,1.7127787907625478e+21
3232171.1867718324,2.605366461313191e+17,1.7550760189493508e+21
3393779.846110424,2.669706212340288e+17,1.79841777982937e+21
3563468.9384159455,2.7356348378035792e+17,1.8428298682318672e+21
3741642.485336743,2.8031915750945024e+17,1.8883387159910275e+21
3928724.70960358,2.872416630574466e+17,1.9349714076768448e+21
4125161.0450837594,2.943351203503696e+17,1.982755696714556e+21
4331419.197337948,3.016037510560988e+17,2.0317200219020124e+21
4547990.257204846,3.0905188109688723e+17,2.081893524335036e+21
4775389.870065088,3.166839432239338e+17,2.1333060647507457e+21
5014159.463568343,3.2450447965553914e+17,2.1859882412991623e+21
5264867.53674676,3.3251814478039706e+17,2.2399714077536517e+21
5528111.013584098,3.40729707927657e+17,2.295287692171143e+21
5804516.664263302,3.4914405620538515e+17,2.351970016013108e+21
6094742.5974764675,3.577661974091265e+17,2.410052113738769e+21
6399479.827350291,3.6660126300013434e+17,2.4695685528822864e+21
6689705.760563456,3.749103975879555e+17,2.5249976834529286e+21
6994442.99043728,3.834347332060539e+17,2.5819042925888835e+21
7314417.081804795,3.921661818223339e+17,2.640324011764431e+21
7650389.877740686,4.01108597795704e+17,2.7002949518721936e+21
8003161.313473371,4.102712117459282e+17,2.761856296785101e+21
8373571.3209926905,4.19664641329151e+17,2.825047631061762e+21
8762501.828887977,4.293043478155761e+17,2.8899085204094e+21
9170878.862178026,4.393195942195393e+17,2.956471526896255e+21
