t(s),Total solute volume 1,Total retention volume 1,Total 1 volume 1,Total 2 volume 1,Total 3 volume 1,Total 4 volume 1,Total 5 volume 1,Total 6 volume 1
0.1,1090211262672958.4,1436790320131653.8,152346489675587.4,194232567783107.2,0.0,0.0,0.0,0.0
0.202,1639236089975497.2,2166138302095794.8,229067405544606.16,292047104211184.6,4406817832.177642,10468740654.514174,208705187004.5056,5564121619014.003
0.30604000000000003,2055607150951164.0,2723749518430059.0,287251238566383.5,366227977092734.4,11162671369.76907,26517831480.04627,528671115095.2154,14096800201836.01
0.41216080000000005,2406144906456277.0,3197065587841307.5,336235503137995.44,428679955616550.25,19795638686.151344,47026183464.35416,937542342612.6519,25000858465717.594
0.5204040160000001,2715947442639348.0,3618882290016521.0,379527414362729.1,483874527400951.7,30091950548.38832,71485976032.40837,1425193914628.0044,38006133772282.805
0.6308120963200001,2997532504112351.5,4005541335461656.5,418876206119953.3,534041860028758.1,41933337827.64972,99616257298.6681,1986024336623.5132,52963191268842.445
0.7434283382464002,3258179003373911.0,4366542212573279.0,455299036108735.4,580478768140448.4,55248729416.36317,131248198284.88097,2616667608547.8716,69782240413938.195
0.8582969050113283,3502550079218912.5,4707972978532937.0,489447532923391.7,624016038838037.1,69994369151.3405,166277859069.05374,3315051462017.917,88408003862359.6
0.9754628431115548,3733839915082797.5,5034008746770185.0,521768052838468.06,665222749411878.5,86143997515.87512,204642864663.29193,4079932327332.8823,108807310247517.42
1.094972099973786,3954346559593724.5,5347659440995147.0,552581725947009.44,704508321333805.0,103683398756.89351,246309451289.1184,4910637066977.659,130962204203590.48
1.2168715419732616,4165786603823912.5,5651180186167871.0,582128429266326.2,742178583311565.6,122607111866.09433,291264653083.4904,5806907198202.184,154865790802904.62
1.3412089728127268,4369480890167592.5,5946313282694297.0,610592737759499.2,778468857274016.1,142916321466.29123,339511291762.09906,6768798999994.907,180519570879972.2
1.4680331522689813,4566470426660154.0,6234439106819565.0,638120122241604.9,813564609723246.4,164617439978.6558,391064608474.2651,7796616361306.795,207931649784812.38
1.597393815314361,4757592074266253.0,6516674558793737.0,664827525946965.4,847614936219042.0,187721118201.01273,445949913381.6342,8890863920091.982,237115487409803.0
1.729341691620648,4943529835320205.0,6793939720824506.0,690810531593178.6,880741698952618.4,212241533669.91083,504200895133.97595,10052213358972.254,268088999170725.34
1.863928525453061,5124850705440941.0,7067004416892875.0,716148371339848.0,913045914141391.1,238195865971.30475,565858374456.3071,11281478555299.988,300873893174967.9
2.001207095962122,5302030405982878.0,7336521606696013.0,740907522649976.4,944612336535063.0,265603901857.01923,630969366100.2241,12579596879171.994,335495171380962.3
2.1412312378813647,5475472278349012.0,7603051889228543.0,765144348587657.2,975512825635691.0,294487732917.2097,699586360669.8666,13947614875144.47,371980747687454.44
2.284055862638992,5645521434782998.0,7867081843605777.0,788907075254574.9,1005808866809778.4,324871520777.5748,771766766858.96,15386677142104.287,410361151328685.4
2.4297369798917723,5812475542487175.0,8129037998984074.0,812237298766283.4,1035553492592010.1,356781312553.1042,847572473077.0724,16898017593431.438,450669293759541.44
2.578331719489608,5976593169625119.0,8389297641309382.0,835171151525425.2,1064792769613149.1,390244894369.2689,927069499509.036,18482952520147.766,492940283631667.4
2.7298983538794,6138100333791379.0,8648197289581476.0,857740217307135.1,1093566965278651.6,425291674171.1417,1010327719751.2449,20142875041235.293,537211278769139.2
2.884496320956988,6297195703868330.0,8906039427441256.0,879972258168237.6,1121911474533986.9,461952587382.3835,1097420636730.76,21879250636202.457,583521367010378.1
3.0421862473761276,6454054778466700.0,9163097909718924.0,901891798343972.1,1149857564297691.5,500260020616.7182,1188425201510.7979,23693613532685.734,631911469855758.8
3.2030299723236504,6608833276404495.0,9419622349482762.0,923520598034652.8,1177432977510738.8,540247749815.23676,1283421666367.24,25587563777320.293,682424264339361.6
3.3670905717701234,6761669913303689.0,9675841711358124.0,944878041408218.5,1204662427816351.5,581950890031.9678,1382493465537.9739,27562764858329.887,735104119615991.8
3.5344323832055258,6912688694747252.0,9931967280199454.0,965981457046796.2,1231568008110013.2,625405854715.1826,1485727118531.5527,29620941777889.066,789997045544266.9
3.7051210308696363,7062000824947656.0,1.018819513330579e+16,986846384664656.2,1258169530588756.8,670650322798.2235,1593212151989.656,31763879494395.883,847150651135548.5
3.879223451487029,7209706306838041.0,1.0444708214472164e+16,1007486798705518.6,1284484811824203.2,717723212265.924,1705041036934.4158,33993421671478.938,906614111183695.4
4.0568079205167695,7355895292430486.0,1.0701678086027304e+16,1027915297042048.9,1310529913343051.5,766664659131.7908,1821309138871.2415,36311469683308.09,968438139730405.6
4.237944078927105,7500649229494167.0,1.0959266418425934e+16,1048143261213076.1,1336319345919820.5,817516000968.9203,1942114678711.2136,38719981835619.62,1032674969283572.2
4.422702960505647,7644041840917661.0,1.1217626264405434e+16,1068180993279996.5,1361866244060515.5,870319764299.6201,2067558702861.9949,41220972769537.79,1099378334910573.4
4.61115701971576,7786139965706615.0,1.1476903155117136e+16,1088037833348074.1,1387182515835181.0,925119655276.0969,2197745061139.0356,43816513021314.62,1168603462489566.2
4.803380160110075,7927004284844891.0,1.1737236048230972e+16,1107722260998535.1,1412278972197696.5,981960553185.7758,2332780391388.8687,46508728715891.14,1240407060529407.8
4.9994477633122765,8066689950789726.0,1.1998758152244506e+16,1127241983254413.5,1437165439136904.2,1040888506395.5803,2472774109908.6357,49299801376023.664,1314847315071146.5
5.199436718578522,8205247135870928.0,1.226159764670006e+16,1146604011214066.0,1461850855379729.8,1101950730414.7305,2617838406900.4814,52191967831793.28,1391983887266210.2
5.403425452950093,8342721512096815.0,1.252587831443505e+16,1165814727099381.5,1486343357873594.0,1165195607808.4539,2768088246325.361,55187520217830.55,1471877913293314.2
5.611493962009095,8479154672662423.0,1.2791720099140066e+16,1184879943157516.2,1510650356882558.8,1230672689738.2227,2923641369623.2646,58288806047628.69,1554592006330565.8
5.823723841249277,8614584503687641.0,1.3059239599213742e+16,1203804953607695.0,1534778602216347.5,1298432698939.655,3084618302851.191,61498228356001.625,1640190260344271.2
6.040198318074262,8749045513283855.0,1.3328550507061864e+16,1222594580625078.2,1558734241857044.5,1368527533978.5718,3251142366860.1904,64818245902136.02,1728738255492911.0
6.261002284435747,8882569123889581.0,1.3599764001490688e+16,1241253215191857.5,1582522874041725.5,1441010274650.2322,3423339690190.999,68251373426844.82,1820303064975818.2
6.486222330124463,9015183932867654.0,1.3872989099624702e+16,1259784853513197.0,1606149593690615.5,1515935188407.2004,3601339224415.896,71800181958601.69,1914953263181798.8
6.715946776726952,9146915945580602.0,1.4148332973777816e+16,1278193129587265.5,1629619033931885.5,1593357737718.541,3785272761696.2354,75467299163747.64,2012758935014896.5
6.950265712261491,9277788784518920.0,1.4425901237880242e+16,1296481344428881.0,1652935403360044.0,1673334588277.68,3975274954359.1216,79255409736961.2,2113791686292806.5
7.18927102650672,9407823877525836.0,1.4705798207380308e+16,1314652492372105.8,1676102519570178.8,1755923617988.6895,4171483336326.3774,83167255828661.69,2218124655129211.5
7.433056447036854,9537040627719516.0,1.498812713597031e+16,1332709284815252.0,1699123839431363.5,1841183926671.2886,4374038346254.475,87205637506528.16,2325832524224718.5
7.681717575977592,9665456567342992.0,1.5272990432009616e+16,1350654171719883.2,1722002486496638.8,1929175846434.1855,4583083352265.536,91373413248744.05,2436991534002667.0
7.935351927497144,9793087497461550.0,1.5560489857119092e+16,1368489361132222.5,1744741275891552.0,2019960952674.141,4798764678168.396,95673500466956.03,2551679496535992.0
8.194058966047088,9919947615164460.0,1.585072670908352e+16,1386216836958326.2,1767342736976521.0,2113602075665.0405,5021231631085.24,100108876057258.84,2669975810220204.0
8.45794014536803,1.0046049629706646e+16,1.6143801990914794e+16,1403838375193786.0,1789809134038648.0,2210163312707.3726,5250636530413.249,104682576977801.12,2791961475154793.0
8.72709894827539,1.0171404868836052e+16,1.643981656768631e+16,1421355558781922.8,1812142485235068.0,2309710040813.631,5487134738063.617,109397700851866.45,2917719109202508.0
9.0016409272409,1.0296023376392556e+16,1.6738871312542766e+16,1438769791252330.0,1834344579981237.0,2412308929909.908,5730884689931.149,114257406595489.02,3047332964701314.0
9.281673745785717,1.0419914002126288e+16,1.7041067243114866e+16,1456082309272089.5,1856416994952979.8,2518027956538.123,5982047928557.297,119264915068876.1,3180888945809508.5
9.567307220701432,1.0543084484564986e+16,1.7346505649415824e+16,1473294194225676.2,1878361108850195.0,2626936418046.8906,6240789136958.918,124423509751068.05,3318474626468908.5
9.85865336511546,1.06655415276578e+16,1.7655288214168164e+16,1490406382925219.0,1900178116051756.0,2739104947262.378,6507276173601.81,129736537437435.86,3460179268975094.0
10.155826432417769,1.0787290871836616e+16,1.796751712639666e+16,1507419677540615.8,1921869039275825.5,2854605527633.4897,6781680108506.3,135207408959750.53,3606093843147689.5
10.458942961066125,1.090833736005802e+16,1.828329518902703e+16,1524334754828245.5,1943434741345904.0,2973511508848.443,7064175260477.628,140839599928683.7,3756311046096896.0
10.768121820287448,1.1028684999323852e+16,1.8602725921145784e+16,1541152174727911.8,1964875936151407.0,3095897622922.1147,7354939235459.901,146636651498717.7,3910925322585530.5
11.083484256693197,1.1148337018121138e+16,1.892591365550278e+16,1557872388389468.0,1986193198881139.8,3221840000755.704,7654152966018.174,152602171155553.94,4070032885988697.5
11.405153941827061,1.1267295920170822e+16,1.9252963631776948e+16,1574495745683737.5,2007386975599256.5,3351416189172.6357,7962000751957.08,158739833526184.62,4233731739855804.0
11.733257020663602,1.138556353483209e+16,1.958398208606763e+16,1591022502245975.8,2028457592225245.8,3484705168435.909,8278670302089.723,165053381211909.06,4402121700081893.5
12.067922161076874,1.150314106446871e+16,1.9919076337025884e+16,1607452826094902.8,2049405262972808.5,3621787370254.45,8604352777174.04,171546625644630.38,4575304417697389.0
12.409280604298411,1.162002912905218e+16,2.0258354868998716e+16,1623786803865535.0,2070230098296331.5,3762744696286.9395,8939242834037.926,178223447966860.4,4753383402287549.0
12.75746621638438,1.1736227808244016e+16,2.0601927412520616e+16,1640024446689800.0,2090932112388342.0,3907660537153.653,9283538670917.605,185087799935926.1,4936464046054522.0
13.112615540712067,1.1851736681175808e+16,2.094990502245354e+16,1656165695755398.0,2111511230266659.5,4056619791967.7563,9637442074037.236,192143704852923.03,5124653648536737.0
13.474867851526309,1.1966554864119366e+16,2.1302400154047788e+16,1672210427569840.2,2131967294485799.2,4209708888398.9263,10001158465460.36,199395258517043.0,5318061442001890.0
13.844365208556836,1.2080681046221284e+16,2.165952673717148e+16,1688158458954017.2,2152300071503428.0,4367015803283.3296,10374896952246.97,206846630205934.72,5516798617531200.0
14.221252512727972,1.2194113523455966e+16,2.2021400248930044e+16,1704009551786809.8,2172509257729455.8,4528630083795.077,10758870376952.088,214502063682823.25,5720978351814273.0
14.605677562982532,1.2306850230935756e+16,2.2388137784882692e+16,1719763417520103.8,2192594485282433.0,4694642869195.119,11153295369504.523,222365878231156.84,5930715834674554.0
14.997791114242183,1.2418888773701866e+16,2.275985812903725e+16,1735419721481542.2,2212555327475273.5,4865146913174.62,11558392400506.62,230442469717589.75,6146128297347317.0
15.397746936527026,1.2530226456106722e+16,2.31366818227965e+16,1750978086980413.0,2232391304050019.5,5040236606810.794,11974385835997.213,238736311684154.22,6367335041532376.0
15.805701875257567,1.2640860309887152e+16,2.3518731233009064e+16,1766438099230593.0,2252101886179379.0,5220008002153.647,12401503993723.162,247251956470518.1,6594457469245540.0
16.221815912762718,1.2750787121016608e+16,2.390613061926804e+16,1781799309102911.2,2271686501250718.0,5404558836463.101,12839979200965.398,255994036367244.1,6827619113493117.0
16.64625223101797,1.2860003455416382e+16,2.429900620058818e+16,1797061236718039.0,2291144537446828.5,5593988557116.53,13290047853967.41,264967264801013.75,7066945669794831.0
17.079177275638333,1.2968505683596598e+16,2.4697486221582756e+16,1812223374889813.5,2310475348135918.5,5788398347207.371,13751950479015.941,274176437552801.4,7312565028581412.0
17.5207608211511,1.3076290004290492e+16,2.510170101825161e+16,1827285192427913.0,2329678256082359.0,5987891151856.022,14225931795224.58,283626434010013.5,7564607308493767.0
17.97117603757412,1.3183352467139116e+16,2.5511783083484212e+16,1842246137307835.0,2348752557488172.5,6192571705254.615,14712240779071.88,293322218453622.7,7823204890611118.0
18.430599558325603,1.3289688994477046e+16,2.59278671323735e+16,1857105639715197.2,2367697525874391.5,6402546558467.996,15211130730747.785,303268841381369.94,8088492453636289.0
18.899211549492115,1.339529540226454e+16,2.6350090167430868e+16,1871863114970863.2,2386512415810335.0,6617924108013.47,15722859342361.646,313471440868090.6,8360607010066669.0
19.37719578048196,1.350016742020701e+16,2.6778591543784964e+16,1886517966342400.5,2405196466498126.0,6838814625241.904,16247688768067.57,323935243964294.9,8639687943379862.0
19.864739696091597,1.36043007110978e+16,2.7213513034444164e+16,1901069587747071.0,2423748905218787.0,7065330286543.993,16785885696161.79,334665568134065.75,8925877046263739.0
20.36203449001343,1.3707690889416662e+16,2.765499889569434e+16,1915517366350754.0,2442168950645766.0,7297585204404.498,17337721423209.328,345667822733446.1,9219318559920096.0
20.869275179813698,1.381033353921277e+16,2.8103195932703236e+16,1929860685066974.8,2460455816030981.5,7535695459328.606,17903471930255.707,356947510530408.44,9520159214472530.0
21.38666068340997,1.3912224231298156e+16,2.855825356539551e+16,1944098924959483.8,2478608712268015.5,7779779132663.999,18483417961182.043,368510229267572.9,9828548270508404.0
21.91439389707817,1.4013358539774412e+16,2.9020323894660376e+16,1958231467551708.8,2496626850836496.5,8029956340342.783,19077845103259.746,380361673268809.94,1.0144637561785358e+16
22.452681775019734,1.4113732057912928e+16,2.948956176895152e+16,1972257697045886.8,2514509446631372.0,8286349267567.106,19687043869963.83,392507635090878.4,1.0468581539132964e+16
23.00173541052013,1.4213340413407522e+16,2.9966124851334176e+16,1986177002454446.5,2532255720680297.5,8549082204462.677,20311309786101.62,404954007221264.44,1.0800537315580056e+16
23.561770118730532,1.431217928301512e+16,3.045017368703256e+16,1999988779645911.2,2549864902752024.5,8818281582724.303,20950943475315.32,417706783823356.8,1.1140664712738152e+16
24.133005521105144,1.4410244406599502e+16,3.0941871771530444e+16,2013692433307372.5,2567336233858448.5,9094076013277.2,21606250750015.797,430772062530133.2,1.1489126308471712e+16
24.715665631527248,1.4507531600591256e+16,3.144138561927096e+16,2027287378825405.0,2584668968652653.5,9376596324978.504,22277542703805.84,444156046287481.9,1.184608748588533e+16
25.309978944157795,1.4604036770875468e+16,3.1948884833005164e+16,2040773044086964.0,2601862377724955.0,9665975604382.23,22965135806449.33,457865045248332.2,1.2211716483658584e+16
25.91617852304095,1.4699755925117844e+16,3.2464542173833676e+16,2054148871201888.8,2618915749798975.5,9962349236592.016,23669352001444.074,471905478718706.56,1.2586184447758164e+16
26.53450209350177,1.4794685184539446e+16,3.298853363198485e+16,2067414318148263.0,2635828393829392.0,10265854947224.584,24390518806255.06,486283877156841.9,1.2969665484557492e+16
27.165192135371807,1.488882079514801e+16,3.3521038498373484e+16,2080568860341917.0,2652599641002954.5,10576632845507.45,25128969415263.31,501006884226495.0,1.336233671539331e+16
27.808495978079243,1.498215913843512e+16,3.4062239436978904e+16,2093611992131208.8,2669228846644247.5,10894825468534.195,25885042805487.582,516081258905541.3,1.376437833258876e+16
28.464665897640828,1.5074696741545486e+16,3.461232255808543e+16,2106543228218150.2,2685715392027515.0,11220577826699.656,26659083845132.26,531513877650972.25,1.4175973656971476e+16
29.133959215593645,1.5166430286926802e+16,3.517147749242215e+16,2119362105006826.5,2702058686095847.0,11554037450337.791,27451443405017.176,547311736621368.06,1.4597309196915894e+16
29.816638399905518,1.5257356621466144e+16,3.5739897466241652e+16,2132068181880127.5,2718258167088915.0,11895354437584.521,28262478472942.31,563481953957930.2,1.5028574708938042e+16
30.51297116790363,1.5347472765119432e+16,3.631777937737479e+16,2144661042405666.0,2734313304080446.0,12244681503486.838,29092552271040.85,580031772125118.1,1.546996325986967e+16
31.223230591261704,1.5436775919040906e+16,3.690532387229828e+16,2157140295471744.2,2750223598426501.0,12602174030380.676,29942034376171.867,596968560311940.1,1.5921671290640638e+16
31.947695203086937,1.5525263473217864e+16,3.750273542425131e+16,2169505576354281.0,2765988585125793.0,12967990119557.803,30811300843405.12,614299816894915.2,1.638389868169553e+16
32.686649107148675,1.5612933013618016e+16,3.8110222412437816e+16,2181756547715546.0,2781607834092952.0,13342290644242.738,31700734332647.516,632033171963737.5,1.6856848820070724e+16
33.44038208929165,1.5699782328854564e+16,3.8727997202348136e+16,2193892900535558.8,2797080951346019.5,13725239303900.236,32610724238461.363,650176389910573.8,1.7340728668159128e+16
34.20918973107749,1.5785809416375788e+16,3.935627622723594e+16,2205914354977044.2,2812407580109253.0,14117002679893.51,33541666823122.336,668737372084057.9,1.783574883418673e+16
34.993373525699035,1.5871012488186128e+16,3.9995280070784424e+16,2217820661184851.2,2827587401832256.5,14517750292511.791,34493965352965.934,687724159508838.0,1.834212364442685e+16
35.793240996213015,1.595538997610383e+16,4.064523355099651e+16,2229611600020706.5,2842620137126852.0,14927654659387.596,35468030238068.125,707144935671692.1,1.886007121717602e+16
36.60910581613728,1.6038940536563782e+16,4.1306365805342216e+16,2241286983734322.2,2857505546622611.5,15346891355321.371,36464279175306.98,727008029375059.4,1.9389813538515864e+16
37.44128793246003,1.612166305497089e+16,4.197891037719655e+16,2252846656571771.0,2872243431742545.0,15775639073532.744,37483137294848.98,747321917658950.1,1.9931576539884012e+16
38.29011369110923,1.6203556649612566e+16,4.266310530360236e+16,2264290495322192.5,2886833635400109.0,16214079688355.244,38525037310105.81,768095228792054.6,2.048559017747704e+16
39.15591596493141,1.6284620675136978e+16,4.335919320439151e+16,2275618409803877.0,2901276042618913.5,16662398319392.854,39590419671202.3,789336745332948.2,2.105208851350824e+16
40.03903428423004,1.6364854725605436e+16,4.406742137269555e+16,2286830343290787.5,2915570581076536.5,17120783397155.018,40679732721999.34,811055407262219.0,2.163130979934137e+16
40.93981496991464,1.6444258637126948e+16,4.478804186688109e+16,2297926272880676.0,2929717221573896.5,17589426730186.402,41793432860712.88,833260315186338.6,2.222349656052231e+16
41.85861126931294,1.65228324900832e+16,4.552131160394225e+16,2308906209806102.0,2943715978431612.5,18068523573708.527,42931984704167.64,855960733614099.2,2.2828895683729348e+16
42.7957834946992,1.660057661095315e+16,4.626749245438159e+16,2319770199689288.0,2957566909815173.5,18558272699788.254,44095861255727.33,879166094306381.0,2.3447758505662068e+16
