t(s),Total solute volume 1,Total retention volume 1,Total 1 volume 1,Total 2 volume 1,Total 3 volume 1,Total 4 volume 1,Total 5 volume 1,Total 6 volume 1
0.1,803801399340899.0,888695292650996.4,42833262785020.44,42060630525076.21,0.0,0.0,0.0,0.0
0.202,1177946077599751.2,1366244934868584.0,62770821227962.875,61638552698742.375,193411082652.48892,307553564320.4378,3357468848046.8296,60031049847107.445
0.30604000000000003,1440242033863880.5,1750121273008526.2,76748144049509.19,75363750713020.86,477575078081.72595,759526590055.8287,8291609808327.79,148238632905651.88
0.41216080000000005,1644968754009213.5,2091657144089714.0,87657696366578.48,86076515072989.03,826204378307.7935,1314171235373.4304,14346711800899.822,256467091226351.78
0.5204040160000001,1813107187357849.0,2409702737484098.5,96617518679675.98,94874718919611.36,1226130218978.2993,1950587560845.185,21294646629881.082,380631948117263.44
0.6308120963200001,1955426748790242.2,2713491156714607.5,104201495506665.55,102321894965648.64,1669249728861.2002,2655925178357.918,28995156411174.637,518220686133654.56
0.7434283382464002,2078354209841305.8,3008310626091085.0,110752098998793.75,108754337803833.72,2150053444683.4949,3421454343312.103,37352964718712.24,667525506940442.8
0.8582969050113283,2186101220068911.5,3297508822881952.5,116493761077466.3,114392431022406.55,2664571819264.7095,4240892132816.301,46299504976341.484,827316441784749.5
0.9754628431115548,2281609276766339.0,3583360040517172.5,121583229325829.47,119390094770496.95,3209837341828.057,5109547963107.77,55783592937030.7,996674461412535.6
1.094972099973786,2367029505733254.5,3867493858082804.0,126135133721919.06,123859891315141.42,3783576274908.2725,6023833947737.1455,65766081814089.555,1174895835275758.5
1.2168715419732616,2443990619694682.5,4151128203355653.0,130236265704860.77,127887046539782.22,4384017246423.499,6980960912198.861,76216544050267.45,1361432749207442.2
1.3412089728127268,2513759673253439.0,4435205478154888.5,133954144543547.1,131537861791634.19,5009765219528.277,7978738270809.727,87111086847282.42,1555854208228648.2
1.4680331522689813,2577344027504787.5,4720476646887935.0,137342450864300.44,134865049398644.78,5659714720074.631,9015436265725.906,98430848437087.1,1757819119697309.2
1.597393815314361,2635558971747635.5,5007555576410427.0,140444630101341.62,137911271120439.9,6332987963128.616,10089687756707.633,110160926085178.77,1967057101635994.5
1.729341691620648,2689074232840896.5,5296955479911977.0,143296370904374.94,140711571850054.36,7028889473980.023,11200416210288.477,122289590083120.06,2183354408549255.2
1.863928525453061,2738446947554862.5,5589114131711007.0,145927362181301.2,143295104962873.84,7746872029233.243,12346781668943.406,134807694007964.05,2406543369305826.0
2.001207095962122,2784145643187764.0,5884411781876108.0,148362570986080.5,145686387153784.34,8486510597363.16,13528139425912.234,147708223674596.78,2636494306850599.0
2.1412312378813647,2826568063570353.0,6183184179083339.0,150623192437382.38,147906231221056.94,9247482072740.61,14744007901991.586,160985946535439.4,2873109255344374.5
2.284055862638992,2866054672244074.0,6485732228731616.0,152727369280875.62,149972452649080.7,10029549294086.443,15994043327712.996,174637135366994.12,3116317006568781.5
2.4297369798917723,2902899050581486.5,6792329283246531.0,154690745988078.22,151900413712298.4,10832548288896.662,17278019550031.855,188659347895323.03,3366069157230414.5
2.578331719489608,2937356021343225.0,7103226732313376.0,156526901647424.16,153703448557729.7,11656377985179.053,18595811758829.023,203051249210390.2,3622336921810607.0
2.7298983538794,2969648076915485.5,7418658350519218.0,158247692514534.0,155393199576270.25,12500991836359.268,19947383253352.01,217812467364940.84,3885108539058273.5
2.884496320956988,2999970524356201.0,7738843722202107.0,159863526183319.9,156979886628261.38,13366390947821.572,21332774595208.875,232943475025878.34,4154387144465408.0
3.0421862473761276,3028495645730152.5,8063990971125858.0,161383583283438.66,158472524741937.72,14252618394927.684,22752094655532.844,248445491803537.56,4430189012516334.5
3.2030299723236504,3055376093376220.5,8394298959641594.0,162815998408537.88,159879101778061.03,15159754495675.855,24205513180365.195,264320403155239.25,4712542095247489.0
3.3670905717701234,3080747684075119.0,8729959078218738.0,164168009012886.88,161206724640737.78,16087912855005.559,25693254583816.24,280570692692870.2,5001484800358299.0
3.5344323832055258,3104731716126835.5,9071156715285956.0,165446078884645.75,162461740523455.53,17037237037847.13,27215592742226.93,297199385419201.5,5297064964551744.0
3.7051210308696363,3127436904243368.5,9418072475124082.0,166656001253136.34,163649838156496.53,18007897758242.6,28772846610558.164,314209999941620.6,5599338987160666.0
3.879223451487029,3148961005679169.0,9770883195410716.0,167802985442677.94,164776132897696.6,19000090494912.766,30365376518833.746,331606508111510.25,5908371096265935.0
4.0568079205167695,3169392194967416.5,1.0129762804129038e+16,168891730130035.62,165845238668463.47,20014033461404.75,31993581034664.547,349393300845277.06,6224232725021780.0
4.237944078927105,3188810232497397.5,1.0494883046698642e+16,169926485615996.62,166861329102097.47,21049965872763.195,33657894299810.973,367575159122483.06,6547001980188095.0
4.422702960505647,3207287462903069.5,1.0866414107519866e+16,170911107027867.62,167828189786608.2,22108146461505.7,35358783765951.82,386157229344331.6,6876763188230557.0
4.61115701971576,3224889672089112.5,1.1244525145053554e+16,171849099988992.28,168749263110442.22,23188852204248.383,37096748268429.15,405145002384307.56,7213606507008020.0
4.803380160110075,3241676826163692.0,1.1629384755667502e+16,172743659995269.66,169627686928718.94,24292377227156.406,38872316387588.93,424544295781137.25,7557627593183950.0
4.9994477633122765,3257703711188094.0,1.2021161378471112e+16,173597706506365.38,170466328039507.94,25419031863869.258,40686045056028.49,444361238619160.94,7908927317198074.0
5.199436718578522,3273020489208046.0,1.2420023651007734e+16,174413912575715.34,171267811279352.7,26569141843970.277,42538518377089.33,464602258717909.1,8267611519005657.0
5.403425452950093,3287673183288355.5,1.282614072382942e+16,175194730697224.97,172034544903751.12,27743047593662.066,44430346625637.94,485274071814921.8,8633790798905859.0
5.611493962009095,3301704102073476.5,1.3239682540513844e+16,175942415429411.47,172768742803196.53,28941103633240.363,46362165406836.3,506383672476730.75,9007580338690952.0
5.823723841249277,3315152212623482.0,1.3660820088519034e+16,176659043263220.7,173472444012618.34,30163678058365.688,48334634952432.19,527938326514748.44,9389099749094140.0
6.040198318074262,3328053468835355.5,1.4089725625335242e+16,177346530123062.44,174147529896729.84,31411152094119.566,50348439537255.945,549945564717170.7,9778472940131550.0
6.261002284435747,3340441101585498.0,1.4526572883639016e+16,178006646828029.53,174795739332356.06,32683919712475.887,52404287001231.234,572413177736751.0,1.017582801144268e+16
6.486222330124463,3352345875765869.0,1.4971537258542716e+16,178641032788935.28,175418682158403.97,33982387305188.59,54502908364385.76,595349211997962.9,1.0581297160162004e+16
6.715946776726952,3363796318592416.0,1.5424795979532278e+16,179251208174495.06,176017851122585.28,35306973405243.555,56645057524174.76,618761966507102.0,1.0995016604206292e+16
6.950265712261491,3374818922906245.5,1.5886528269276988e+16,179838584744912.9,176594632519588.72,36658108450980.34,58831511025958.63,642659990465506.5,1.1417126519163788e+16
7.18927102650672,3385438328641116.0,1.635691549115763e+16,180404475521990.0,177150315686756.7,38036234587800.42,61063067898771.54,667052081600304.9,1.1847770987220906e+16
7.433056447036854,3395677485173602.5,1.683614128708e+16,180950103440496.8,177686101499402.34,39441805503062.01,63340549549604.055,691947285138846.2,1.228709795677498e+16
7.681717575977592,3405557796888417.0,1.732439170690753e+16,181476609105114.06,178203109987829.7,40875286290340.13,65664799710357.17,717354893363289.2,1.2735259211562174e+16
7.935351927497144,3415099253968794.0,1.7821855330655126e+16,181985057760035.16,178702387181218.53,42337153339724.1,68036684432409.664,743284445690332.2,1.3192410348282632e+16
8.194058966047088,3424320550148377.0,1.832872338442078e+16,182476445563776.12,179184911269246.53,43827894251245.02,70457092124417.69,769745729228482.5,1.36587107618353e+16
8.45794014536803,3433239188930085.5,1.884518985089762e+16,182951705249400.97,179651598160217.44,45348007768884.28,72926933629542.67,796748779771589.4,1.4134323637387928e+16
8.72709894827539,3441871579579724.0,1.9371451575190836e+16,183411711239865.88,180103306504134.2,46898003732922.695,75447142338806.72,824303883192783.2,1.4619415948602622e+16
9.0016409272409,3450233124034452.5,1.9907708366568676e+16,183857284279231.28,180540842240366.2,48478403048655.63,78018674337692.62,852421577207698.8,1.5114158461420556e+16
9.281673745785717,3458338295721872.5,2.045416309669038e+16,184289195632799.75,180964962722033.78,50089737669724.94,80642508583488.48,881112653479855.4,1.5618725742880588e+16
9.567307220701432,3466200711161896.5,2.1011021794785256e+16,184708170902664.84,181376380462724.88,51732550594517.984,83319647111188.5,910388160044638.1,1.6133296174507648e+16
9.85865336511546,3473833195117022.0,2.157849374019468e+16,185114893499460.6,181775766545623.4,53407395874251.63,86051115266050.55,940259404031371.4,1.6658051969860924e+16
10.155826432417769,3481247839964600.5,2.215679155263625e+16,185510007806212.47,182163753730291.12,55114838631509.4,88837961961142.6,970737954665619.5,1.7193179195876836e+16
10.458942961066125,3488456059885107.5,2.2746131280505264e+16,185894122065944.9,182540939288184.0,56855455088124.66,91681259958437.67,1001835646536230.5,1.773886779768325e+16
10.768121820287448,3495468640391177.0,2.3346732487489332e+16,186267811020998.9,182907887594368.03,58629832601414.13,94582106172189.48,1033564583113648.2,1.829531162659552e+16
11.083484256693197,3502295783662208.0,2.3958818337735444e+16,186631618328842.03,183265132499745.78,60438569707866.25,97541621993494.14,1065937140507832.1,1.886270847103546e+16
11.405153941827061,3508947150096688.0,2.4582615679784108e+16,186986058776320.78,183613179505372.47,62282276173466.73,100560953635082.72,1098965971455720.1,1.9441260090141436e+16
11.733257020663602,3515431896448657.0,2.5218355129454196e+16,187331620311894.8,183952507758030.0,64161573049920.695,103641272495521.39,1132664009529547.8,2.0031172249860624e+16
12.067922161076874,3521758710874677.5,2.586627115184325e+16,187668765913227.28,184283571884129.3,66077092736095.42,106783775542101.58,1167044473558611.5,2.063265476133445e+16
12.409280604298411,3527935845182197.0,2.652660214258634e+16,187997935305651.3,184606803677183.03,68029479044057.125,109989685711807.25,1202120872258135.2,2.1245921521407244e+16
12.75746621638438,3533971144539455.0,2.719959050849866e+16,188319546545361.66,184922613652432.03,70019387269132.3,113260252329836.05,1237907009059921.8,2.187119055510247e+16
13.112615540712067,3539872074879645.5,2.788548274771323e+16,188633997479736.56,185231392480834.25,72047484263455.98,116596751545226.38,1274416987140278.2,2.250868405992409e+16
13.474867851526309,3545645748207984.5,2.858452952940946e+16,188941667095911.2,185533512313304.44,74114448512514.61,120000486783216.62,1311665214641612.2,2.315862845185485e+16
13.844365208556836,3551298945999029.0,2.929698577321601e+16,189242916767581.47,185829328005033.8,76220970214218.28,123472789214022.73,1349666410084666.8,2.382125441293149e+16
14.221252512727972,3556838140852604.0,3.002311072836281e+16,189538091409013.9,186119178248680.8,78367751360061.17,127015018237780.95,1388435607969113.0,2.449679694028551e+16
14.605677562982532,3562269516560193.5,3.0763168052643176e+16,189827520544351.34,186403386624388.5,80555505817963.33,130628561985449.02,1427988164560720.5,2.518549539655013e+16
14.997791114242183,3567598986718437.0,3.151742589124147e+16,190111519299494.16,186682262573775.28,82784959416390.94,134314837835513.86,1468339763863872.2,2.5887593561533984e+16
15.397746936527026,3572832212013335.0,3.2286156955471164e+16,190390389323147.6,186956102304369.94,85056850029386.31,138075292946382.27,1509506423778725.0,2.6603339685075796e+16
15.805701875257567,3577974616286820.5,3.3069638601462724e+16,190664419642985.3,187225189630325.28,87371927662140.47,141911404804384.25,1551504502442606.2,2.733298654099347e+16
16.221815912762718,3583031401486942.0,3.3868152908832084e+16,190933887462316.53,187489796754722.84,89730954536757.92,145824681787339.4,1594350704755845.8,2.807679148204817e+16
16.64625223101797,3588007561593170.0,3.46819867593551e+16,191199058902146.06,187750184998242.53,92134705177876.36,149816663743681.16,1638062089092358.5,2.883501649584762e+16
17.079177275638333,3592907895600283.0,3.5511431915667796e+16,191460189693063.12,188006605478571.03,94583966497805.75,153888922587151.25,1682656074195889.2,2.9607928261615068e+16
17.5207608211511,3597737019636278.5,3.635678510000606e+16,191717525820983.88,188259299744499.9,97079537880861.23,158043062907105.8,1728150446262913.5,3.0395798207753484e+16
17.97117603757412,3602499378283265.5,3.7218348072993704e+16,191971304130425.53,188508500368315.44,99622231266568.42,162280722594516.16,1774563366213672.5,3.119890257013695e+16
18.430599558325603,3607199255164026.5,3.809642771248353e+16,192221752888646.28,188754431499758.6,102212871231425.39,166603573483731.84,1821913377152930.0,3.2017522451063012e+16
18.899211549492115,3611840782851353.0,3.899133609244991e+16,192469092313695.22,188997309384558.84,104852295068901.86,171013322010137.88,1870219412022394.8,3.285194387879896e+16
19.37719578048196,3616427952152450.5,3.990339056192975e+16,192713535069167.4,189237342850258.34,107541352867361.39,175511709883827.78,1919500801446982.0,3.3702457867659772e+16
19.864739696091597,3620964620816134.5,4.083291382400149e+16,192955286728191.94,189474733761829.97,110280907585593.52,180100514779446.78,1969777281777272.0,3.4569360478552956e+16
20.36203449001343,3625454521706347.5,4.178023401478975e+16,193194546208987.97,189709677449381.72,113071835125637.3,184781551042357.62,2021069003330734.0,3.545295287992629e+16
20.869275179813698,3629901270482183.5,4.27456847824804e+16,193431506184120.12,189942363110024.4,115915024402579.02,189556670411336.22,2073396538834576.2,3.635354140905564e+16
21.38666068340997,3634308372820890.5,4.3729605366322536e+16,193666353465399.3,190172974185834.12,118811377411001.55,194427762757968.28,2126780892073139.2,3.727143763360833e+16
21.91439389707817,3638679231217608.5,4.473234067559631e+16,193899269366230.62,190401688719660.94,121761809287764.88,199396756842971.66,2181243506743045.0,3.8206958413419e+16
22.452681775019734,3643017151392735.5,4.575424136851736e+16,194130430043051.47,190628679690411.25,124767248370782.61,204465621089670.2,2236806275519485.2,3.9160425962411224e+16
23.00173541052013,3647325348335298.5,4.679566393104694e+16,194360006817373.6,190854115329275.25,127828636253468.83,209636364374842.78,2293491549337055.0,4.013216791059953e+16
23.561770118730532,3651606952008521.5,4.785697075557262e+16,194588166479822.3,191078159418287.94,130946927834508.56,214911036837211.62,2351322146888993.0,4.112251736610523e+16
24.133005521105144,3655865012741686.0,4.893853021942209e+16,194815071577459.03,191300971572466.1,134123091362613.89,220291730703818.97,2410321364348535.5,4.21318129771155e+16
24.715665631527248,3660102506330460.0,5.004071676316757e+16,195040880685572.12,191522707506696.8,137358108475910.12,225780581134567.5,2470512985316428.5,4.316039899371795e+16
25.309978944157795,3664322338866273.0,5.116391096867566e+16,195265748665023.88,191743519288441.47,140652974235595.0,231379767085198.44,2531921290998796.0,4.420862532953646e+16
25.91617852304095,3668527351313600.0,5.230849963685431e+16,195489826906169.47,191963555577257.0,144008697153509.47,237091512189015.03,2594571070619642.0,4.527684762309511e+16
26.53450209350177,3672720323852749.5,5.3474875865044456e+16,195713263560272.94,192182961852034.72,147426299213241.22,242918085657623.94,2658487632072401.0,4.636542729883597e+16
27.165192135371807,3676903980004263.0,5.4663439123999496e+16,195936203759293.2,192401880626825.0,150906815884383.28,248861803201031.56,2723696812815182.5,4.74747316277085e+16
27.808495978079243,3681080990550015.0,5.587459533439592e+16,196158789824831.4,192620451656014.4,154451296129564.16,254925027967387.0,2790224991014435.5,4.860513378725361e+16
28.464665897640828,3685253977264865.0,5.710875694280744e+16,196381161466985.22,192838812129590.78,158060802403838.9,261110171502722.62,2858099096941830.0,4.975701292109775e+16
29.133959215593645,3689425516471839.0,5.836634299708167e+16,196603455973798.5,193057096859178.22,161736410646051.5,267419694730999.47,2927346624629495.0,5.093075419777029e+16
29.816638399905518,3693598142432715.5,5.964777922104301e+16,196825808391939.1,193275438455456.06,165479210261739.62,273856108954815.8,2997995643788534.5,5.21267488687578e+16
30.51297116790363,3697774350585260.0,6.095349808845193e+16,197048351699207.1,193493967497553.25,169290304097166.97,280421976877120.66,3070074811996362.5,5.334539432569915e+16
31.223230591261704,3701956600637340.5,6.2283938896140376e+16,197271216969415.66,193712812694955.94,173170808404044.5,287119913644284.8,3143613387157913.5,5.458709415663245e+16
31.947695203086937,3706147319527722.0,6.363954783624191e+16,197494533530165.6,193932101042437.44,177121852794504.0,293952587910888.06,3218641240246629.0,5.5852258201189496e+16
32.686649107148675,3710348904262356.5,6.502077806742947e+16,197718429113985.62,194151957968470.47,181144580185861.9,300922722926596.0,3295188868330431.5,5.714130260464166e+16
33.44038208929165,3714563724634607.0,6.642808978507243e+16,197943030003291.28,194372507477571.2,185240146734727.5,308033097645489.1,3373287407888837.5,5.845464987068792e+16
34.20918973107749,3718794125837221.5,6.786195029021722e+16,198168461169571.78,194593872286977.56,189409721759967.72,315286547858226.06,3452968648426818.0,5.979272891287849e+16
34.993373525699035,3723042430973357.5,6.932283405729363e+16,198394846407197.44,194816173958040.88,193654487654061.3,322685967347426.94,3534265046391549.5,6.1155975104561944e+16
35.793240996213015,3727310943473420.0,7.0811222800443544e+16,198622308462210.06,195039533022692.97,197975639782349.25,330234309066645.9,3617209739398024.5,6.25448303272381e+16
36.60910581613728,3731601949424095.0,7.232760553836571e+16,198850969156432.88,195264069105320.66,202374386369681.16,337934586343340.94,3701836560769925.0,6.39597430171969e+16
37.44128793246003,3735917719815647.5,7.38724786575647e+16,199080949507225.72,195489901040354.56,206851948373949.25,345789874106228.1,3788180054401942.0,6.540116821031936e+16
38.29011369110923,3740260512712842.5,7.5446345973886e+16,199312369843170.03,195717146985874.56,211409559346004.28,353803310137400.94,3876275489949978.0,6.6869567584910936e+16
39.15591596493141,3744632575355047.0,7.704971879222117e+16,199545349915977.4,195945924533496.4,216048465275411.22,361978096349646.75,3966158878355833.0,6.836540950243576e+16
40.03903428423004,3749036146190092.0,7.868311596425011e+16,199780009008876.5,196176350814800.44,220769924421531.56,370317500089314.1,4057866987713003.5,6.988916904601245e+16
40.93981496991464,3753473456846773.5,8.0347063944098e+16,200016466041716.66,196408542604544.9,225575207129370.06,378824855465175.94,4151437359480186.0,7.144132805653028e+16
41.85861126931294,3757946734050171.5,8.204209684176806e+16,200254839673040.22,196642616420893.1,230465595629665.03,387503564703655.06,4246908325049507.0,7.302237516624094e+16
42.7957834946992,3762458201483975.5,8.37687564742062e+16,200495248399314.2,196878688622858.34,235442383822641.12,396357099530834.25,4344319022676174.0,7.463280582967038e+16
43.751699164593184,3767010081603517.5,8.552759241386128e+16,200737810651553.56,197116875505180.28,240506877044877.78,405389002581643.25,4443709414776653.5,7.627312235169781e+16
