t(s),Total solute volume 1,Total retention volume 1,Total 1 volume 1,Total 2 volume 1,Total 3 volume 1,Total 4 volume 1,Total 5 volume 1,Total 6 volume 1
0.1,821307387244814.4,914309965951331.9,46537842289353.97,46464736417161.86,0.0,0.0,0.0,0.0
0.202,1237387526588715.5,1377886666687524.8,70114242874743.125,70004101216013.58,1056158975.7590349,1722505948.151494,19539349203.7249,358477993925.54645
0.30604000000000003,1554083570645438.2,1731029757602905.0,88059230103537.92,87920898890866.61,2679400417.0749617,4369878591.088492,49570024610.62286,909438659444.9567
0.41216080000000005,1821822810888284.2,2029836729446255.0,103230171881501.5,103068008820023.92,4758655836.920462,7760976233.697231,88037214084.00835,1615181010292.6204
0.5204040160000001,2059473393500263.2,2295294498237517.0,116696196319186.58,116512879640672.4,7244537814.925072,11815253653.03505,134027245034.78157,2458941740890.484
0.6308120963200001,2276434540857493.5,2537857045163515.0,128989892720592.27,128787264020290.98,10110467158.122572,16489363866.90146,187048407729.31305,3431699326381.9233
0.7434283382464002,2478168679289397.0,2763599836682182.0,140420779226549.67,140200193881895.08,13341161707.565489,21758384403.19115,246817992811.89307,4528266745413.807
0.8582969050113283,2668174745468236.0,2976414877338071.0,151187116519776.8,150949618463071.34,16927906626.487555,27608103569.03853,313174789726.16406,5745686087064.574
0.9754628431115548,2848850068999944.0,3178969349194020.5,161424744785109.06,161171164559021.2,20866223661.26033,34031219231.454514,386035967198.4868,7082437439854.712
1.094972099973786,3021920537691819.5,3373184022304967.5,171231458217448.28,170962472740954.6,25154580019.751133,41025233120.97951,465373187072.77325,8538000654526.368
1.2168715419732616,3188676749231191.0,3560495867714844.0,180680386113628.22,180396557427787.16,29793612217.36962,48591185001.398,551198245251.7086,10112591899763.36
1.3412089728127268,3350113292691276.0,3742012932162357.0,189827884997665.7,189529686613753.47,34785630579.920975,56732844565.47413,643553904897.697,11806995479614.924
1.4680331522689813,3507015634545762.0,3918610943443646.0,198718461853780.1,198406297367587.97,40134288128.882416,65456171423.67939,742507770772.0397,13622451446194.334
1.597393815314361,3660016820817416.5,4090996350701959.5,207387987047275.34,207062203706266.9,45844351338.90438,74768941237.4562,848148048250.0964,15560577790179.44
1.729341691620648,3809635880365609.5,4259749017568383.0,215865870374784.28,215526769226923.9,51921536973.1575,84680479619.66534,960580524803.38,17623315059658.17
1.863928525453061,3956304656070546.0,4425352048853573.5,224176581402985.97,223824425057288.34,58372393426.10624,95201468622.84659,1079926374888.2184,19812886085818.066
2.001207095962122,4100387053095804.0,4588213186807346.0,232340740135300.16,231975758809060.1,65204213014.18257,106343803700.97395,1206320537385.1682,22131766213067.938
2.1412312378813647,4242193162427946.0,4748680513532145.0,240375917297395.94,239998313609941.47,72424966352.68274,118120486830.93024,1339910529802.8198,24582664213889.375
2.284055862638992,4381989846423290.5,4907054204562814.0,248297234140691.06,247907186949984.0,80043253066.35645,130545545580.00873,1480855424046.4883,27168492826153.26
2.4297369798917723,4520008776884921.0,5063595482927243.0,256117817915044.94,255715485461528.53,88068264306.14919,143633972813.2467,1629325321548.4858,29892375107072.625
2.578331719489608,4656452676910311.0,5218533544872587.0,263849155544471.78,263434678023911.3,96509754776.5181,157401680528.6007,1785500723667.794,32757622234911.953
2.7298983538794,4791500204151003.0,5372070991740297.0,271501370329635.0,271074872035219.88,105378021762.88916,171865465800.3508,1949572171838.7898,35767729565045.12
2.884496320956988,4925309830094111.0,5524388143005933.0,279083441760065.25,278645032879207.28,114683889816.79771,187042985811.97797,2121739964362.401,38926371432561.21
3.0421862473761276,5058022954379790.0,5675646499354872.0,286603381981106.7,286153160115031.06,124438699941.18175,202952740228.8513,2302213956457.43,42237397482321.164
3.2030299723236504,5189766430314566.0,5825991551595313.0,294068378897398.8,293606430355937.2,134654302424.7718,219614059522.79077,2491213427827.8784,45704830237640.82
3.3670905717701234,5320654631780730.0,5975555080117555.0,301484913290420.44,301011314202815.9,145343052675.6467,237047098188.53683,2688967005722.509,49332863686999.19
3.5344323832055258,5450791159072944.0,6124457053294040.0,308858855476514.1,308373672750401.3,156517809551.99442,255272832033.51157,2895712634200.554,53125862718398.23
3.7051210308696363,5580270257623310.0,6272807207015499.0,316195545696288.7,315698837850381.2,168191935798.50085,274313058902.27945,3111697582359.7334,57088363268466.64
3.879223451487029,5709178006338004.0,6420706368398102.0,323499861449482.4,322991679340483.5,180379300280.13873,294190402333.0423,3337178485824.653,61225073081690.1
4.0568079205167695,5837593319501205.0,6568247572506727.0,330776274265963.25,330256661726305.2,193094281768.79282,314928317747.347,3572421416971.268,65540872996760.21
4.237944078927105,5965588796636638.0,6715517010308594.0,338028897861549.8,337497892261476.1,206351774087.2985,336551100854.3201,3817701980272.7573,70040818693716.15
4.422702960505647,6093231447473514.0,6862594838021181.0,345261529216838.5,344719161961961.44,220167192453.76886,359083898013.2144,4073305429860.1934,74730142848546.61
4.61115701971576,6220583313623282.0,7009555871861875.0,352477683803355.6,351923980776873.7,234556480899.21384,382552718347.1777,4339526806948.9453,79614257652151.17
4.803380160110075,6347702004296630.0,7156470187453745.0,359680625938947.6,359115607896182.1,249536120655.33572,406984447440.1233,4616671095223.889,84698757658667.62
4.9994477633122765,6474641160060431.0,7303403639442688.0,366873395065712.25,366297077987360.5,265123139428.5053,432406862479.7399,4905053392629.582,89989422934650.81
5.199436718578522,6601450856021039.0,7450418313976096.0,374058828595609.0,373471224005112.56,281335121491.2838,458848648734.7677,5204999098296.605,95492222485821.27
5.403425452950093,6728177953752459.0,7597572924397381.0,381239581851818.9,380640697101401.8,298190218535.3638,486339417275.0199,5516844113565.814,101213317942322.69
5.611493962009095,6854866409642193.0,7744923158680875.0,388418145540577.44,387807984069846.6,315707161239.9522,514909723859.2459,5840935056260.96,107159067486901.73
5.823723841249277,6981557546007283.0,7892521985665838.0,395596861113462.94,394975422683865.94,333905271518.0314,544591088929.6,6177629487514.861,113336030013250.14
6.040198318074262,7108290290268035.0,8040419925964222.0,402777934319717.4,402145215227715.8,352804475409.81635,575416018662.7238,6527296150582.523,119750969504108.14
6.261002284435747,7235101386601826.0,8188665292457165.0,409963447199222.94,409319440470627.75,372425316598.4853,607418027036.8876,6890315221180.531,126410859620671.47
6.486222330124463,7362025583794853.0,8337304404510840.0,417155368726762.06,416500064294345.75,392788970528.0904,640631658882.4153,7267078568981.749,133322888496481.83
6.715946776726952,7489095802429263.0,8486381779399532.0,424355564285363.3,423688949151591.94,413917259107.5207,675092513889.2253,7657990029968.0,140494463730343.6
6.950265712261491,7616343284066452.0,8635940303892838.0,431565804119496.2,430887862505978.7,435832665987.90045,710837271550.8932,8063465689407.187,147933217573971.97
7.18927102650672,7743797724691333.0,8786021388525025.0,438787770896436.7,438098484381503.25,458558352403.56934,747903717029.2983,8483934175274.564,155647012311047.06
7.433056447036854,7871487394352579.0,8936665106697783.0,446023066485457.8,445322414131080.7,482118173569.34766,786330767927.9979,8919836961983.045,163643945825199.22
7.681717575977592,7999439244658731.0,9087910320462746.0,453273218048898.94,452561176518051.3,506536695628.83905,826158501965.8053,9371628684326.568,171932357355143.88
7.935351927497144,8127679005558674.0,9239794794572224.0,460539683526047.25,459816227191441.25,531839213150.3379,867428185545.1207,9839777461574.404,180520833435813.47
8.194058966047088,8256231272639863.0,9392355300171304.0,467823856579722.8,467088957624785.06,558051767168.4491,910182303211.953,10324765231681.521,189418214024851.7
8.45794014536803,8385119586013067.0,9545627709319864.0,475127071066142.75,474380699578961.5,585201163770.9102,954464588006.9038,10827088095607.303,198633598814292.12
8.72709894827539,8514366501711878.0,9699647081379416.0,482450605080636.06,481692729141557.94,613314993231.2059,1000320052708.1282,11347256671754.299,208176353727641.47
9.0016409272409,8643993656416607.0,9854447742165404.0,489795684625104.0,489026270388561.44,642421649688.6223,1047795021969.1478,11885796460558.229,218056117602928.97
9.281673745785717,8774021826209285.0,1.0010063356653508e+16,497163486937260.9,496382498708381.6,672550351378.272,1096937165355.5631,12443248219277.959,228282809062578.84
9.567307220701432,8904470979979842.0,1.0166526995930852e+16,504555143516793.06,503762543823244.1,703731161414.318,1147795531286.2446,13020168347045.715,238866633571227.06
9.85865336511546,9035360328027628.0,1.0323871198999798e+16,511971742879275.7,511167492538792.4,735995009130.4045,1200420581885.4358,13617129280253.023,249818090682834.66
10.155826432417769,9166708366338016.0,1.0482128029969746e+16,519414333065022.3,518598391248982.9,769373711981.7815,1254864228753.3547,14234719898357.266,261147981478641.06
10.458942961066125,9298532916957236.0,1.0641329131109916e+16,526883923926851.9,526056248220275.7,803899998014.1855,1311179869663.5667,14873545940203.07,272867416197673.12
10.768121820287448,9430851164840450.0,1.080150577218246e+16,534381489218006.4,533542035676251.06,839607528904.9889,1369422426196.2346,15534230430962.12,284987822061694.3
11.083484256693197,9563679691504678.0,1.096268889642752e+16,541907968499043.5,541056691701528.94,876530923582.419,1429648382316.9421,16217414119801.158,297520951296584.2
11.405153941827061,9697034505782710.0,1.1124909163531816e+16,549464268880445.94,548601121981619.4,914705782429.1764,1491915823911.3716,16923755928395.018,310478889352280.06
11.733257020663602,9830931071940628.0,1.1288196989875376e+16,557051266615834.8,556176201393654.06,954168712076.8228,1556284479286.5237,17653933410406.19,323874063323486.6
12.067922161076874,9965384335393424.0,1.1452582586320766e+16,564669808559119.9,563782775461227.9,994957350797.809,1622815760649.677,18408643222057.98,337719250573461.6
12.409280604298411,1.0100408746229574e+16,1.1618095993780526e+16,572320713497451.0,571421661685270.6,1037110394502.0117,1691572806576.5806,19188601603931.29,352027587563244.2
12.75746621638438,1.0236018280731452e+16,1.1784767116775398e+16,580004773370658.2,579093650761562.1,1080667623344.9677,1762620525480.6348,19994544874119.543,366812578888776.2
13.112615540712067,1.0372226461061962e+16,1.1952625755173446e+16,587722754386730.2,586799507694470.2,1125669928955.0527,1836025640095.108,20827229932877.152,382088106528367.56
13.474867851526309,1.0509046373267634e+16,1.212170163428226e+16,595475398041947.4,594539972815468.8,1172159342287.0073,1911856732980.611,21687434778901.555,397868439303056.4
13.844365208556836,1.0646490683736288e+16,1.2292024433448828e+16,603263422053414.4,602315762714205.8,1220179062109.245,1990184293070.1365,22575959037387.945,414168242552382.8
14.221252512727972,1.0784571654232014e+16,1.2463623813307686e+16,611087521210991.5,610127571089114.5,1269773484132.5173,2071080763264.1777,23493624499998.492,431002588028166.2
14.605677562982532,1.0923301155619416e+16,1.2636529441803792e+16,618948368154950.9,617976069523819.2,1320988230787.417,2154620589088.3528,24441275676888.047,448386964008843.25
14.997791114242183,1.1062690680377676e+16,1.2810771019105834e+16,626846614085070.0,625861908195139.5,1373870181658.3147,2240880268426.0903,25419780360927.934,466337285636941.3
15.397746936527026,1.1202751353996816e+16,1.2986378301514452e+16,634782889406370.0,633785716517802.6,1428467504581.2185,2329938402338.8013,26430030204269.887,484869905482270.75
15.805701875257567,1.1343493945338382e+16,1.3163381124460286e+16,642757804316185.9,641748103730595.0,1484829687413.0234,2421875746985.9844,27472941307390.094,504001624333355.25
16.221815912762718,1.148492887603666e+16,1.3341809424679352e+16,650771949336879.1,649749659428232.6,1543007570479.5073,2516775266657.3833,28549454820753.06,523749702219648.7
16.64625223101797,1.1627066229009416e+16,1.3521693261644182e+16,658825895798065.4,657790954042837.2,1603053379709.3757,2614722187929.453,29660537559232.168,544131869666985.25
17.079177275638333,1.1769915756139548e+16,1.370306283832352e+16,666920196271899.2,665872539278538.6,1665020760461.4092,2715804054957.8013,30807182629421.23,565166339188711.5
17.5207608211511,1.1913486885186272e+16,1.388594852133617e+16,675055384964667.8,673994948502448.1,1728964812051.6443,2820110785917.274,31990410069968.344,586871817014866.1
17.97117603757412,1.2057788725976178e+16,1.407038086055902e+16,683231978067609.8,682158697094921.1,1794942122987.3044,2927734730600.732,33211267505058.73,609267515061677.6
18.430599558325603,1.2202830075922254e+16,1.4256390608244518e+16,691450474069623.8,690364282761792.6,1863010806913.881,3038770729187.414,34470830811169.246,632373163143594.0
18.899211549492115,1.2348619424912824e+16,1.4444008737696658e+16,699711354034309.0,698612185810960.6,1933230539281.3933,3153316172190.8945,35770204797208.93,656209021429897.6
19.37719578048196,1.2495164959609692e+16,1.463326646155115e+16,708015081843498.9,706902869395556.8,2005662594735.5833,3271471061596.4453,37110523898156.57,680795893147900.9
19.864739696091597,1.2642474567189868e+16,1.4824195249699972e+16,716362104409278.4,715236779725613.9,2080369885239.2317,3393338073196.3804,38492952882293.695,706155137534450.2
20.36203449001343,1.2790555838561428e+16,1.501682684689623e+16,724752851856217.6,723614346250026.8,2157416998928.2302,3519022620131.4995,39918687572124.39,732308683037387.8
20.869275179813698,1.2939416071081796e+16,1.5211193290072244e+16,733187737675383.0,732035981810307.6,2236870239706.4443,3648632917645.443,41388955579058.88,759279040768335.9
21.38666068340997,1.308906227080109e+16,1.540732692539656e+16,741667158851458.1,740502082767530.2,2318797667582.635,3782280049057.549,42905017051927.43,787089318207927.2
21.91439389707817,1.323950115425121e+16,1.5605260425095238e+16,750191495964131.0,749013029103519.5,2403269139751.7,3920078032958.5615,44468165439369.81,815763233164284.4
22.452681775019734,1.3390739149797314e+16,1.5805026804054692e+16,758761113264640.1,757569184497323.9,2490356352421.61,4062143891631.4346,46079728266130.42,845325127985247.2
23.00173541052013,1.3542782398563538e+16,1.60066594362211e+16,767376358728273.5,766170896377587.9,2580132883386.03,4208597720698.0596,47741067923264.09,875799984024336.0
23.561770118730532,1.3695636754943276e+16,1.6210192070805566e+16,776037564083239.9,774818495951414.0,2672674235341.323,4359562759989.74,49453582472233.98,907213436360076.9
24.133005521105144,1.3849307786697536e+16,1.6415658848299796e+16,784745044816270.8,783512298209937.5,2768057879944.871,4515165465637.279,51218706462848.75,939591788767637.2
24.715665631527248,1.4003800774643564e+16,1.662309431630135e+16,793499100154971.5,792252601910695.1,2866363302609.8174,4675535583372.904,53037911764955.87,972962028941170.9
25.309978944157795,1.41591207119297e+16,1.683253344514234e+16,802300013026717.1,801039689536610.0,2967672048029.1455,4840806223033.047,54912708413763.5,1007351843964484.2
25.91617852304095,1.4315272302888724e+16,1.7044011643309636e+16,811148049993695.5,809873827231122.8,3072067766419.5337,5011113934246.779,56844645468622.26,1042789636026795.5
26.53450209350177,1.4472259961457886e+16,1.7257564772638306e+16,820043461163377.8,818755264708800.4,3179636260472.624,5186598783290.338,58835311885041.84,1079304538379444.6
27.165192135371807,1.4630087809148378e+16,1.7473229163254322e+16,828986480073456.1,827684235140463.1,3290465532998.015,5367404431082.801,60886337399661.61,1116926431528278.0
27.808495978079243,1.4788759672542626e+16,1.7691041628234908e+16,837977323550040.1,836660955011594.4,3404645835239.102,5553678212292.344,62999393427829.76,1155685959655290.2
28.464665897640828,1.4948279080293342e+16,1.791103947794991e+16,847016191537605.8,845685623952566.2,3522269715838.425,5745571215515.971,65176193973368.555,1195614547261697.0
29.133959215593645,1.5108649259592728e+16,1.8133260534038708e+16,856103266898941.8,854758424538891.2,3643432070425.3184,5943238364488.6875,67418496550026.82,1236744416023186.0
29.816638399905518,1.5269873132076696e+16,1.8357743142971756e+16,865238715183055.6,863879522059500.1,3768230191793.334,6146838500269.647,69728103114028.28,1279108601846418.2
30.51297116790363,1.5431953309123478e+16,1.8584526189139096e+16,874422684358784.1,873049064250758.2,3896763820630.071,6356534464345.296,72106861007029.75,1322740972114081.2
31.223230591261704,1.5594892086502362e+16,1.881364910739954e+16,883655304511578.4,882267180993748.5,4029135196755.9746,6572493182578.927,74556663908695.22,1367676243103843.0
31.947695203086937,1.5758691438324968e+16,1.9045151895020956e+16,892936687500754.1,891533983972042.4,4165449110822.756,6794885749927.108,77079452797980.97,1413949997564472.8
32.686649107148675,1.5923353010246808e+16,1.9279075122932696e+16,902266926574287.4,900849566287097.5,4305812956415.3203,7023887515832.05,79677216922098.12,1461598702430171.0
33.44038208929165,1.6088878111865834e+16,1.9515459946208536e+16,911646095938068.0,910214002028206.5,4450336782494.136,7259678170187.803,82351994772003.36,1510659726651740.2
34.20918973107749,1.6255267708261314e+16,1.975434811369134e+16,921074250276490.2,919627345793828.0,4599133346107.558,7502441829766.149,85105875063113.73,1561171359120726.2
34.993373525699035,1.642252241061615e+16,1.9995781976668416e+16,930551424221068.8,929089632161027.8,4752318165295.971,7752367124975.328,87940997719813.25,1613172826660078.5
35.793240996213015,1.6590642465864582e+16,2.0239804496501452e+16,940077631763850.1,938600875099841.6,4910009572101.333,8009647286811.749,90859554862165.47,1666704312052090.2
36.60910581613728,1.6759627745309372e+16,2.0486459251115236e+16,949652865612429.1,948161067329268.5,5072328765587.849,8274480233851.444,93863791793090.27,1721806972071624.0
37.44128793246003,1.6929477732152656e+16,2.073579044024569e+16,959277096483401.9,957770179611862.1,5239399864770.632,8547068659114.079,96956007984112.98,1778522955489735.8
38.29011369110923,1.7100191507889224e+16,2.0987842889350064e+16,968950272331371.2,967428159983931.0,5411349961340.923,8827620116618.607,100138558057635.05,1836895421009955.0
39.15591596493141,1.7271767737514792e+16,2.124266205208391e+16,978672317510800.2,977134932918719.2,5588309172068.003,9116347107435.818,103413852763512.02,1896968555096566.2
40.03903428423004,1.7444204653507176e+16,2.1500294011250324e+16,988443131868335.4,986890398420145.4,5770410690749.14,9413467165029.215,106784359947580.7,1958787589651349.0
40.93981496991464,1.761750003854563e+16,2.1760785478135796e+16,998262589763632.0,996694431045169.6,5957790839571.162,9719202939662.064,110252605509613.11,2022398819492515.8
41.85861126931294,1.7791651206941936e+16,2.2024183790148576e+16,1008130539017175.6,1006546878853273.0,6150589119738.791,10033782281635.938,113821174348034.81,2087849619586796.5
42.7957834946992,1.7966654984765706e+16,2.2290536906687972e+16,1018046799784126.2,1016447562282070.0,6348948261217.688,10357438323113.338,117492711288603.19,2155188461983149.5
43.751699164593184,1.8142507688658364e+16,2.255989340317884e+16,1028011163353847.0,1026396272948711.6,6553014271432.969,10690409558265.887,121269921994115.1,2224464932394086.5
44.72673314788505,1.8319205103340984e+16,2.283230246321871e+16,1038023390875437.5,1036392772377435.8,6762936482757.634,11032939921478.582,125155573852088.08,2295729746368558.5
45.721267810842754,1.8496742457835236e+16,2.3107813868797348e+16,1048083212010323.2,1046436790654269.8,6978867598619.429,11385278863332.441,129152496837260.39,2369034764998303.5
