t(s),Total solute volume 1,Total retention volume 1,Total 1 volume 1,Total 2 volume 1,Total 3 volume 1,Total 4 volume 1,Total 5 volume 1,Total 6 volume 1
0.1,1386011386779396.2,8520484941412214.0,2082602288778356.8,5051871265854462.0,0.0,0.0,0.0,0.00819856729667888
0.202,2026782383373975.8,1.2462779903544332e+16,3045418160566202.0,7387452830567128.0,1463147260.1257012,9267193062.613054,411019257623.2491,2704779439082.6543
0.30604000000000003,2528448304945032.5,1.5552272814800796e+16,3799215417805699.5,9215987951644166.0,3687207076.5826616,23369491460.53143,1077419942891.4103,7516663764459.623
0.41216080000000005,2955500677629711.5,1.8185056241171244e+16,4440899174289880.5,1.0772560911514346e+16,6529872814.822107,41397343464.84296,1943245325236.2397,14104305195784.309
0.5204040160000001,3335555017657853.0,2.053070218427474e+16,5011964228805090.0,1.2157829215487724e+16,9925016712.05526,62930505770.132195,2984279289367.879,22296587512217.04
0.6308120963200001,3682954728787834.0,2.2677278587138484e+16,5533962822292610.0,1.342407375173685e+16,13836727708.846745,87740898457.49985,4187968275525.6025,31997738419491.85
0.7434283382464002,4006177790450877.0,2.4676840113209932e+16,6019633869790796.0,1.460219620006956e+16,18244247246.701176,115696702752.09811,5547191519666.671,43151120429024.76
0.8582969050113283,4310702810232652.5,2.6563028865976596e+16,6477209463196726.0,1.5712165702020122e+16,23135660279.095135,146722255161.8894,7057862419836.03,55723170191815.93
0.9754628431115548,4600303788194685.0,2.8359024845815964e+16,6912360370494013.0,1.6767738214005402e+16,28504767831.0243,180778179382.05325,8717806341558.7705,69695383833094.4
1.094972099973786,4877707547116063.0,3.0081582444763976e+16,7329183883191750.0,1.7778852802634098e+16,34349348769.70868,217850347482.79483,10526158078490.479,85059854047331.44
1.2168715419732616,5144958400737359.0,3.1743269186378884e+16,7730751762704163.0,1.875296083738552e+16,40670112377.71315,257943229519.77905,12483006380676.129,101816565829262.86
1.3412089728127268,5403634731668385.0,3.3353795169322908e+16,8119435667824384.0,1.9695815402590316e+16,47470028405.26081,301075640449.2581,14589169717283.703,119971651853675.05
1.4680331522689813,5654984773205916.0,3.4920846456965604e+16,8497111178904445.0,2.061196621272619e+16,54753878639.24396,347277893588.8222,16846047610010.545,139536212746803.12
1.597393815314361,5900015556848694.0,3.645063095200792e+16,8865291449348187.0,2.150508381977003e+16,62527945948.71964,396589826882.67664,19255518243072.54,160525490025083.66
1.729341691620648,6139553333712429.0,3.79482491674326e+16,9225217994116630.0,2.237817984486612e+16,70799792598.43756,449059395850.6553,21819865824271.438,182958269724698.03
1.863928525453061,6374285890159709.0,3.941795386890125e+16,9577924272691834.0,2.323376121567856e+16,79578098738.00452,504741648509.2547,24541727847309.89,206856442776607.53
2.001207095962122,6604792964221804.0,4.086333669056803e+16,9924281392430408.0,2.4073941031981624e+16,88872542757.67412,563697966029.4326,27424056115207.56,232244675310177.6
2.1412312378813647,6831568605042498.0,4.228746530970237e+16,1.0265031705597136e+16,2.4900520064151564e+16,98693711573.67313,625995493354.0095,30470087551572.777,259150158154635.0
2.284055862638992,7055037934159381.0,4.369298627222125e+16,1.0600813994665646e+16,2.5715047846767296e+16,109053032821.94907,691706708859.4415,33683322146088.035,287602414741167.44
2.4297369798917723,7275569928173032.0,4.508220340903491e+16,1.0932182679404e+16,2.6518869270465772e+16,119962723428.29753,760909097948.2565,37067506213153.79,317633152957585.56
2.578331719489608,7493487316893718.0,4.645713855756235e+16,1.1259622689711224e+16,2.7313160659929076e+16,131435750651.84698,833684905799.4506,40626619684227.875,349276150687664.75
2.7298983538794,7709074352810571.0,4.78195792266027e+16,1.1583561139928072e+16,2.8098958093002132e+16,143485802792.67242,910120951447.1324,44364866516195.3,382567167591513.56
2.884496320956988,7922582984572291.0,4.917111647309968e+16,1.19043766050351e+16,2.8877179902553892e+16,156127267505.54712,990308490126.0955,48286667545516.61,417543877635267.2
3.0421862473761276,8134237816672232.0,5.051317533570945e+16,1.2222406573015574e+16,2.9648644754145664e+16,169375216188.30054,1074343114164.4972,52396655290644.9,454245818254991.3
3.2030299723236504,8344240134011087.0,5.184703953481015e+16,1.2537953492114816e+16,3.041408631524961e+16,183245393288.91586,1162324685088.1438,56699670328068.766,492714353028173.4
3.3670905717701234,8552771197522945.0,5.317387170378597e+16,1.285128972280832e+16,3.1174165267549964e+16,197754209647.97827,1254357291330.2078,61200758956200.9,532992645447568.25
3.5344323832055258,8759994965463471.0,5.44947300998855e+16,1.3162661626776356e+16,3.1929479225826184e+16,212918739193.63174,1350549227213.0093,65905171926579.984,575125641926477.0
3.7051210308696363,8966060357699186.0,5.581058251435199e+16,1.3472292969197778e+16,3.2680570991110816e+16,228756718455.8429,1451012989818.1687,70818364070424.17,619160062565547.4
3.879223451487029,9171103153058548.0,5.7122317934171736e+16,1.3780387769686786e+16,3.342793546638578e+16,245286548479.77945,1555865291078.6199,75945994685187.62,665144398515881.9
4.0568079205167695,9375247589584992.0,5.843075638374123e+16,1.4087132706813806e+16,3.4172025489379612e+16,262527298804.44507,1665227082973.8616,81293928573689.05,713128915007367.4
4.237944078927105,9578607722369606.0,5.973665728174934e+16,1.4392699158368436e+16,3.4913256781761164e+16,280498713239.3505,1779223594132.7498,86868237649900.31,763165659292870.2
4.422702960505647,9781288582150324.0,6.104072657808695e+16,1.469724494225662e+16,3.5652012172142756e+16,299221217223.9439,1897984376477.716,92675203042224.12,815308472901364.5
4.61115701971576,9983387169069800.0,6.2343622881659896e+16,1.5000915809709118e+16,3.6388645218249656e+16,318715926595.36926,2021643360803.524,98721317638244.28,869613007705702.8
4.803380160110075,1.0184993309190924e+16,6.364596274831799e+16,1.5303846732271412e+16,3.712348332885183e+16,339004657622.50995,2150338920389.2302,105013289025347.81,926136745400455.8
4.9994477633122765,1.0386190396076418e+16,6.494832526565951e+16,1.560616301609224e+16,3.7856830466763416e+16,360109938190.1713,2284213941906.274,111558042789931.53,984939020057363.6
5.199436718578522,1.0587056035582708e+16,6.6251256045983016e+16,1.5907981270782976e+16,3.8588969499065464e+16,382055020038.0871,2423415903017.9126,118362726144598.83,1046081043484215.9
5.403425452950093,1.07876626087292e+16,6.755527071849445e+16,1.6209410255178284e+16,3.932016424872025e+16,404863891976.34174,2568096956172.4116,125434711858162.4,1109625933160439.5
5.611493962009095,1.0988077764883802e+16,6.886085799580969e+16,1.6510551618390684e+16,4.005066129219375e+16,428561294012.5734,2718414018179.8633,132781602467690.5,1175638742561537.2
5.823723841249277,1.1188364855402992e+16,7.016848237690479e+16,1.6811500551392732e+16,4.078069154003952e+16,453172732337.64307,2874528865234.262,140411234755448.95,1244186493716511.0
6.040198318074262,1.138858331616767e+16,7.1478586538263896e+16,1.711234636181099e+16,4.151047163121151e+16,478724495125.78406,3036608233101.777,148331684476584.2,1315338211868910.0
6.261002284435747,1.1588789006078556e+16,7.279159345652845e+16,1.7413172982544872e+16,4.224020516685353e+16,505243669113.0111,3204823922245.3433,156551271325866.47,1389164962134214.0
6.486222330124463,1.1789034507449274e+16,7.41079082990543e+16,1.771405942313387e+16,4.297008380520807e+16,532758156924.0138,3379352907696.5728,165078564133881.5,1465739888064625.2
6.715946776726952,1.1989369393312114e+16,7.542792011312626e+16,1.801508017140779e+16,4.370028823592503e+16,561296695123.1952,3560377453520.6035,173922386284786.8,1545138252047912.2
6.950265712261491,1.2189840465889158e+16,7.675200333990333e+16,1.831630555181064e+16,4.443098904926972e+16,590888872970.0614,3748085231748.219,183091821349207.7,1627437477479907.0
7.18927102650672,1.2390491969849886e+16,7.808051917530549e+16,1.8617802045838904e+16,4.5162347513430664e+16,621565151863.0236,3942669445674.126,192596218927082.47,1712717192661386.2
7.433056447036854,1.2591365783450756e+16,7.941381679682275e+16,1.8919632579245604e+16,4.589451627120788e+16,653356885458.9719,4144328957441.072,202445200696305.12,1801059276379398.2
7.681717575977592,1.2792501590211712e+16,8.075223447253682e+16,1.922185677999931e+16,4.662763996576042e+16,686296340458.718,4353268419847.056,212648666663913.72,1892547905141180.2
7.935351927497144,1.2993937033415746e+16,8.209610056637747e+16,1.952453121043329e+16,4.736185580374507e+16,720416718050.8209,4569698412328.126,223216801617328.78,1987269602035637.2
8.194058966047088,1.3195707855405962e+16,8.344573445173509e+16,1.9827709576551624e+16,4.809729406304327e+16,755752176008.3461,4793835581081.997,234160081773800.7,2085313287203301.2
8.45794014536803,1.3397848023390808e+16,8.480144734392696e+16,2.013144291706259e+16,4.883407855131124e+16,792337851434.8306,5025902783309.064,245489281626791.16,2186770329900803.0
8.72709894827539,1.3600389843244754e+16,8.616354306065216e+16,2.0435779774374252e+16,4.95723270207746e+16,830209884157.2704,5266129235556.788,257215480988497.4,2291734602150336.5
9.0016409272409,1.3803364062600582e+16,8.75323187183954e+16,2.074076634949964e+16,5.031215154399165e+16,869405440765.2198,5514750666161.657,269350072228145.38,2400302533968439.5
9.281673745785717,1.400679996436625e+16,8.890806537174448e+16,2.104644664257403e+16,5.1053658854715224e+16,909962739296.2172,5772009471790.21,281904767706047.94,2512573170171845.5
9.567307220701432,1.421072545165996e+16,9.02910686017288e+16,2.1352862580477356e+16,5.1796950657473976e+16,951921074568.7267,6038154878086.549,294891607403731.94,2628648228761149.5
9.85865336511546,1.4415167125035684e+16,9.1681609058547e+16,2.1660054132872532e+16,5.254212390905383e+16,995320844164.6154,6313443104439.142,308322966750724.44,2748632160885627.0
10.155826432417769,1.4620150352768762e+16,9.3079962963419e+16,2.1968059417815436e+16,5.328927107468322e+16,1040203575063.888,6598137532884.31,322211564648808.0,2872632212394891.5
10.458942961066125,1.4825699334880116e+16,9.448640257374586e+16,2.2276914797957176e+16,5.403848036139651e+16,1086611950935.0431,6892508881167.608,336570471694779.9,3000758486985288.0
10.768121820287448,1.5031837161500524e+16,9.590119661528299e+16,2.258665496824135e+16,5.478983593076754e+16,1134589840084.925,7196835379987.777,351413118602924.1,3133124010950578.0
11.083484256693197,1.5238585866108208e+16,9.732461068461813e+16,2.289731303589847e+16,5.554341809295597e+16,1184182324072.391,7511402954450.649,366753304828541.06,3269844799548368.5
11.405153941827061,1.544596647411379e+16,9.875690762488472e+16,2.320892059344878e+16,5.629930348379625e+16,1235435726990.5002,7836505409762.87,382605207394056.44,3411039924995102.5
11.733257020663602,1.5653999047215154e+16,1.0019834787732181e+17,2.352150778534969e+16,5.705756522646719e+16,1288397645422.2412,8172444621197.354,398983389919285.8,3556831586103926.5
12.067922161076874,1.5862702723899368e+16,1.0164918981101739e+17,2.383510336885322e+16,5.781827307911889e+16,1343116979075.064,8519530728363.811,415902811857588.2,3707345179580912.0
12.409280604298411,1.6072095756429012e+16,1.0310969003292734e+17,2.4149734769581376e+16,5.858149356968506e+16,1399643962099.6968,8878082333819.209,433378837939672.56,3862709372996318.5
12.75746621638438,1.6282195544615588e+16,1.0458010368004987e+17,2.446542813227355e+16,5.934729011898413e+16,1458030195098.8618,9248426706053.84,451427247826924.4,4023056179448581.0
13.112615540712067,1.6493018666651088e+16,1.060606846954438e+17,2.478220836711384e+16,6.0115723153098344e+16,1518328677831.672,9630899986889.6,470064245976153.0,4188521033939681.5
13.474867851526309,1.670458090724263e+16,1.0755168608961568e+17,2.51000991920055e+16,6.088685020592242e+16,1580593842619.4534,10025847403327.172,489306471717704.1,4359242871481485.5
13.844365208556836,1.6916897283269814e+16,1.0905336018865093e+17,2.5419123171123788e+16,6.166072601268272e+16,1644881588458.914,10433623483879.486,509171009548925.9,4535364206953327.0
14.221252512727972,1.7129982067164088e+16,1.1056595887033498e+17,2.573930175004531e+16,6.2437402595153416e+16,1711249315848.429,10854592279428.342,529675399644979.9,4717031216731937.0
14.605677562982532,1.7343848808189646e+16,1.1208973378939275e+17,2.6060655287724304e+16,6.321692933922337e+16,1779755962333.2925,11289127588641.154,550837648589007.75,4904393822115490.0
14.997791114242183,1.7558510351788848e+16,1.1362493659287438e+17,2.6383203085561156e+16,6.3999353065409736e+16,1850462038775.6108,11737613187984.162,572676240323668.1,5097605774564142.0
15.397746936527026,1.7773978857140176e+16,1.1517181912661813e+17,2.6706963413784628e+16,6.478471809285468e+16,1923429666354.513,12200443066367.953,595210147326043.4,5296824742779909.0
15.805701875257567,1.799026581306306e+16,1.1673063363364702e+17,2.7031953535350148e+16,6.5573066297297656e+16,1998722614302.1233,12678021664459.916,618458842007898.9,5502212401649535.0
16.221815912762718,1.820738205239196e+16,1.1830163294527269e+17,2.7358189727538344e+16,6.636443716346797e+16,2076406338380.6265,13170764118697.852,642442308343264.0,5713934523073985.0
16.64625223101797,1.842533776493162e+16,1.1988507066562362e+17,2.7685687301421296e+16,6.715886783230596e+16,2156548020105.5496,13679096510036.848,667181053725268.0,5932161068709253.0
17.079177275638333,1.8644142509095284e+16,1.2148120135025029e+17,2.801446061935025e+16,6.795639314338356e+16,2239216606720.169,14203456117461.205,692696121054093.4,6157066284642841.0
17.5207608211511,1.8863805222319664e+16,1.2309028067940768e+17,2.83445231106046e+16,6.875704567286594e+16,2324482851925.6772,14744291676290.443,719009101057931.9,6388828798031334.0
17.97117603757412,1.90843342303421e+16,1.2471256562657224e+17,2.867588728533206e+16,6.956085576732657e+16,2412419357371.4937,15302063641307.69,746142144848683.2,6627631715724168.0
18.430599558325603,1.930573725541866e+16,1.2634831462270054e+17,2.900856474689694e+16,7.036785157370174e+16,2503100614909.7603,15877244454735.932,774117976714152.8,6873662724899324.0
18.899211549492115,1.9528021423556124e+16,1.2799778771670698e+17,2.9342566202746696e+16,7.1178059065650136e+16,2596603049617.7666,16470318819086.32,802959907148385.2,7127114195736882.0
19.37719578048196,1.9751193270823668e+16,1.2966124673259594e+17,2.967790147389604e+16,7.199150206655972e+16,2693005063591.6465,17081783974899.684,832691846121711.9,7388183286156341.0
19.864739696091597,1.9975258748807236e+16,1.3133895542365774e+17,3.00145795031226e+16,7.280820226942792e+16,2792387080514.36,17712149983400.34,863338316592003.1,7657072048643986.0
20.36203449001343,2.0200223229263016e+16,1.3303117962410574e+17,3.035260836195892e+16,7.362817925382368e+16,2894831591000.4233,18361940014078.82,894924468258531.2,7933987539196628.0
20.869275179813698,2.0426091508023024e+16,1.3473818739851098e+17,3.0691995256561228e+16,7.445145050012282e+16,3000423198719.6465,19031690637216.617,927476091559732.0,8219141928408139.0
21.38666068340997,2.0652867808202556e+16,1.3646024918936206e+17,3.103274653252906e+16,7.527803140120046e+16,3109248667301.3623,19721952121364.016,961019631916064.8,8512752614725172.0
21.91439389707817,2.0880555782755316e+16,1.3819763796306354e+17,3.137486767874405e+16,7.610793527174261e+16,3221396968020.3647,20433288735778.277,995582204219065.2,8815042339898592.0
22.452681775019734,2.1109158516418796e+16,1.3995062935466173e+17,3.1718363330293424e+16,7.694117335533861e+16,3336959328265.2188,21166279057826.02,1031191607567521.4,9126239306657184.0
23.00173541052013,2.133867852709056e+16,1.4171950181157354e+17,3.206323727053814e+16,7.777775482949733e+16,3456029280788.872,21921516285350.957,1067876340251639.6,9446577298629888.0
23.561770118730532,2.1569117766672972e+16,1.4350453673657734e+17,3.2409492432381732e+16,7.861768680872603e+16,3578702713741.186,22699608554003.47,1105665614985881.0,9776295802542938.0
24.133005521105144,2.1800477621421656e+16,1.453060186303086e+17,3.2757130898794456e+16,7.9460974345802e+16,3705077921482.222,23501179259525.55,1144589374391029.2,1.011564013271845e+16
24.715665631527248,2.2032758911831852e+16,1.4712423523349734e+17,3.3106153902641864e+16,8.030762043135659e+16,3835255656174.4517,24326867384979.89,1184678306725900.8,1.0464861557899952e+16
25.309978944157795,2.2265961892093188e+16,1.4895947766916262e+17,3.3456561825866216e+16,8.115762599189002e+16,3969339180151.635,25177327832908.477,1225963861868954.5,1.0824217430431388e+16
25.91617852304095,2.250008624914415e+16,1.5081204058498022e+17,3.3808354198065476e+16,8.201098988632437e+16,4107434319061.1265,26053231762401.035,1268478267549888.2,1.1193971317814932e+16
26.53450209350177,2.2735131101354304e+16,1.5268222229601894e+17,3.4161529694513124e+16,8.286770890120054e+16,4249649515775.9136,26955266931049.76,1312254545831144.0,1.1574393136673212e+16
27.165192135371807,2.2971094996861316e+16,1.545703249280453e+17,3.451608613365958e+16,8.372777774461738e+16,4396095885071.801,27884138041761.754,1357326529839076.2,1.1965759289141112e+16
27.808495978079243,2.320797591158944e+16,1.564766545615741e+17,3.487202047415495e+16,8.459118903901002e+16,4546887269064.449,28840567094396.01,1403728880744348.5,1.2368352801712106e+16
28.464665897640828,2.344577124697446e+16,1.584015213768507e+17,3.522932881143007e+16,8.545793331285624e+16,4702140293400.221,29825293742186.746,1451497104990906.2,1.2782463466563636e+16
29.133959215593645,2.368447782741883e+16,1.6034523979992995e+17,3.5588006373873216e+16,8.632799899140235e+16,4861974424193.967,30839075652909.7,1500667571772763.5,1.3208387985385698e+16
29.816638399905518,2.392409189750124e+16,1.623081286500248e+17,3.5948047518636844e+16,8.720137238649222e+16,5026512025705.985,31882688874743.227,1551277530757508.2,1.364643011573655e+16
30.51297116790363,2.4164609118962236e+16,1.6429051128828016e+17,3.630944572710841e+16,8.807803768557982e+16,5195878418749.72,32956928206770.08,1603365130055364.2,1.4096900819948798e+16
31.223230591261704,2.4406024567488996e+16,1.6629271576813446e+17,3.667219360007929e+16,8.895797694001117e+16,5370201939820.676,34062607574060.527,1656969434432314.8,1.4560118416608862e+16
31.947695203086937,2.464833272931999e+16,1.683150749874166e+17,3.703628285264285e+16,8.984117005264789e+16,5549614000936.331,35200560407272.55,1712130443765669.2,1.5036408734632022e+16
32.686649107148675,2.489152749769095e+16,1.703579268423317e+17,3.74017043088543e+16,9.0727594764914e+16,5734249150175.811,36371640026697.336,1768889111740138.5,1.5526105269955388e+16
33.44038208929165,2.5135602169142716e+16,1.7242161438347936e+17,3.776844789618273e+16,9.161722664333818e+16,5924245132907.275,37576720030674.914,1827287364782361.5,1.602954934486959e+16
34.20918973107749,2.538054943971114e+16,1.7450648597404842e+17,3.813650263978663e+16,9.251003906566712e+16,6119742953689.849,38816694688297.11,1887368121231474.2,1.6547090270010188e+16
34.993373525699035,2.562636140101964e+16,1.766128954503317e+17,3.850585665664186e+16,9.34060032066227e+16,6320886938836.259,40092479336309.43,1949175310743169.2,1.7079085509029264e+16
35.793240996213015,2.587302953629352e+16,1.7874120228469232e+17,3.887649714955351e+16,9.430508802337512e+16,6527824799621.242,41405010780117.65,2012753893924413.0,1.7625900845965994e+16
36.60910581613728,2.612054471631619e+16,1.8089177175112688e+17,3.924841040107966e+16,9.520726024080456e+16,6740707696119.635,42755247698799.8,2078149882195730.5,1.818791055533574e+16
37.44128793246003,2.636889719534726e+16,1.830649750935551e+17,3.96215817673974e+16,9.611248433662174e+16,6959690301657.592,44144171054015.67,2145410357877762.2,1.876549757495531e+16
38.29011369110923,2.661807660702089e+16,1.8526118969697203e+17,3.999599567214063e+16,9.702072252641926e+16,7184930867858.968,45572784502702.02,2214583494498482.5,1.935905368152213e+16
