t(s),Total solute volume 1,Total retention volume 1,Total 1 volume 1,Total 2 volume 1,Total 3 volume 1,Total 4 volume 1,Total 5 volume 1,Total 6 volume 1
0.1,839524706393360.9,941664656952722.2,50673114377222.37,51466836182138.266,0.0,0.0,0.0,0.0
0.202,1264997162899021.5,1418917782025609.8,76354329432238.52,77550310923365.98,40492938.683699936,67802381.9432324,800101600.5819123,15070374061.444517
0.30604000000000003,1589001583809493.5,1782366448157381.5,95911005946035.14,97413314862016.22,102743553.02937911,172036370.83069986,2030116368.4270034,38238643545.35606
0.41216080000000005,1863051410396849.2,2089789752540175.0,112452458654542.3,114213865807969.98,182503345.20221028,305588173.31809247,3606096915.097905,67923492379.89755
0.5204040160000001,2106422174010556.5,2362807621283645.5,127142144930719.8,129133645041631.39,277887231.6594516,465301359.6866858,5490795596.746207,103423316556.03824
0.6308120963200001,2328715910567417.5,2612189913643478.5,140559636837197.3,142761302796438.6,387884215.55418134,649483093.2043209,7664236013.958383,144361839099.9539
0.7434283382464002,2535512996592938.0,2844195709143073.0,153041761934182.94,155438942556002.6,511916404.60791874,857165738.3907479,10114999543.541233,190523978265.02646
0.8582969050113283,2730388134210785.0,3062834493915287.5,164804286700674.56,167385710473350.4,649657854.7662616,1087803528.2710376,12836645840.053682,241788423249.40204
0.9754628431115548,2915790842893693.5,3270853741400967.5,175995062390698.44,178751773681378.53,800945322.1333233,1341123125.1824317,15825949370.696115,298094417373.9676
1.094972099973786,3093484893690088.0,3470231790408007.0,186720548970873.4,189645259690104.1,965728841.8340387,1617040868.7928474,19081922896.77867,359423364335.7217
1.2168715419732616,3264789538552089.0,3662448411651531.5,197060375551167.28,200147044885812.72,1144042034.067922,1915613055.8239417,22605230747.544662,425787776629.5939
1.3412089728127268,3430721780295504.0,3848644379374075.0,207075927698545.94,210319476352726.53,1335983161.346044,2237004221.824887,26397814528.02695,497224225388.07947
1.4680331522689813,3592085119066578.0,4029721010074157.5,216815704110620.44,220211812451299.72,1541702482.987086,2581465967.2343593,30462643255.225285,573788633954.4576
1.597393815314361,3749527466318813.5,4206405119080455.5,226318812262117.1,229863773219003.16,1761393512.5930285,2949322318.6893306,34803540613.72388,655553024076.9528
1.729341691620648,3903580367438171.0,4379293012708524.5,235617335854647.7,239307944902818.66,1995286807.6247015,3340959330.1454887,39425062243.36522,742603204505.2269
1.863928525453061,4054686404526584.5,4548881223199633.0,244737988829248.16,248571459879515.22,2243645465.045422,3756817540.680852,44332406737.31874,835037094554.4078
2.001207095962122,4203218854239036.5,4715588556900273.0,253703301899445.6,257677201774070.8,2506761803.8439403,4197386419.640159,49531350091.832985,932963489403.6932
2.1412312378813647,4349496114381225.0,4879772275083370.0,262532493330437.28,266644689878360.25,2784954896.3197722,4663200232.9686365,55028196926.78256,1036501141288.5276
2.284055862638992,4493792503082633.0,5041740206448035.0,271242120771418.62,275490741197988.2,3078568721.823104,5154834958.49097,60829745468.13601,1145778246840.053
2.4297369798917723,4636346485405303.0,5201759973328212.0,279846577800067.94,284229974756263.44,3387970782.68124,5672905941.686595,66943254361.19364,1260931235494.9026
2.578331719489608,4777367035528431.0,5360066128625859.0,288358477951309.9,292875201665873.8,3713551081.844869,6218066223.837382,73376431211.87921,1382105431736.2007
2.7298983538794,4917038627659788.0,5516865752904891.0,296788955957182.1,301437731068526.2,4055721370.053004,6791005254.858645,80137411893.07956,1509454080880.4795
2.884496320956988,5055525198043526.0,5672342898406581.0,305147906892828.8,309927613031584.25,4414914614.271487,7392448009.8984995,87234751494.30313,1643138324508.3784
3.0421862473761276,5192973326065129.0,5826662157039533.0,313444178185754.44,318353833564860.6,4791584640.451193,8023154391.177864,94677417263.08176,1783327067508.9983
3.2030299723236504,5329514814190568.0,5979971554120073.0,321685725339103.1,326724472783093.06,5186205918.809095,8683918868.47514,102474784362.50427,1930196898166.1355
3.3670905717701234,5465268799700006.0,6132404916989434.0,329879739394406.75,335046834365206.25,5599273466.894434,9375570316.833717,110636633956.08788,2083932052081.894
3.5344323832055258,5600343497811843.0,6284083830214184.0,338032752145315.06,343327552416067.9,6031302851.37401,10098972019.568665,119173153243.26408,2244724412841.86
3.7051210308696363,5734837651722818.0,6435119262077752.0,346150723660985.9,351572680360802.25,6482830273.703452,10855021811.734144,128094937152.38245,2412773543900.9346
3.879223451487029,5868841747484679.0,6585612927326225.0,354239115615172.2,359787765422482.44,6954412728.04836,11644652344.569622,137412991461.32355,2588286747359.447
4.0568079205167695,6002439038600493.0,6735658436508384.0,362302953130133.1,367977911434727.75,7446628222.264642,12468831455.53457,147138737164.11487,2771479146208.5835
4.237944078927105,6135706415455452.0,6885342271294210.0,370346877254856.25,376147832141929.8,7960076054.635547,13328562631.70447,157284015939.2629,2962573787327.5376
4.422702960505647,6268715147300226.0,7034744616859560.0,378375189750642.6,384301896686335.75,8495377140.536876,14224885556.76895,167861096604.63068,3161801763063.012
4.61115701971576,6401531518847103.0,7183940076080352.0,386391891515605.0,392444168634410.06,9053174384.363714,15158876733.818493,178882682466.66632,3369402349654.289
4.803380160110075,6534217379173124.0,7332998285380242.0,394400715716063.4,400578439627194.4,9634133092.974998,16131650177.649963,190361919489.98743,3585623161110.3926
4.9994477633122765,6666830617223143.0,7481984448263868.0,402405156487575.0,408708258530885.6,10238941427.652391,17144358171.563818,202312405228.0038,3810720317421.779
5.199436718578522,6799425575538108.0,7630959799573371.0,410408493907275.75,416836956800343.56,10868310892.168571,18198192084.624172,214748198467.03848,4044958626211.2476
5.403425452950093,6932053411722310.0,7779982011139607.0,418413815811793.25,424967670638747.6,11522976855.047653,19294383246.17293,227683829546.06918,4288611777110.5425
5.611493962009095,7064762415483680.0,7929105547613515.0,426424036933569.5,433103360433656.6,12203699104.500153,20434203875.056423,241134311322.1171,4541962548297.971
5.823723841249277,7197598287732032.0,8078381979752127.0,434441915747028.9,441246827867057.4,12911262434.846872,21618968061.57927,255115150757.83926,4805303024755.597
6.040198318074262,7330604387133673.0,8227860261213546.0,442470069350446.8,449400731030334.2,13646477263.521362,22850032800.661514,269642361113.35223,5078934827907.404
6.261002284435747,7463821948638016.0,8377586973925519.0,450510986656053.8,457567597820970.7,14410180277.97319,24128799075.0641,284732474728.8853,5363169356385.936
6.486222330124463,7597290277770816.0,8527606546284157.0,458567040117441.75,465749837853656.06,15203235111.98938,25456712987.87465,300402556388.736,5658328037748.053
6.715946776726952,7731046923898201.0,8677961447776335.0,466640496187655.5,473949753082185.94,16026533051.119312,26835266943.726616,316670217260.3093,5964742591022.424
6.950265712261491,7865127835177900.0,8828692363072621.0,474733524671938.5,482169547298701.75,16880993767.031696,28266000878.46535,333553629404.84717,6282755300025.284
7.18927102650672,7999567497509483.0,8979838348184063.0,482848207114673.3,490411334652006.56,17767566080.756313,29750503537.18118,351071540858.9285,6612719297426.52
7.433056447036854,8134399059459971.0,9131436970899308.0,490986544339801.06,498677147306089.7,18687228754.872078,31290413800.713192,369243291287.9417,6954998859589.126
7.681717575977592,8269654444859441.0,9283524437403038.0,499150463247005.1,506968942342768.4,19640991314.797768,32887422060.885994,388088828214.6403,7309969712240.513
7.935351927497144,8405364454524845.0,9436135706711836.0,507341822951703.94,515288607997847.44,20629894899.426853,34543271644.88309,407628723827.5281,7678019347065.089
8.194058966047088,8541558858372201.0,9589304594340234.0,515562420344862.8,523637969308021.8,21655013141.42374,36259760289.288345,427884192375.3736,8059547349336.369
8.45794014536803,8678266479007826.0,9743063866421398.0,523813995138508.3,532018793235422.9,22717453077.566074,38038741664.44067,448877108155.4258,8454965736732.041
8.72709894827539,8815515267747097.0,9897445325345826.0,532098234454167.7,540432793327926.56,23818356089.580467,39882126949.84962,470630024104.20233,8864699309498.018
9.0016409272409,8953332373887224.0,1.0052479887845724e+16,540416777004115.5,548881633965895.5,24958898875.97577,41791886461.51802,493166191000.79205,9289186012149.666
9.281673745785717,9091744207955860.0,1.0208197656334526e+16,548771216909028.06,557366934239628.25,26140294455.430977,43770051332.102844,516509577293.68304,9728877306917.06
9.567307220701432,9230776499568916.0,1.0364627984212622e+16,557163107190228.9,565890271496311.6,27363793202.342785,45818715244.928375,540684889563.0873,10184238559159.748
9.85865336511546,9370454350453484.0,1.0521799535762942e+16,565593962970121.5,574453184590573.0,28630683915.185566,47940036222.94496,565717593631.645,10655749434993.807
10.155826432417769,9510802283125456.0,1.0679740341185584e+16,574065264410330.1,583057176868660.2,29942294918.378815,50136238473.79701,591633936337.2527,11143904311390.213
10.458942961066125,9651844285654666.0,1.0838477847257592e+16,582578459413697.6,591703718912741.6,31299995198.398693,52409614292.23438,618460967982.5796,11649212699018.146
10.768121820287448,9793603852899718.0,1.09980389640469e+16,591134966113185.8,600394251068806.8,32705195574.912617,54762526021.16988,646226565476.6414,12172199678123.678
11.083484256693197,9936104024552246.0,1.1158450108061344e+16,599736175168201.5,609130185778963.2,34159349907.749805,57197408072.74772,674959456184.5322,12713406347746.162
11.405153941827061,1.0079367420292246e+16,1.1319737242171834e+16,608383451886551.0,617912909736600.4,35663956340.56408,59716769010.852295,704689242502.2,13273390288590.95
11.733257020663602,1.0223416272322606e+16,1.148192591261112e+16,617078138188193.6,626743785880950.1,37220558582.07586,62323193696.54803,735446427173.8232,13852726039888.68
12.067922161076874,1.0368272455523226e+16,1.1645041283316892e+16,625821554425327.9,635624155245636.0,38830747225.82167,65019345497.99899,767262439370.1188,14452005590586.846
12.409280604298411,1.0513957515438608e+16,1.1809108167861228e+16,634615001071703.8,644555338674473.2,40496161109.37115,67807968566.48086,800169661546.5464,15071838885230.236
12.75746621638438,1.0660492694290882e+16,1.197415105918068e+16,643459760292747.9,653538638416177.8,42218488714.007675,70691890180.15154,834201457101.123,15712854344901.785
13.112615540712067,1.0807898955190918e+16,1.2140194157301688e+16,652357097406928.4,662575339608627.4,43999469605.90521,73674023157.30962,869392198852.224,16375699403607.982
13.474867851526309,1.09561970047019e+16,1.2307261395234794e+16,661308262247680.4,671666711662107.2,45840895919.867386,76757368340.92369,905777298357.4305,17061041060504.537
13.844365208556836,1.1105407313895e+16,1.2475376463194932e+16,670314490434307.6,680814009550137.1,47744613886.727036,79945017156.2791,943393236095.1989,17769566448372.996
14.221252512727972,1.1255550138022974e+16,1.2644562831288892e+16,679377004559459.8,690018475015536.0,49712525405.547,83240154243.64133,982277592531.7565,18501983418770.54
14.605677562982532,1.1406645534924776e+16,1.2814843770797772e+16,688497015300046.4,699281337698731.9,51746589661.785675,86646060167.89671,1022469080096.4039,19259021144288.17
14.997791114242183,1.1558713382264516e+16,1.2986242374170272e+16,697675722457730.1,708603816194573.1,53848824792.639725,90166114207.1903,1064007576089.0027,20041430738366.883
15.397746936527026,1.1711773393696892e+16,1.3158781573831462e+16,706914315934703.9,717987119043364.9,56021309600.79951,93803797222.63782,1106934156544.176,20849985893131.777
15.805701875257567,1.1865845134044128e+16,1.3332484159901816e+16,716213976649723.6,727432445661273.2,58266185317.89526,97562694611.24687,1151291131077.4512,21685483535720.832
16.221815912762718,1.202094803356033e+16,1.350737279691336e+16,725575877399116.8,736940987214801.8,60585657418.94482,101446499344.24591,1197122078739.2405,22548744503594.293
16.64625223101797,1.2177101401353062e+16,1.3683470039600358e+16,735001183666881.2,746513927443591.4,62981997489.14959,105459015093.07585,1244471884903.2734,23440614239327.652
17.079177275638333,1.2334324438024428e+16,1.3860798347836758e+16,744491054387719.0,756152443435397.6,65457545144.42225,109604159445.35788,1293386779216.8167,24361963505401.254
17.5207608211511,1.2492636247589916e+16,1.4039380100784454e+16,754046642666415.8,765857706356748.4,68014710007.06162,113885967213.21432,1343914374640.7107,25313689119514.152
17.97117603757412,1.265205584872589e+16,1.4219237610311258e+16,763669096456757.4,775630882142483.4,70655973738.03206,118308593836.37555,1396103707607.8948,26296714710964.035
18.430599558325603,1.28126021853932e+16,1.4400393133731942e+16,773359559202754.6,785473132147030.6,73383892127.33086,122876318882.5664,1450005279329.8694,27311991498645.523
18.899211549492115,1.2974294136879238e+16,1.4582868885920434e+16,783119170444770.4,795385613760020.0,76201097243.96986,127593549647.71707,1505671098281.2148,28360499091233.215
19.37719578048196,1.3137150527296128e+16,1.4766687050836052e+16,792949066392830.2,805369480988583.5,79110299647.12274,132464824858.61058,1563154723892.7651,29443246310129.457
19.864739696091597,1.3301190134569224e+16,1.4951869792503128e+16,802850380469156.5,815425885008380.4,82114290660.02928,137494818480.61603,1622511311484.965,30561272035764.223
20.36203449001343,1.3466431698945598e+16,1.5138439265477194e+16,812824243821738.1,825555974685214.6,85215944708.26767,142688343633.2199,1683797658473.2017,31715646077851.395
20.869275179813698,1.3632893931048382e+16,1.532641762482811e+16,822871785810484.9,835760897068801.6,88418221724.04066,148050356616.1074,1747072251877.6775,32907470070209.79
21.38666068340997,1.3800595519498672e+16,1.5515827035664602e+16,832994134467276.6,846041797860026.4,91724169618.14214,153585961048.5731,1812395317170.66,34137878390769.934
21.91439389707817,1.396955513812269e+16,1.5706689682221278e+16,843192416930986.5,856399821852770.1,95136926821.28366,159300412125.1002,1879828868494.4556,35408039107392.195
22.452681775019734,1.4139791452757592e+16,1.5899027776523304e+16,853467759858273.2,866836113351155.1,98659724896.48361,165199120989.93124,1949436760283.5986,36719154950127.875
23.00173541052013,1.431132312766485e+16,1.6092863566639582e+16,863821289810684.6,877351816562702.1,102295891224.21921,171287659233.49716,2021284740324.9365,38072464310555.67
23.561770118730532,1.4484168831555134e+16,1.6288219344529532e+16,874254133618322.2,887948075967681.8,106048851762.04086,177571763513.54245,2095440504289.2297,39469242268827.17
24.133005521105144,1.4658347243223554e+16,1.648511745348316e+16,884767418719973.9,898626036664591.5,109922133880.3391,184057340303.7835,2171973751767.5415,40910801649047.125
24.715665631527248,1.4833877056788572e+16,1.6683580295146744e+16,895362273479333.2,909386844691316.1,113919369275.92361,190750470772.87296,2250956243845.3867,42398494103608.13
25.309978944157795,1.5010776986521734e+16,1.688363033612157e+16,906039827476522.4,920231647321220.4,118044296965.04422,197657415796.40247,2332461862246.653,43933711227083.516
25.91617852304095,1.5189065771248766e+16,1.7085290114113254e+16,916801211773731.0,931161593332953.0,122300766357.41594,204784621104.56567,2416566670078.3706,45517885700260.484
26.53450209350177,1.536876217829577e+16,1.7288582243603584e+16,927647559153414.2,942177833252361.9,126692740412.75089,212138722567.99014,2503348974205.8613,47152492464871.4
27.165192135371807,1.5549885006945586e+16,1.7493529421006216e+16,938580004326907.2,953281519564396.0,131224298881.19206,219726551624.08136,2592889389285.967,48839049929542.46
27.808495978079243,1.5732453091362756e+16,1.7700154429259534e+16,949599684110981.0,964473806892412.4,135899641628.93417,227555140846.0296,2685270903483.587,50579121207436.375
28.464665897640828,1.5916485302935004e+16,1.7908480141799534e+16,960707737569174.1,975755852141719.5,140723092050.16736,235631729656.38184,2780578945894.2334,52374315386012.1
29.133959215593645,1.6102000551971124e+16,1.811852952584472e+16,971905306114258.5,987128814603662.9,145699100566.30353,243963770186.78772,2878901455691.356,54226288829257.35
29.816638399905518,1.6289017788684118e+16,1.833032564491485e+16,983193533567612.4,998593856015908.5,150832248213.24045,252558933285.19122,2980328953013.408,56136746512674.67
30.51297116790363,1.6477556003379924e+16,1.854389166049233e+16,994573566170578.6,1010152140573992.8,156127250317.17688,261425114671.31067,3084954611600.915,58107443391211.44
31.223230591261704,1.6667634225759416e+16,1.875925083272523e+16,1006046552542356.1,1021804834888545.1,161588960259.20804,270570441240.81888,3192874333187.9575,60140185800218.43
31.947695203086937,1.6859271523232802e+16,1.8976426520056904e+16,1017613643578250.6,1033553107881955.8,167222373328.61472,280003277518.0563,3304186823646.4985,62236832889404.61
32.686649107148675,1.705248699813318e+16,1.9195442177655616e+16,1029275992281478.0,1045398130617535.8,173032630664.40134,289732232256.54376,3418993670874.5283,64399298089620.33
33.44038208929165,1.7247299783706378e+16,1.9416321354506244e+16,1041034753521131.8,1057341076053688.0,179025023284.21826,299766165185.85535,3537399424411.421,66629550612150.43
34.20918973107749,1.7443729038743594e+16,1.963908768901355e+16,1052891083708200.6,1069383118714862.2,185204996199.37607,310114193902.67035,3659511676754.406,68929616980030.445
34.993373525699035,1.7641793940713384e+16,1.9863764902955532e+16,1064846140381023.1,1081525434270511.1,191578152614.1365,320785700902.9916,3785441146340.822,71301582590716.6
35.793240996213015,1.7841513677240986e+16,2.0090376793615036e+16,1076901081690978.6,1093769199012721.1,198150258206.9462,331790340751.5958,3915301762149.6553,73747593309232.44
36.60910581613728,1.804290743577392e+16,2.031894722390873e+16,1089057065778724.9,1106115589222684.8,204927245490.66696,343138047383.8118,4049210749864.5,76269857090706.06
37.44128793246003,1.8245994391267016e+16,2.054950011032386e+16,1101315250030868.6,1118565780415724.2,211915218248.24213,354839041533.6446,4187288719527.322,78870645630960.08
38.29011369110923,1.8450793691713276e+16,2.0782059408466604e+16,1113676790206606.8,1131120946454252.5,219120456039.53943,366903838281.1292,4329659754599.099,81552296043581.44
39.15591596493141,1.865732444134332e+16,2.1016649096022264e+16,1126142839423673.2,1143782258517841.0,226549418774.40686,379343254710.5982,4476451502329.161,84317212561614.44
40.03903428423004,1.8865605681314384e+16,2.1253293152922584e+16,1138714546992735.5,1156550883919355.0,234208751346.20242,392168417670.26166,4627795265319.968,87167868261746.61
40.93981496991464,1.9075656367709104e+16,2.1492015538517296e+16,1151393057089408.0,1169427984756157.0,242105288319.27676,405390771622.17065,4783826094158.273,90106806808557.6
41.85861126931294,1.9287495346665844e+16,2.173284016554679e+16,1164179507253153.0,1182414716385516.8,250246058663.0464,419022086570.2533,4944682880967.645,93136644216095.23
42.7957834946992,1.950114132646841e+16,2.1975790870718588e+16,1177075026702624.5,1195512225713541.0,258638290524.45477,433074466052.68115,5110508453719.804,96260070623719.64
43.751699164593184,1.9716612846427104e+16,2.2220891381697092e+16,1190080734457340.2,1208721649287448.0,267289416029.73312,447560355183.3544,5281449671125.636,99479852082842.92
44.72673314788505,1.9933928242394316e+16,2.246816528032572e+16,1203197737256256.8,1222044111181522.5,276207076105.48706,462492548725.8116,5457657517908.6,102798832350844.55
