t(s),Total solute volume 1,Total retention volume 1,Total 1 volume 1,Total 2 volume 1,Total 3 volume 1,Total 4 volume 1,Total 5 volume 1,Total 6 volume 1
0.1,1389665646485961.5,7115728075414663.0,1732020487244934.5,3994041941683769.0,0.0,0.0,0.0,0.004426733051481951
0.202,2048932125357030.2,1.049211147134845e+16,2553703368600968.0,5888859298452346.0,202681516.8253711,1191947759.7090025,60833225661.71044,554451083173.8833
0.30604000000000003,2561493738092356.0,1.3117743658892428e+16,3192538869259036.5,7362020721551209.0,511843612.4262686,3011249602.040706,157684314226.26205,1529122582388.937
0.41216080000000005,2997134343161588.0,1.5349879196699784e+16,3735503183324856.5,8614101602218697.0,907357172.3293481,5338930079.83765,282775443535.1407,2851046263859.6875
0.5204040160000001,3384738958972743.5,1.7336382856395864e+16,4218597427353847.5,9728121339265268.0,1380020349.7027586,8120768740.186193,432830933105.85767,4482799081813.028
0.6308120963200001,3739112477769853.5,1.915304016702917e+16,4660273811044447.0,1.0746631029029778e+16,1924872064.108121,11327543736.381634,606150960209.1716,6403445809084.439
0.7434283382464002,4068957938902980.0,2.084440145942532e+16,5071379443131447.0,1.169464424957989e+16,2539069643.5710955,14942513007.26435,801774532972.1757,8600571695394.47
0.8582969050113283,4379884140582768.0,2.243917849613373e+16,5458904897305601.0,1.2588281346916214e+16,3221006454.7251244,18956214138.58421,1019159041402.8922,11066775067151.266
0.9754628431115548,4675748811792223.0,2.3957120264686468e+16,5827658286842535.0,1.3438629883121384e+16,3969875374.151259,23363892733.156437,1258028397349.5522,13797920764863.387
1.094972099973786,4959336716378316.0,2.541248414136943e+16,6181110425678540.0,1.4253693591334578e+16,4785426470.618564,28164075189.227352,1518290577852.0486,16792167898476.11
1.2168715419732616,5232734529108353.0,2.6815954797363668e+16,6521862058463963.0,1.5039469814849564e+16,5667821168.383739,33357709846.63047,1799988621775.0247,20049380788997.703
1.3412089728127268,5497552983443271.0,2.8175781289929508e+16,6851920736361603.0,1.5800587986270928e+16,6617539096.414962,38947618452.52757,2103269579195.7437,23570749116971.176
1.4680331522689813,5755065924524094.0,2.9498488802276292e+16,7172874126928983.0,1.65407092821859e+16,7635315840.829404,44938129626.56193,2428363874691.684,27358531317148.094
1.597393815314361,6006301290275339.0,3.0789344315955468e+16,7486003409192214.0,1.726278811349804e+16,8722099870.811426,51334825236.21236,2775571082322.4087,31415874982473.168
1.729341691620648,6252102855935184.0,3.2052672632697988e+16,7792360229465265.0,1.796924958638859e+16,9879021913.295,58144360077.06339,3145249840157.0254,35746687686801.82
1.863928525453061,6493173443354401.0,3.3292077524169524e+16,8092820555625092.0,1.8662113690845516e+16,11107372720.298508,65374330971.22553,3537810543584.3203,40355542097237.055
2.001207095962122,6730105960258487.0,3.4510600591393148e+16,8388123363157819.0,1.9343084511084972e+16,12408586677.430357,73033180258.86723,3953709966028.0083,45247605158904.055
2.1412312378813647,6963406205547112.0,3.571083798113997e+16,8678899058735677.0,2.0013615770606624e+16,13784229590.81033,81130123891.74265,4393447254576.164,50428584642490.18
2.284055862638992,7193509957213350.0,3.6895027840467576e+16,8965690777888642.0,2.067495994483571e+16,15235989535.64709,89675097552.92006,4857560930707.761,55904688512066.62
2.4297369798917723,7420795999218318.0,3.806511698721618e+16,9248970621158998.0,2.1328205701854016e+16,16765669996.657764,98678716269.96509,5346626641895.491,61682593956689.414
2.578331719489608,7645596205532536.0,3.922281251980839e+16,9529152222430712.0,2.1974306885088468e+16,18375184757.52697,108152244325.57335,5861255485243.194,67769423842329.25
2.7298983538794,7868203453416961.0,4.03696223179761e+16,9806600611713544.0,2.2614105256985596e+16,20066554148.998676,118107573167.00403,6402092774775.969,74172728957913.64
2.884496320956988,8088877909800977.0,4.150688721792565e+16,1.0081640050222744e+16,2.324834856677924e+16,21841902369.84834,128557205631.87448,6969817158569.783,80900474856112.47
3.0421862473761276,8307852080791488.0,4.263580685813204e+16,1.0354560323877032e+16,2.387770506335583e+16,23703455668.316597,139514245239.6728,7565140016081.126,87961032390687.75
3.2030299723236504,8525334908592795.0,4.375746065067309e+16,1.0625621849528762e+16,2.450277527026883e+16,25653541223.915237,150992389606.4472,8188805083255.777,95363171268617.2
3.3670905717701234,8741515126096623.0,4.487282495416702e+16,1.0895059855985306e+16,2.5124101627212572e+16,27694586607.471237,163005927263.61075,8841588265465.89,103116056093201.56
3.5344323832055258,8956564026744941.0,4.598278725487468e+16,1.1163087836250638e+16,2.5742176450923136e+16,29829119725.218697,175569737326.31757,9524297607491.977,111229244491434.5
3.7051210308696363,9170637769249352.0,4.708815796794927e+16,1.1429900420031576e+16,2.6357448559204156e+16,32059769173.60157,188699291579.64786,10237773396599.736,119712687006823.66
3.879223451487029,9383879308926368.0,4.818968032841295e+16,1.1695675780873572e+16,2.6970328821803804e+16,34389264947.2074,202410658643.61023,10982888379919.295,128576728505668.48
4.0568079205167695,9596420026787862.0,4.928803873591183e+16,1.196057766659121e+16,2.7581194842605904e+16,36820439454.2983,216720509948.8838,11760548081272.89,137832110896165.77
4.237944078927105,9808381112068996.0,5.038386583819595e+16,1.2224757122393384e+16,2.8190394933172256e+16,39356228803.70966,231646127310.0115,12571691205637.127,147489976999602.62
4.422702960505647,1.0019874742164568e+16,5.147774857833731e+16,1.2488353961506794e+16,2.879825150401371e+16,41999674334.15082,247205411925.5127,13417290121796.195,157561875444179.47
4.61115701971576,1.0231005094983256e+16,5.2570233384837816e+16,1.2751498026932086e+16,2.9405063974211044e+16,44753924362.66009,263416894668.0474,14298351415607.908,168059766476760.66
4.803380160110075,1.0441869221808828e+16,5.366183064836689e+16,1.301431027934168e+16,3.0011111280117316e+16,47622236133.51306,280299747554.53796,15215916507785.682,178996028607590.75
4.9994477633122765,1.065255780336725e+16,5.475301860128225e+16,1.3276903739410304e+16,3.061665404838022e+16,50607977952.52442,297873796307.5843,16171062331285.73,190383466018903.88
5.199436718578522,1.0863155807565506e+16,5.5844246694428104e+16,1.3539384307593266e+16,3.12219364863583e+16,53714631494.62655,316159533936.8335,17164902064346.287,202235316681219.4
5.403425452950093,1.1073743064020314e+16,5.693593854857403e+16,1.3801851480194994e+16,3.182718803338153e+16,56945794275.00165,335178135283.0714,18198585916004.055,214565261131620.03
5.611493962009095,1.1284394767826282e+16,5.802849454420239e+16,1.4064398977244856e+16,3.2432624808638052e+16,60305182276.009674,354951472479.3464,19273301961552.047,227387431876933.38
5.823723841249277,1.1495181922874278e+16,5.9122294102408184e+16,1.4327115295030562e+16,3.3038450885321496e+16,63796632723.77458,375502131293.0024,20390277025928.914,240716423391882.88
6.040198318074262,1.1706171733303016e+16,6.02176977008343e+16,1.4590084193987066e+16,3.3644859415707256e+16,67424107009.64269,396853428320.4391,21550777613468.598,254567302688206.22
6.261002284435747,1.191742795026547e+16,6.131504866139679e+16,1.4853385130891912e+16,3.4252033627798104e+16,71191693752.85626,419029429013.0638,22756110882805.445,268955620435722.3
6.486222330124463,1.2129011180046594e+16,6.241467474069177e+16,1.5117093642890224e+16,3.48601477108899e+16,75103612001.73997,442054966518.5235,24007625666038.79,283897422620516.44
6.715946776726952,1.2340979158629616e+16,6.351688954917449e+16,1.538128168970265e+16,3.5469367604705816e+16,79164214571.5077,465955661326.0784,25306713531524.027,299409262728976.9
6.950265712261491,1.2553386997032978e+16,6.46219938212313e+16,1.5646017959403156e+16,3.607985170452264e+16,83377991517.4909,490757941709.04425,26654809889880.836,315508214449440.8
7.18927102650672,1.2766287401097368e+16,6.573027655498112e+16,1.591136814235246e+16,3.669175149286373e+16,87749573743.18672,516489064960.76654,28053395143002.78,332211884885823.9
7.433056447036854,1.2979730868868028e+16,6.6842016037904904e+16,1.6177395177207026e+16,3.730521210679779e+16,92283736743.04256,543177139423.6281,29503995876019.5,349538428279841.9
7.681717575977592,1.3193765868269272e+16,6.795748077211484e+16,1.6444159472365206e+16,3.792037284859586e+16,96985404480.34662,570851147313.2598,31008186092309.605,367506560240406.4
7.935351927497144,1.3408438997393376e+16,6.907693031115134e+16,1.6711719105744604e+16,3.853736764641935e+16,101859653400.99428,599540968342.4844,32567588491789.96,386135572480464.1
8.194058966047088,1.3623795129408656e+16,7.020061601857766e+16,1.6980130005389554e+16,3.915632547080285e+16,106911716584.25212,629277404151.588,34183875792821.918,405445348063077.5
8.45794014536803,1.3839877543824182e+16,7.132878175727059e+16,1.7249446113073874e+16,3.977737071192296e+16,112146988031.9604,660092203553.4043,35858772098176.88,425456377159854.9
8.72709894827539,1.4056728045620238e+16,7.246166451714126e+16,1.7519719532780204e+16,4.040062352199339e+16,117571027097.89737,692018088603.347,37594054305593.71,446189773326037.6
9.0016409272409,1.4274387073560446e+16,7.3599494988028e+16,1.7791000665695616e+16,4.102620012656618e+16,123189563059.29033,725088781506.0625,39391553563546.4,467667290297626.0
9.281673745785717,1.4492893798835122e+16,7.474249808365686e+16,1.806333833315661e+16,4.1654213108043096e+16,129008499832.6926,759339032371.7839,41253156772911.9,489911339316865.5
9.567307220701432,1.4712286215043154e+16,7.589089342183402e+16,1.8336779888798864e+16,4.228477166429477e+16,135033920836.66537,794804647836.7064,43180808135303.1,512945006993318.3
9.85865336511546,1.4932601220397732e+16,7.70448957654135e+16,1.8611371321014924e+16,4.291798184492881e+16,141272094003.9043,831522520562.9556,45176510748891.01,536792073708528.7
10.155826432417769,1.5153874692935294e+16,7.820471542803752e+16,1.8887157346691532e+16,4.3553946767448424e+16,147729476945.64096,869530659634.7697,47242328252605.58,561477032573038.8
10.458942961066125,1.5376141559415494e+16,7.93705586481877e+16,1.9164181497083676e+16,4.419276681527942e+16,154412722271.32996,908868221868.6305,49380386519657.4,587025108945195.2
10.768121820287448,1.5599435858521178e+16,8.054262793466954e+16,1.944248619658447e+16,4.483453981941359e+16,161328683066.79172,949575544056.0046,51592875401378.11,613462280521833.6
11.083484256693197,1.5823790798898148e+16,8.172112238631157e+16,1.9722112835063264e+16,4.547936122522147e+16,168484418534.1551,991694176158.3596,53882050522428.97,640815298011519.6
11.405153941827061,1.6049238812513814e+16,8.290623798834085e+16,2.0003101834369988e+16,4.612732424581168e+16,175887199797.08737,1035266915474.995,56250235128473.77,669111706401598.4
11.733257020663602,1.6275811603762426e+16,8.40981678876405e+16,2.0285492709537532e+16,4.677852000316447e+16,183544515874.95404,1080337841805.0925,58699821987460.55,698379866830857.8
12.067922161076874,1.6503540194697134e+16,8.529710264884755e+16,2.0569324125157376e+16,4.743303765813375e+16,191464079829.68863,1126952353626.2937,61233275345704.15,728648979080103.9
12.409280604298411,1.673245496672945e+16,8.650323049305123e+16,2.0854633947351812e+16,4.809096453029618e+16,199653835089.30286,1175157205312.848,63853132940000.03,759949104693464.9
12.75746621638438,1.6962585699100936e+16,8.77167375206658e+16,2.1141459291723676e+16,4.8752386208523144e+16,208121961952.0896,1225000545417.2805,66562008067050.945,792311190743707.1
13.112615540712067,1.7193961604400254e+16,8.893780791989131e+16,2.1429836567623148e+16,4.941738665306075e+16,216876884275.72104,1276531956040.2112,69362591711523.62,825767094255309.6
13.474867851526309,1.7426611361371152e+16,9.016662416203656e+16,2.1719801519038412e+16,5.00860482898237e+16,225927276355.56656,1329802493313.8425,72257654734096.58,860349607299507.9
13.844365208556836,1.7660563145232278e+16,9.140336718485054e+16,2.2011389262384724e+16,5.0758452097537576e+16,235282069996.6847,1384864729025.3281,75250050120904.31,896092482775947.2
14.221252512727972,1.7895844655707646e+16,9.264821656489765e+16,2.2304634321440824e+16,5.14346776883021e+16,244950461784.0794,1441772793406.9844,78342715295816.4,933030460896003.5
14.605677562982532,1.8132483142947828e+16,9.390135067991438e+16,2.2599570659655664e+16,5.211480338209094e+16,254941920555.93588,1500582419121.1453,81538674497038.9,971199296383311.4
14.997791114242183,1.837050543150361e+16,9.516294686199586e+16,2.2896231710028468e+16,5.279890627565531e+16,265266195084.67078,1561350986468.0935,84841041219558.92,1010635786407370.4
15.397746936527026,1.860993794249961e+16,9.64331815423805e+16,2.3194650402744684e+16,5.348706230625274e+16,275933321970.7731,1624137569846.3699,88253020724993.73,1051377799266589.5
15.805701875257567,1.8850806714140344e+16,9.771223038853648e+16,2.349485919073414e+16,5.417934631058471e+16,286953633754.5243,1689002985495.3616,91777912620451.88,1093464303837506.6
16.221815912762718,1.909313742067013e+16,9.900026843418387e+16,2.3796890073301908e+16,5.487583207928862e+16,298337767250.82025,1756009840550.9648,95419113508041.66,1136935399807310.5
16.64625223101797,1.933695538989604e+16,1.002974702028347e+17,2.410077461796785e+16,5.5576592407301336e+16,310096672112.44305,1825222583445.7527,99180119706713.72,1181832348707240.5
17.079177275638333,1.958228561937374e+16,1.0160400982538131e+17,2.440654398064039e+16,5.628169914037889e+16,322241619627.2475,1896707555685.8452,103064530048155.84,1228197605764784.5
17.5207608211511,1.982915279134743e+16,1.029200611522178e+17,2.4714228924236664e+16,5.699122321803543e+16,334784211754.8716,1970533045037.4358,107076048748500.14,1276074852593042.5
17.97117603757412,2.0077581286525804e+16,1.0424579786034013e+17,2.502385983585265e+16,5.770523471313751e+16,347736390408.69025,2046769340156.673,111218488357645.38,1325509030735987.2
18.430599558325603,2.0327595196770804e+16,1.0558139355583051e+17,2.5335466742577584e+16,5.8423802868371656e+16,361110446988.8562,2125488786697.3362,115495772788029.52,1376546376088776.0
18.899211549492115,2.0579218336766396e+16,1.069270218721024e+17,2.564907932603775e+16,5.914699612978373e+16,374919032172.4232,2206765844931.453,119911940424736.28,1429234454212625.8
19.37719578048196,2.0832474254732452e+16,1.0828285656424922e+17,2.596472693574931e+16,5.987488217756952e+16,389175165966.6405,2290677148918.8228,124471147318850.58,1483622196564224.2
19.864739696091597,2.1087386242239116e+16,1.0964907159981592e+17,2.628243860135125e+16,6.060752795428425e+16,403892248031.66016,2377301567262.1274,129177670466024.67,1539759937659965.5
20.36203449001343,2.1343977343176452e+16,1.1102584124628384e+17,2.6602243043784164e+16,6.134499969062134e+16,419084068279.01575,2466720265485.0063,134035911172253.03,1597699453195765.2
20.869275179813698,2.1602270361926384e+16,1.124133401555419e+17,2.692416868547553e+16,6.2087362928899816e+16,434764817752.35724,2559016770071.3975,139050398508893.84,1657493999143554.5
21.38666068340997,2.1862287870781744e+16,1.1381174344559475e+17,2.724824365958682e+16,6.283468254438717e+16,450949099797.06836,2654277034204.897,144225792859016.7,1719198351845983.5
21.91439389707817,2.2124052216653084e+16,1.1522122677973645e+17,2.757449581837226e+16,6.358702276457594e+16,467651941525.4995,2752589505248.0615,149566889557196.56,1782868849131231.0
22.452681775019734,2.2387585527100556e+16,1.1664196644341195e+17,2.79029527406968e+16,6.434444718651978e+16,484888805584.6971,2854045194001.9067,155078622624912.44,1848563432470254.5
23.00173541052013,2.2652909715725e+16,1.1807413941895958e+17,2.8233641738755556e+16,6.510701879232807e+16,502675602233.6343,2958737745786.922,160766068603751.66,1916341690199164.8
23.561770118730532,2.2920046486950228e+16,1.1951792345842778e+17,2.8566589864033636e+16,6.5874799962910296e+16,521028701737.0664,3066763513387.5493,166634450488657.2,1986264901829831.2
24.133005521105144,2.3189017340224464e+16,1.2097349715463546e+17,2.89018239125436e+16,6.664785249005254e+16,539964947083.2767,3178221631902.8228,172689141763502.03,2058396083472242.2
24.715665631527248,2.3459843573669244e+16,1.2244104001064144e+17,2.923937042937228e+16,6.742623758690349e+16,559501667033.1046,3293214095546.6904,178935670541309.5,2132800034392469.5
25.309978944157795,2.3732546287198428e+16,1.23920732507776e+17,2.9579255712569116e+16,6.821001589694027e+16,579656689507.7585,3411845836442.243,185379723811479.78,2209543384730600.8
25.91617852304095,2.4007146385131696e+16,1.2541275617237338e+17,2.992150581640262e+16,6.899924750147854e+16,600448355323.0809,3534224805454.7812,192027151796426.66,2288694644403260.5
26.53450209350177,2.428366457832188e+16,1.2691729364134507e+17,3.0266146554012436e+16,6.9793991925787384e+16,621895532278.0116,3660462055109.5884,198883972420060.88,2370324253215891.5
27.165192135371807,2.4562121385816336e+16,1.2843452872671547e+17,3.0613203499479908e+16,7.059430814386417e+16,644017629605.1735,3790671824640.7417,205956375890605.5,2454504632210189.0
27.808495978079243,2.4842537136069508e+16,1.2996464647924165e+17,3.096270198933911e+16,7.140025458192009e+16,666834612791.5828,3924971627218.326,213250729400262.38,2541310236272642.0
28.464665897640828,2.512493196772329e+16,1.3150783325122762e+17,3.1314667123549536e+16,7.221188912062192e+16,690367018777.655,4063482339401.92,220773581944289.4,2630817608030490.0
29.133959215593645,2.540932582996991e+16,1.330642767586424e+17,3.1669123765948612e+16,7.302926909613576e+16,714635971542.7595,4206328292869.075,228531669262087.3,2723105433061630.0
29.816638399905518,2.5695738482511484e+16,1.3463416614263885e+17,3.2026096544201228e+16,7.385245130001093e+16,739663198085.7417,4353637368468.2173,236531918902936.1,2818254596445713.5
30.51297116790363,2.5984189495129056e+16,1.3621769203057218e+17,3.2385609849262084e+16,7.468149197794077e+16,765471044808.9078,4505541092646.108,244781455419055.12,2916348240683764.5
31.223230591261704,2.6274698246872384e+16,1.3781504659660731e+17,3.274768783436684e+16,7.551644682743458e+16,792082494314.1329,4662174736300.677,253287605688702.88,3017471825014264.0
31.947695203086937,2.656728392488259e+16,1.3942642362200357e+17,3.311235441356369e+16,7.635737099443277e+16,819521182619.8322,4823677416110.723,262057904372065.34,3121713186153839.5
32.686649107148675,2.686196552285609e+16,1.4105201855515826e+17,3.347963325979958e+16,7.720431906889344e+16,847811416807.6643,4990192198394.776,271100099502727.97,3229162600491302.0
33.44038208929165,2.715876183916063e+16,1.4269202857149003e+17,3.3849547802572064e+16,7.805734507937702e+16,876978193107.9785,5161866205551.95,280422158217546.5,3339912847763914.5
34.20918973107749,2.7457691474611384e+16,1.443466526332362e+17,3.4222121225156936e+16,7.891650248665413e+16,907047215433.054,5338850725138.314,290032272627787.25,3454059276245414.0
34.993373525699035,2.775877282991443e+16,1.4601609154924083e+17,3.4597376461422652e+16,7.978184417635792e+16,938044914367.4005,5521301321632.959,299938865834422.6,3571699869475470.5
35.793240996213015,2.8062024102786496e+16,1.4770054803480224e+17,3.4975336192239976e+16,8.065342245070717e+16,969998466624.3541,5709377950948.516,310150598090521.4,3692935314560690.0
36.60910581613728,2.836746328475621e+16,1.4940022677164662e+17,3.535602284149541e+16,8.153128901931086e+16,1002935814978.4558,5903245077741.665,320676373113682.75,3817869072077836.5
37.44128793246003,2.86751081576541e+16,1.5111533446809766e+17,3.5739458571716496e+16,8.241549498908138e+16,1036885688683.0544,6103071795579.331,331525344551522.44,3946607447609954.0
38.29011369110923,2.8984976289796932e+16,1.5284607991950458e+17,3.612566527931587e+16,8.330609085326736e+16,1071877624382.7969,6309031950017.39,342706922603222.56,4079259664946834.5
39.15591596493141,2.929708503187163e+16,1.5459267406899027e+17,3.6514664589461464e+16,8.42031264796238e+16,1107941987530.6577,6521304264648.701,354230780800214.6,4215937940981201.0
