t(s),Total solute volume 1,Total retention volume 1,Total 1 volume 1,Total 2 volume 1,Total 3 volume 1,Total 4 volume 1,Total 5 volume 1,Total 6 volume 1
0.1,858476762157242.6,970941579421749.6,55300119698977.766,57164697565528.79,0.0,0.0,0.0,0.0
0.202,1293526412667434.5,1462985619353374.8,83324521644642.36,86134010568890.34,1557444.778842667,2679479.6694590547,32931176.68586386,637304305.1451054
0.30604000000000003,1624839413870762.2,1837703344009892.2,104666565446095.92,108195653322221.12,3951743.292860452,6798710.783426693,83557212.10102177,1617063143.4093952
0.41216080000000005,1905077987569038.0,2154655923290891.0,122718570321405.12,126856325466397.11,7019516.576836865,12076610.495633949,148423501.5501461,2872414424.019724
0.5204040160000001,2153950205765411.5,2436133255394851.5,138750062476440.56,143428358383860.44,10688277.54213311,18388469.566837113,225997340.06579024,4373695050.845118
0.6308120963200001,2381273837526072.0,2693239270189781.5,153393468821617.2,158565502799717.0,14919156.457163718,25667415.202750556,315456847.02206105,6104998956.529919
0.7434283382464002,2592754707140573.0,2932427274319801.5,167016338929517.94,172647701115516.4,19689941.239351626,33875232.991064794,416332359.5115145,8057236657.3317795
0.8582969050113283,2792047910044422.0,3157831193871368.0,179854121474407.9,185918340730763.03,24988110.346531566,42990380.45159085,528359116.0659876,10225284169.201864
0.9754628431115548,2981658076981155.0,3372283776228882.0,192068156152707.78,198544201302432.44,30807400.401226744,53002081.8611874,651404680.7802835,12606578423.742428
1.094972099973786,3163388680649682.0,3577824757352749.5,203774616471614.62,210645373410236.06,37145905.5393618,63907058.30926548,785428755.0196441,15200339494.885664
1.2168715419732616,3338588685917277.5,3775979823928999.5,215060398107340.4,222311682629559.94,44004935.45885407,75707563.04617329,930459031.4571483,18007103297.742157
1.3412089728127268,3508298017342548.5,3967925137561476.5,225992489422530.25,233612375998693.75,51388286.95533619,88410128.208777,1086575791.084231,21028423492.29484
1.4680331522689813,3673338300433880.0,4154589963385504.5,236623816705977.97,244602164345033.88,59301757.64940546,102024728.22049414,1253901621.2344046,24266672495.04915
1.597393815314361,3834372077460630.0,4336723643305708.5,246997058651474.22,255325165378371.28,67752809.82281743,116564201.44380502,1432594307.5812674,27724903917.113796
1.729341691620648,3991942911790034.0,4514940954101450.0,257147229741234.75,265817574179380.0,76750331.64054304,132043839.37867396,1622841785.3084724,31406754853.71934
1.863928525453061,4146503406696453.0,4689753796767386.0,267103485121198.7,276109528930677.75,86304463.99020481,148481088.7513214,1824858477.7241068,35316375025.10758
2.001207095962122,4298435305128494.0,4861593929396982.0,276890415358889.3,286226449330596.44,96426472.9714538,165895332.1406771,2038882600.1181896,39458374597.873825
2.1412312378813647,4448064240645356.5,5030829650525451.0,286528996647979.5,296190018836214.0,107128655.03176478,184307724.77083835,2265174153.91113,43837785365.56978
2.284055862638992,4595670779548125.0,5197778287805564.0,296037302104413.8,306018919942546.5,118424266.02023709,203741072.4528611,2504013426.535323,48460031716.801445
2.4297369798917723,4741498831819589.0,5362715710800410.0,305431043570214.1,315729394254593.44,130327468.1458239,224219740.32993516,2755699869.8960814,53330908930.000725
2.578331719489608,4885762157333225.0,5525883689540874.0,314723990723191.1,325335675733515.5,142853290.63602272,245769585.51841047,3020551345.277709,58456576734.781555
2.7298983538794,5028649468417112.0,5687495665461861.0,323928299758002.4,334850330439076.7,156017600.8444677,268417906.1033885,3298903206.23473,63843508952.67132
2.884496320956988,5170328481048438.0,5847741333431196.0,333054774363163.3,344284526337871.4,169837084.08936626,292193408.3926544,3591108330.4231706,69498542905.24083
3.0421862473761276,5310949167597633.0,6006790320536090.0,342113075242863.0,353648249868222.25,184329229.88650128,317126181.9407871,3897536523.7873626,75428835430.94652
3.2030299723236504,5450646394811926.0,6164795169671844.0,351111890048998.4,362950481607347.06,199512323.83864957,343247685.9174658,4218574425.0865903,81641869133.17737
3.3670905717701234,5589542083090301.0,6321893781691359.0,360059072474254.7,372199340054281.06,215405444.02690056,370590742.89899004,4554625429.591701,88145450903.6848
3.5344323832055258,5727746988867633.0,6478211431290688.0,368961757067155.44,381402200316206.06,232028461.20480323,399189539.20232797,4906109693.190226,94947712001.98758
3.7051210308696363,5865362187331196.0,6633862443970420.0,377826454743552.94,390565792840341.25,249402042.22519252,429079630.7807576,5273464204.844676,102057109457.62408
3.879223451487029,6002480314691842.0,6788951601053416.0,386659132809477.7,399696286134954.1,267547656.25254285,460297953.9118324,5657142917.949331,109482428612.26779
4.0568079205167695,6139186615902216.0,6943575324663110.0,395465282451526.6,408799356535354.25,286487583.40774,492882840.0701655,6057616933.119246,117232786657.20961
4.237944078927105,6275559833725851.0,7097822683269924.0,404249976007640.5,417880247405698.56,306244925.5647955,526874034.5024886,6475374726.480854,125317637051.441
4.422702960505647,6411672967498209.0,7251776249859347.0,413017915843890.2,426943819663764.2,326843619.07577544,562312718.1200627,6910922418.73358,133746774728.77254
4.61115701971576,6547593924136362.0,7405512838233434.0,421773476290264.9,435994595130718.9,348308449.2448486,599241532.4003576,7364784081.195706,142530342020.71323
4.803380160110075,6683386079488379.0,7559104137906790.0,430520739800875.9,445036793910546.3,370665066.40794015,637704607.0510513,7837502075.799799,151678835236.3758
4.9994477633122765,6819108764637344.0,7712617264126522.0,439263528279994.9,454074366772314.8,393940003.50292736,677747590.2384181,8329637426.605,161203111852.32535
5.199436718578522,6954817689046289.0,7866115236459515.0,448005430339583.1,463111023326771.44,418160695.03837925,719417681.2218218,8841770220.880545,171114398274.72302
5.403425452950093,7090565310272081.0,8019657396949459.0,456749825114995.9,472150256645035.44,443355497.38759065,762763665.2682867,9374500038.21213,181424298143.793
5.611493962009095,7226401158257716.0,8173299776902462.0,465499903154770.44,481195364852753.8,469553710.3501002,807835950.7476897,9928446406.408335,192144801156.95407
5.823723841249277,7362372120834544.0,8327095419801387.0,474258684811705.94,490249470141264.75,496785599.935632,854686608.3310672,10504249283.254765,203288292392.17667
6.040198318074262,7498522695953875.0,8481094666591486.0,483029036490751.94,499315535563334.3,525082422.3360541,903369412.2328147,11102569563.38801,214867562117.48633
6.261002284435747,7634895215265163.0,8635345408559187.0,491813685051133.7,508396379920881.44,554476449.0598804,953939883.4529644,11724089609.750835,226895816076.1891
6.486222330124463,7771530042920682.0,8789893312192854.0,500615230612691.7,517494691003110.0,585000993.21141,1006455334.9887556,12369513809.250563,239386686240.49393
6.715946776726952,7908465752883482.0,8944782019730600.0,509436157977424.0,526613037393162.3,616690436.9030881,1060974918.9958216,13039569152.378288,252354242028.85474
6.950265712261491,8045739287515268.0,9100053328536472.0,518278846845187.7,535753879028267.1,649580259.7951776,1117559675.8888533,13735005836.664843,265813001984.61877
7.18927102650672,8183386099809052.0,9255747351979132.0,527145580975830.2,544919576670789.25,683707068.7616855,1176272585.379919,14456597893.950829,279777945915.5549
7.433056447036854,8321440281286813.0,9411902664098068.0,536038556427919.94,554112400424754.3,719108628.6857165,1237178619.459855,15205143841.537264,294264527495.53516
7.681717575977592,8459934677295081.0,9568556430017340.0,544959888985689.75,563334537413208.2,755823894.3910295,1300344797.334471,15981467357.361286,309288687331.17316
7.935351927497144,8598900991189924.0,9725744523793714.0,553911620870274.4,572588098715736.9,793893043.7200018,1365840242.333043,16786417979.411972,324866866497.58417
8.194058966047088,8738369878699432.0,9883501635155728.0,562895726818219.3,581875125651935.6,833357511.7710751,1433736240.811627,17620871829.662235,341016020548.60254
8.45794014536803,8878371033579440.0,1.0041861366396348e+16,571914119599124.5,591197595485083.1,874260026.3114429,1504106303.0783172,18485732362.851055,357753634007.9212
8.72709894827539,9018933265532096.0,1.020085632051499e+16,580968655034897.9,600557426610637.9,916644644.3831553,1577026226.3716886,19381931140.500023,375097735348.59656
9.0016409272409,9160084571232668.0,1.0360518181565588e+16,590061136575046.1,609956483285793.5,960556790.1231323,1652574159.9276798,20310428630.596924,393066912469.2832
9.281673745785717,9301852199202856.0,1.0520877788045444e+16,599193319475599.8,619396579949305.0,1006043293.8195288,1730830672.1735716,21272215033.421288,411680328676.3888
9.567307220701432,9444262709178024.0,1.0681965200057598e+16,608366914623344.8,628879485174674.5,1053152432.2289416,1811878820.091145,22268311134.030434,430957739182.19806
9.85865336511546,9587342026537248.0,1.0843809760889266e+16,617583592042012.8,638406925294542.8,1101933970.1807258,1895804220.7942283,23299769181.960297,450919508129.66583
10.155826432417769,9731115492296808.0,1.100644015357352e+16,626844984112704.6,647980587729709.8,1152439203.4964554,1982695125.3688817,24367673798.733864,471586626155.392
10.458942961066125,9875607909109804.0,1.1169884452933912e+16,636152688536999.9,657602124052152.6,1204721003.254162,2072642495.0271778,25473142913.805664,492980728502.89124
10.768121820287448,1.0020843583662812e+16,1.1334170173555416e+16,645508271068036.6,667273152808181.9,1258833861.4287155,2165740079.628539,26617328729.601986,515124113698.97736
11.083484256693197,1.0166846365817302e+16,1.149932431407392e+16,654913268031842.8,676995262124799.5,1314833937.9410982,2262084498.6250253,27801418716.35366,538039762806.69324
11.405153941827061,1.031363968480407e+16,1.1665373398133144e+16,664369188658867.8,686770012119830.5,1372779109.1509993,2361775324.4896827,29026636637.445118,561751359268.8462
11.733257020663602,1.0461246582745588e+16,1.1832343512320222e+16,673877517243371.8,696598937134125.4,1432729017.8284898,2464915168.689692,30294243606.039524,586283309356.8046
12.067922161076874,1.0609689745751528e+16,1.2000260341357536e+16,683439715146506.6,706483547802179.5,1494745124.6421752,2571609770.2683854,31605539173.76768,611660763239.8358
12.409280604298411,1.0758991532807162e+16,1.2169149200798068e+16,693057222657175.2,716425332975746.2,1558890761.2024949,2681968087.1028585,32961862452.300476,637909636690.8195
12.75746621638438,1.0909174002650226e+16,1.2339035067447472e+16,702731460723386.0,726425761513549.6,1625231184.7003706,2796102389.906315,34364593268.654045,665056633444.8143
13.112615540712067,1.1060258938814036e+16,1.2509942607711884e+16,712463832565413.8,736486283948847.0,1693833634.1828842,2914128359.046741,35815153355.10889,693129268227.4586
13.474867851526309,1.1212267872993766e+16,1.268189620405075e+16,722255725180992.5,746608334045380.8,1764767388.508946,3036165184.255974,37315007574.65161,722155890470.8832
13.844365208556836,1.1365222106880028e+16,1.285491997969641e+16,732108510751751.9,756793330251217.5,1838103826.0295413,3162335667.3057337,38865665182.88171,752165708735.2823
14.221252512727972,1.1519142732587806e+16,1.3029037821785872e+16,742023547959178.4,767042677059098.1,1913916486.0383992,3292766327.7296033,40468681127.353584,783188815854.9767
14.605677562982532,1.1674050651797152e+16,1.3204273403036622e+16,752002183217604.9,777357766280987.2,1992281132.0405734,3427587511.672637,42125657385.35647,815256214828.3632
14.997791114242183,1.1829966593711376e+16,1.3380650202085338e+16,762045751830985.8,787739978243862.5,2073275816.8876967,3566933503.9523735,43838244341.16492,848399845471.6838
15.397746936527026,1.1986911131927244e+16,1.3558191522597674e+16,772155579079658.6,798190682913112.1,2156980949.830312,3710942643.418144,45608142203.824104,882652611857.3048
15.805701875257567,1.2144904700304854e+16,1.3736920511246538e+16,782332981242592.6,808711240949253.2,2243479365.5390925,3859757441.697715,47437102466.56651,918048410557.6022
16.221815912762718,1.2303967607914588e+16,1.3916860174648312e+16,792579266560240.2,819303004703245.8,2332856395.1482663,4013524705.4230065,49326929408.98697,954622159716.3677
16.64625223101797,1.2464120053133666e+16,1.4098033395337602e+16,802895736142573.0,829967319155148.9,2425199939.3761806,4172395662.029353,51279481643.13683,992409828970.1185
17.079177275638333,1.2625382136956306e+16,1.4280462946853816e+16,813283684826492.4,840705522800437.0,2520600543.779338,4336526089.225388,53296673704.73044,1031448470242.4468
17.5207608211511,1.2787773875577714e+16,1.4464171508007152e+16,823744401986434.9,851518948487947.4,2619151476.197996,4506076448.23324,55380477690.688446,1071776249435.0496
17.97117603757412,1.2951315212305174e+16,1.464918167638466e+16,834279172301648.2,862408924213009.1,2720948806.4527383,4681212020.901479,57532924944.27877,1113432479039.8752
18.430599558325603,1.311602602884538e+16,1.4835515981151742e+16,844889276483278.8,873376773869063.0,2826091488.3532577,4862103050.7960825,59756107789.14601,1156457651697.3555
18.899211549492115,1.3281926156012934e+16,1.5023196895200196e+16,855575991964188.2,884423817960718.6,2934681444.082058,5048924888.377212,62052181313.55622,1200893474726.3152
19.37719578048196,1.344903538390031e+16,1.5212246846688018e+16,866340593554054.1,895551374280967.1,3046823651.017248,5241858140.372427,64423365206.21679,1246782905651.9783
19.864739696091597,1.3617373471546276e+16,1.5402688230012872e+16,877184354062175.1,906760758554962.6,3162626231.060444,5441088823.459728,66871945645.061516,1294170188758.8694
20.36203449001343,1.3786960156134996e+16,1.5594543416256628e+16,888108544890056.1,918053285052606.4,3282200542.5371184,5646808522.376227,69400277240.42874,1343100892696.2664
20.869275179813698,1.3957815161756236e+16,1.5787834763133852e+16,899114436595711.1,929430267171861.0,3405661274.7381997,5859214552.571125,72010785034.08784,1393621949164.3162
21.38666068340997,1.4129958207752226e+16,1.598258462447404e+16,910203299431322.5,940893017994543.6,3533126545.173382,6078510127.523897,74705966555.5995,1445781692709.5974
21.91439389707817,1.430340901667328e+16,1.6178815359263218e+16,921376403855733.5,952442850816109.1,3664717999.607802,6304904530.851092,77488393937.52829,1499629901659.4307
22.452681775019734,1.4478187321862122e+16,1.6376549340266274e+16,932635021022999.4,964081079650650.9,3800560914.9548483,6538613293.326956,80360716091.04576,1555217840224.698
23.00173541052013,1.465431287468165e+16,1.6575808962247234e+16,943980423247962.9,975809019712201.8,3940784305.0992746,6779858374.945508,83325660943.48938,1612598301801.5146
23.561770118730532,1.483180545139803e+16,1.6776616649801388e+16,955413884449658.5,987627987873060.4,4085521029.725436,7028868352.152565,86386037739.46187,1671825653502.248
24.133005521105144,1.5010684859726454e+16,1.697899486480694e+16,966936680572951.0,999539303099668.0,4234907906.2260375,7285878610.37789,89544739407.06448,1732955881946.7947
24.715665631527248,1.5190970945043126e+16,1.7182966113500794e+16,978550089988703.2,1011544286866258.5,4389085824.7674265,7551131541.997647,92804744990.86916,1796046640345.1729
25.309978944157795,1.5372683596261722e+16,1.7388552953175864e+16,990255393872307.8,1023644263546155.8,4548199866.587207,7824876749.858163,96169122153.23521,1861157296902.3154
25.91617852304095,1.5555842751367594e+16,1.759577799849309e+16,1002053876560189.6,1035840560780294.4,4712399425.599556,8107371256.490174,99641029745.55914,1928348984575.991
26.53450209350177,1.5740468402597428e+16,1.7804663927393676e+16,1013946825883443.5,1048134509822112.8,4881838333.3826685,8398879719.141878,103223720451.03871,1997684652218.1787
27.165192135371807,1.592658060124558e+16,1.8015233486590948e+16,1025935533477475.5,1060527445857619.2,5056674987.621309,8699674650.75635,106920543500.48439,2069229117129.7463
27.808495978079243,1.6114199462072448e+16,1.822750949661294e+16,1038021295065936.4,1073020708298918.8,5237072484.074941,9010036647.014267,110734947462.6752,2143049119057.2148
28.464665897640828,1.630334516728094e+16,1.844151485635901e+16,1050205410716898.8,1085615641049012.4,5423198752.139076,9330254619.559013,114670483110.68651,2219213375659.2646
29.133959215593645,1.649403797002164e+16,1.8657272547124016e+16,1062489185068638.8,1098313592735193.4,5615226694.06344,9660626035.512407,118730806365.53348,2297792639468.9185
29.816638399905518,1.6686298197375942e+16,1.8874805636034616e+16,1074873927521797.9,1111115916907699.9,5813334327.8854265,10001457163.383158,122919681318.36705,2378859756375.333
30.51297116790363,1.6880146252760022e+16,1.9094137278831244e+16,1087360952394236.9,1124023972199773.9,6017704934.131586,10353063325.457132,127240983332.33646,2462489725646.6836
31.223230591261704,1.707560261767971e+16,1.9315290721918436e+16,1099951579034090.0,1137039122444537.8,6228527206.331918,10715769156.748116,131698702225.06586,2548759761512.4395
31.947695203086937,1.727268785275875e+16,1.9538289303594332e+16,1112647131885983.8,1150162736743439.2,6445995405.383432,11089908870.570467,136296945532.516,2637749356319.944
32.686649107148675,1.7471422597950162e+16,1.9763156454358396e+16,1125448940504666.8,1163396189480341.0,6670309517.789288,11475826530.779562,141039941854.78256,2729540345275.926
33.44038208929165,1.7671827571830566e+16,1.998991569618347e+16,1138358339509543.0,1176740860274526.8,6901675417.787282,11873876330.703857,145932044284.1298,2824216972778.618
34.20918973107749,1.7873923569865458e+16,2.021859064062576e+16,1151376668472935.8,1190198133865190.8,7140305033.368912,12284422878.770021,150977733915.27798,2921865960340.8994
34.993373525699035,1.8077731461522404e+16,2.0449204985633244e+16,1164505271734121.5,1203769399919199.0,7386416516.173868,12707841490.796093,156181623437.62753,3022576576098.292
35.793240996213015,1.828327218609747e+16,2.068178251090073e+16,1177745498130483.5,1217456052753190.5,7640234415.228506,13144518488.897337,161548460808.75488,3126440705888.772
36.60910581613728,1.8490566747110052e+16,2.0916347071607068e+16,1191098700636452.2,1231259490960326.8,7901989854.477152,13594851506.917812,167083133008.09515,3233552925883.566
37.44128793246003,1.8699636205110236e+16,2.1152922590358896e+16,1204566235900173.0,1245181116931349.5,8171920714.034021,14059249802.26291,172790669869.28876,3344010576739.282
38.29011369110923,1.8910501668733084e+16,2.1391533047152836e+16,1218149463667255.8,1259222336258886.0,8450271815.060736,14538134573.9697,178676247989.1812,3457913839232.5156
39.15591596493141,1.9123184283826412e+16,2.16322024671608e+16,1231849746080425.8,1273384557013510.0,8737295108.149097,15031939286.807549,184745194710.92804,3575365811327.5757
40.03903428423004,1.9337705220470132e+16,2.187495490613151e+16,1245668446843353.5,1287669188879340.8,9033249865.061678,15541110001.155943,191002992178.0932,3696472586617.097
40.93981496991464,1.9554085657699696e+16,2.2119814433197224e+16,1259606930236588.2,1302077642136841.2,9338402873.65413,16066105708.356,197455281456.01105,3821343334063.358
41.85861126931294,1.977234676574178e+16,2.236680511086787e+16,1273666559973248.2,1316611326479881.8,9653028635.771845,16607398671.179558,204107866716.03485,3950090378955.5693
42.7957834946992,1.999250968556747e+16,2.2615950971992384e+16,1287848697881893.5,1331271649654236.8,9977409567.881788,17165474769.003666,210966719477.60416,4082829284985.091
43.751699164593184,2.021459550556843e+16,2.2867275993467264e+16,1302154702404108.5,1346060015904478.2,10311836204.165741,17740833847.220028,218037982902.35617,4219678937326.7295
44.72673314788505,2.0438625235162484e+16,2.3120804066473348e+16,1316585926894241.5,1360977824216418.2,10656607401.766092,18333990070.347385,225327976133.73416,4360761626599.5674
